************************************************************
  CZ Scan of (1) Internal mercury lamp
************************************************************
Integration time is 0.2294 seconds per sample
dh220517Murcia 38.0278 1.169 3.29pr1000
************************************************************
Dead Time -------------------------  2.7E-08 
Number of Cycles Used -------------  4 
Starting Wavelength (Angstroms) ---  2950 
Final Wavelength (Angstoms) -------  2984 
Wavelength Increment (Angstroms) --  .25 
Filter Wheel #1 Position ---------- (1) Ground quartz diffuser (ND=2.32)
Filter Wheel #2 Position ---------- (1) Neutral Density 0.494



************************************************************
CZ scan start time = 08:25:07
Dark Count =  1 


Time (GMT)  Wavelength (Ang)  Step Number  Raw Counts  Counts/Second

  505.84        2950.00           1407         303.00      1316.52
  505.98        2950.25           1411         297.00      1290.37
  506.01        2950.50           1414         297.00      1290.37
  506.04        2950.75           1417         316.00      1373.20
  506.07        2951.00           1421         311.00      1351.40
  506.10        2951.25           1424         307.00      1333.96
  506.14        2951.50           1427         308.00      1338.32
  506.17        2951.75           1431         325.00      1412.43
  506.20        2952.00           1434         326.00      1416.79
  506.23        2952.25           1437         325.00      1412.43
  506.26        2952.50           1441         348.00      1512.70
  506.29        2952.75           1444         327.00      1421.15
  506.32        2953.00           1448         320.00      1390.64
  506.35        2953.25           1451         331.00      1438.59
  506.38        2953.50           1454         351.00      1525.78
  506.41        2953.75           1458         344.00      1495.27
  506.44        2954.00           1461         350.00      1521.42
  506.47        2954.25           1464         337.00      1464.75
  506.50        2954.50           1468         362.00      1573.74
  506.53        2954.75           1471         348.00      1512.70
  506.56        2955.00           1475         344.00      1495.27
  506.59        2955.25           1478         347.00      1508.34
  506.62        2955.50           1481         365.00      1586.82
  506.65        2955.75           1485         385.00      1674.01
  506.69        2956.00           1488         350.00      1521.42
  506.72        2956.25           1491         360.00      1565.02
  506.75        2956.50           1495         391.00      1700.17
  506.78        2956.75           1498         387.00      1682.73
  506.81        2957.00           1501         398.00      1730.68
  506.84        2957.25           1505         384.00      1669.65
  506.87        2957.50           1508         405.00      1761.20
  506.90        2957.75           1512         394.00      1713.24
  506.93        2958.00           1515         408.00      1774.28
  506.96        2958.25           1518         420.00      1826.59
  506.99        2958.50           1522         400.00      1739.40
  507.02        2958.75           1525         432.00      1878.91
  507.05        2959.00           1528         423.00      1839.67
  507.08        2959.25           1532         433.00      1883.27
  507.11        2959.50           1535         445.00      1935.59
  507.14        2959.75           1539         442.00      1922.51
  507.18        2960.00           1542         454.00      1974.82
  507.21        2960.25           1545         461.00      2005.34
  507.24        2960.50           1549         457.00      1987.90
  507.27        2960.75           1552         495.00      2153.57
  507.30        2961.00           1555         467.00      2031.50
  507.33        2961.25           1559         490.00      2131.77
  507.36        2961.50           1562         525.00      2284.36
  507.39        2961.75           1566        1026.00      4468.72
  507.42        2962.00           1569        2645.00     11529.31
  507.45        2962.25           1572        6279.00     27387.29
  507.48        2962.50           1576       12960.00     56577.21
  507.51        2962.75           1579       18482.00     80738.15
  507.54        2963.00           1582       24570.00    107412.20
  507.57        2963.25           1586       32453.00    142008.10
  507.60        2963.50           1589       38166.00    167121.20
  507.63        2963.75           1593       45877.00    201071.20
  507.66        2964.00           1596       51929.00    227760.80
  507.70        2964.25           1599       58065.00    254860.20
  507.73        2964.50           1603       65657.00    288445.20
  507.76        2964.75           1606       71470.00    314201.80
  507.79        2965.00           1609       77031.00    338875.50
  507.82        2965.25           1613       83564.00    367904.10
  507.85        2965.50           1616       88618.00    390392.50
  507.88        2965.75           1620       96305.00    424649.20
  507.91        2966.00           1623      102227.00    451084.00
  507.94        2966.25           1626      107657.00    475355.80
  507.97        2966.50           1630      114720.00    506975.30
  508.00        2966.75           1633      120651.00    533569.00
  508.03        2967.00           1636      123768.00    547560.60
  508.06        2967.25           1640      125709.00    556278.70
  508.09        2967.50           1643      126394.00    559356.40
  508.12        2967.75           1647      126654.00    560524.70
  508.15        2968.00           1650      126200.00    558484.70
  508.18        2968.25           1653      126453.00    559621.50
  508.21        2968.50           1657      124386.00    550336.00
  508.25        2968.75           1660      120213.00    531603.60
  508.28        2969.00           1663      114617.00    506513.70
  508.31        2969.25           1667      106688.00    471022.10
  508.34        2969.50           1670       99924.00    440799.30
  508.37        2969.75           1674       90883.00    400479.70
  508.40        2970.00           1677       84759.00    373219.00
  508.43        2970.25           1680       79317.00    349027.90
  508.46        2970.50           1684       72727.00    319776.10
  508.49        2970.75           1687       67262.00    295553.10
  508.52        2971.00           1690       60698.00    266501.00
  508.55        2971.25           1694       52957.00    232298.10
  508.58        2971.50           1697       47445.00    207982.50
  508.61        2971.75           1701       41274.00    180797.60
  508.64        2972.00           1704       36142.00    158220.20
  508.67        2972.25           1707       30364.00    132833.90
  508.70        2972.50           1711       22333.00     97606.50
  508.73        2972.75           1714       16768.00     73235.35
  508.77        2973.00           1718        9076.00     39602.04
  508.80        2973.25           1721        4950.00     21586.25
  508.83        2973.50           1724        2921.00     12733.24
  508.86        2973.75           1728        1264.00      5506.49
  508.89        2974.00           1731         654.00      2846.78
  508.92        2974.25           1734         506.00      2201.53
  508.95        2974.50           1738         495.00      2153.57
  508.98        2974.75           1741         492.00      2140.49
  509.01        2975.00           1745         473.00      2057.66
  509.04        2975.25           1748         475.00      2066.38
  509.07        2975.50           1751         455.00      1979.18
  509.10        2975.75           1755         456.00      1983.54
  509.13        2976.00           1758         446.00      1939.94
  509.16        2976.25           1762         453.00      1970.46
  509.19        2976.50           1765         435.00      1891.99
  509.22        2976.75           1768         436.00      1896.35
  509.25        2977.00           1772         426.00      1852.75
  509.29        2977.25           1775         412.00      1791.72
  509.32        2977.50           1778         429.00      1865.83
  509.35        2977.75           1782         433.00      1883.27
  509.38        2978.00           1785         400.00      1739.40
  509.41        2978.25           1789         412.00      1791.72
  509.44        2978.50           1792         404.00      1756.84
  509.47        2978.75           1795         411.00      1787.36
  509.50        2979.00           1799         374.00      1626.05
  509.53        2979.25           1802         389.00      1691.45
  509.56        2979.50           1806         360.00      1565.02
  509.59        2979.75           1809         372.00      1617.33
  509.62        2980.00           1812         381.00      1656.57
  509.65        2980.25           1816         395.00      1717.60
  509.68        2980.50           1819         383.00      1665.29
  509.71        2980.75           1822         385.00      1674.01
  509.74        2981.00           1826         375.00      1630.41
  509.77        2981.25           1829         344.00      1495.27
  509.81        2981.50           1833         368.00      1599.89
  509.84        2981.75           1836         369.00      1604.25
  509.87        2982.00           1839         352.00      1530.14
  509.90        2982.25           1843         346.00      1503.98
  509.93        2982.50           1846         333.00      1447.31
  509.96        2982.75           1850         338.00      1469.11
  509.99        2983.00           1853         341.00      1482.19
  510.02        2983.25           1856         339.00      1473.47
  510.05        2983.50           1860         333.00      1447.31
  510.08        2983.75           1863         336.00      1460.39
  510.11        2984.00           1867         323.00      1403.72
CZ scan finished at 08:30:20
end
