************************************************************
  CZ Scan of (1) Internal mercury lamp
************************************************************
Integration time is 0.2294 seconds per sample
dh010617Arenosillo 37.1 6.73 3.37pr1000
************************************************************
Dead Time -------------------------  2.7E-08 
Number of Cycles Used -------------  4 
Starting Wavelength (Angstroms) ---  2950 
Final Wavelength (Angstoms) -------  2984 
Wavelength Increment (Angstroms) --  .25 
Filter Wheel #1 Position ---------- (1) Ground quartz diffuser (ND=2.32)
Filter Wheel #2 Position ---------- (1) Neutral Density 0.494



************************************************************
CZ scan start time = 20:16:05
Dark Count =  1.8 


Time (GMT)  Wavelength (Ang)  Step Number  Raw Counts  Counts/Second

 1216.81        2950.00           1407         302.00      1308.68
 1216.95        2950.25           1411         302.00      1308.68
 1216.98        2950.50           1414         312.00      1352.27
 1217.01        2950.75           1417         293.00      1269.44
 1217.05        2951.00           1421         303.00      1313.04
 1217.08        2951.25           1424         308.00      1334.83
 1217.11        2951.50           1427         324.00      1404.59
 1217.14        2951.75           1431         346.00      1500.50
 1217.18        2952.00           1434         311.00      1347.91
 1217.21        2952.25           1437         327.00      1417.67
 1217.24        2952.50           1441         322.00      1395.87
 1217.28        2952.75           1444         324.00      1404.59
 1217.31        2953.00           1448         331.00      1435.10
 1217.34        2953.25           1451         344.00      1491.78
 1217.37        2953.50           1454         349.00      1513.58
 1217.41        2953.75           1458         325.00      1408.95
 1217.44        2954.00           1461         343.00      1487.42
 1217.47        2954.25           1464         341.00      1478.70
 1217.51        2954.50           1468         359.00      1557.17
 1217.54        2954.75           1471         398.00      1727.19
 1217.57        2955.00           1475         366.00      1587.69
 1217.60        2955.25           1478         393.00      1705.40
 1217.64        2955.50           1481         370.00      1605.13
 1217.67        2955.75           1485         368.00      1596.41
 1217.70        2956.00           1488         374.00      1622.56
 1217.73        2956.25           1491         362.00      1570.25
 1217.77        2956.50           1495         372.00      1613.85
 1217.80        2956.75           1498         371.00      1609.49
 1217.83        2957.00           1501         379.00      1644.36
 1217.87        2957.25           1505         395.00      1714.12
 1217.90        2957.50           1508         408.00      1770.79
 1217.93        2957.75           1512         413.00      1792.59
 1217.96        2958.00           1515         400.00      1735.91
 1218.00        2958.25           1518         431.00      1871.06
 1218.03        2958.50           1522         397.00      1722.84
 1218.06        2958.75           1525         418.00      1814.39
 1218.10        2959.00           1528         435.00      1888.50
 1218.13        2959.25           1532         424.00      1840.54
 1218.16        2959.50           1535         428.00      1857.98
 1218.19        2959.75           1539         440.00      1910.30
 1218.23        2960.00           1542         438.00      1901.58
 1218.26        2960.25           1545         453.00      1966.97
 1218.29        2960.50           1549         449.00      1949.54
 1218.32        2960.75           1552         493.00      2141.36
 1218.36        2961.00           1555         463.00      2010.57
 1218.39        2961.25           1559         483.00      2097.77
 1218.42        2961.50           1562         506.00      2198.04
 1218.46        2961.75           1566         653.00      2838.93
 1218.49        2962.00           1569        1776.00      7735.70
 1218.52        2962.25           1572        5020.00     21888.26
 1218.55        2962.50           1576       11991.00     52337.20
 1218.59        2962.75           1579       18376.00     80270.56
 1218.62        2963.00           1582       24600.00    107540.20
 1218.65        2963.25           1586       31911.00    139623.90
 1218.68        2963.50           1589       37598.00    164619.40
 1218.72        2963.75           1593       44264.00    193960.80
 1218.75        2964.00           1596       50161.00    219956.30
 1218.78        2964.25           1599       55857.00    245100.50
 1218.82        2964.50           1603       62729.00    275481.70
 1218.85        2964.75           1606       67714.00    297551.90
 1218.88        2965.00           1609       72336.00    318038.50
 1218.91        2965.25           1613       80171.00    352818.50
 1218.95        2965.50           1616       86062.00    379012.30
 1218.98        2965.75           1620       93707.00    413060.70
 1219.01        2966.00           1623       99294.00    437983.30
 1219.05        2966.25           1626      104072.00    459323.90
 1219.08        2966.50           1630      110121.00    486376.80
 1219.11        2966.75           1633      114521.00    506080.00
 1219.14        2967.00           1636      120086.00    531030.30
 1219.18        2967.25           1640      123484.00    546281.70
 1219.21        2967.50           1643      124654.00    551536.00
 1219.24        2967.75           1647      125137.00    553705.50
 1219.27        2968.00           1650      125126.00    553656.10
 1219.31        2968.25           1653      124793.00    552160.30
 1219.34        2968.50           1657      121464.00    537213.80
 1219.37        2968.75           1660      117253.00    518324.60
 1219.41        2969.00           1663      113162.00    499992.20
 1219.44        2969.25           1667      106141.00    468572.60
 1219.47        2969.50           1670      100007.00    441166.20
 1219.50        2969.75           1674       91933.00    405154.20
 1219.54        2970.00           1677       85914.00    378353.70
 1219.57        2970.25           1680       81015.00    356569.00
 1219.60        2970.50           1684       74181.00    326222.60
 1219.63        2970.75           1687       68062.00    299093.50
 1219.67        2971.00           1690       61995.00    272234.30
 1219.70        2971.25           1694       54868.00    240732.30
 1219.73        2971.50           1697       49208.00    215752.70
 1219.77        2971.75           1701       42622.00    186728.90
 1219.80        2972.00           1704       38650.00    169246.80
 1219.83        2972.25           1707       34576.00    151332.90
 1219.86        2972.50           1711       26751.00    116973.90
 1219.90        2972.75           1714       20242.00     88441.98
 1219.93        2973.00           1718       12132.00     52953.60
 1219.96        2973.25           1721        6511.00     28396.66
 1220.00        2973.50           1724        3196.00     13929.39
 1220.03        2973.75           1728        1156.00      5032.07
 1220.06        2974.00           1731         670.00      2913.05
 1220.09        2974.25           1734         506.00      2198.04
 1220.13        2974.50           1738         506.00      2198.04
 1220.16        2974.75           1741         492.00      2137.00
 1220.19        2975.00           1745         490.00      2128.28
 1220.23        2975.25           1748         469.00      2036.73
 1220.26        2975.50           1751         447.00      1940.82
 1220.29        2975.75           1755         459.00      1993.13
 1220.32        2976.00           1758         433.00      1879.78
 1220.36        2976.25           1762         445.00      1932.10
 1220.39        2976.50           1765         426.00      1849.26
 1220.42        2976.75           1768         423.00      1836.19
 1220.45        2977.00           1772         437.00      1897.22
 1220.49        2977.25           1775         415.00      1801.31
 1220.52        2977.50           1778         412.00      1788.23
 1220.55        2977.75           1782         420.00      1823.11
 1220.58        2978.00           1785         414.00      1796.95
 1220.62        2978.25           1789         397.00      1722.84
 1220.65        2978.50           1792         423.00      1836.19
 1220.68        2978.75           1795         389.00      1687.96
 1220.72        2979.00           1799         404.00      1753.35
 1220.75        2979.25           1802         399.00      1731.55
 1220.78        2979.50           1806         384.00      1666.16
 1220.81        2979.75           1809         373.00      1618.21
 1220.85        2980.00           1812         389.00      1687.96
 1220.88        2980.25           1816         371.00      1609.49
 1220.91        2980.50           1819         362.00      1570.25
 1220.95        2980.75           1822         375.00      1626.92
 1220.98        2981.00           1826         377.00      1635.64
 1221.01        2981.25           1829         387.00      1679.24
 1221.04        2981.50           1833         370.00      1605.13
 1221.08        2981.75           1836         367.00      1592.05
 1221.11        2982.00           1839         363.00      1574.61
 1221.14        2982.25           1843         346.00      1500.50
 1221.18        2982.50           1846         345.00      1496.14
 1221.21        2982.75           1850         348.00      1509.22
 1221.24        2983.00           1853         346.00      1500.50
 1221.27        2983.25           1856         361.00      1565.89
 1221.31        2983.50           1860         343.00      1487.42
 1221.34        2983.75           1863         324.00      1404.59
 1221.37        2984.00           1867         322.00      1395.87
CZ scan finished at 20:21:36
end
