************************************************************
  HL Scan of (1) Internal mercury lamp
************************************************************
Integration time is 0.2294 seconds per sample
dh310517Arenosillo 37.1 6.73 3.19pr1000
************************************************************
Dead Time -------------------------  2.7E-08 
Number of Cycles Used -------------  4 
Starting Wavelength (Angstroms) ---  3331 
Final Wavelength (Angstoms) -------  3351 
Wavelength Increment (Angstroms) --  .25 
Filter Wheel #1 Position ---------- (1) Ground quartz diffuser (ND=2.32)
Filter Wheel #2 Position ---------- (0) Clear Aperture



************************************************************
HL scan start time = 02:14:05
Dark Count =  .9 


Time (GMT)  Wavelength (Ang)  Step Number  Raw Counts  Counts/Second

  135.12        3331.00           4884         438.00      1905.50
  135.52        3331.25           4888         469.00      2040.65
  135.56        3331.50           4891         460.00      2001.42
  135.59        3331.75           4895         459.00      1997.06
  135.62        3332.00           4899         440.00      1914.22
  135.66        3332.25           4903         459.00      1997.06
  135.69        3332.50           4906         455.00      1979.62
  135.72        3332.75           4910         458.00      1992.70
  135.75        3333.00           4914         467.00      2031.93
  135.79        3333.25           4918         442.00      1922.94
  135.82        3333.50           4921         472.00      2053.73
  135.85        3333.75           4925         484.00      2106.05
  135.89        3334.00           4929         500.00      2175.80
  135.92        3334.25           4933         473.00      2058.09
  135.95        3334.50           4936         485.00      2110.41
  135.98        3334.75           4940         506.00      2201.96
  136.02        3335.00           4944         517.00      2249.92
  136.05        3335.25           4948         519.00      2258.64
  136.08        3335.50           4952         501.00      2180.16
  136.11        3335.75           4955         513.00      2232.48
  136.15        3336.00           4959         682.00      2969.29
  136.18        3336.25           4963        2274.00      9911.55
  136.21        3336.50           4967        6362.00     27750.08
  136.25        3336.75           4970       10413.00     45444.13
  136.28        3337.00           4974       16068.00     70172.50
  136.31        3337.25           4978       21827.00     95389.66
  136.34        3337.50           4982       27210.00    118991.50
  136.38        3337.75           4985       31614.00    138323.40
  136.41        3338.00           4989       37421.00    163844.90
  136.44        3338.25           4993       43669.00    191343.90
  136.47        3338.50           4997       49888.00    218756.00
  136.51        3338.75           5000       54044.00    237097.50
  136.54        3339.00           5004       59056.00    259241.10
  136.57        3339.25           5008       64254.00    282234.50
  136.61        3339.50           5012       68692.00    301888.80
  136.64        3339.75           5016       74109.00    325907.10
  136.67        3340.00           5019       78626.00    345958.90
  136.70        3340.25           5023       85120.00    374825.20
  136.74        3340.50           5027       91215.00    401959.20
  136.77        3340.75           5031       97679.00    430779.60
  136.80        3341.00           5034      102423.00    451960.00
  136.84        3341.25           5038      105825.00    467163.80
  136.87        3341.50           5042      107195.00    473289.90
  136.90        3341.75           5046      105706.00    466631.70
  136.93        3342.00           5049      103410.00    456369.70
  136.97        3342.25           5053       97807.00    431350.80
  137.00        3342.50           5057       92564.00    407970.10
  137.03        3342.75           5061       87572.00    385736.40
  137.07        3343.00           5065       82934.00    365103.30
  137.10        3343.25           5068       77838.00    342459.30
  137.13        3343.50           5072       71325.00    313559.30
  137.16        3343.75           5076       65598.00    288184.40
  137.20        3344.00           5080       60052.00    263644.70
  137.23        3344.25           5083       56155.00    246421.00
  137.26        3344.50           5087       51310.00    225029.60
  137.29        3344.75           5091       45999.00    201609.30
  137.33        3345.00           5095       39477.00    172889.30
  137.36        3345.25           5098       34787.00    152264.20
  137.39        3345.50           5102       28538.00    124818.80
  137.43        3345.75           5106       22574.00     98663.09
  137.46        3346.00           5110       16256.00     70995.15
  137.49        3346.25           5114       10313.00     45007.15
  137.52        3346.50           5117        6501.00     28356.93
  137.56        3346.75           5121        2923.00     12742.40
  137.59        3347.00           5125        1245.00      5424.07
  137.62        3347.25           5129         616.00      2681.54
  137.66        3347.50           5132         531.00      2310.95
  137.69        3347.75           5136         505.00      2197.60
  137.72        3348.00           5140         513.00      2232.48
  137.76        3348.25           5144         518.00      2254.28
  137.79        3348.50           5148         536.00      2332.75
  137.82        3348.75           5151         500.00      2175.80
  137.85        3349.00           5155         501.00      2180.16
  137.89        3349.25           5159         484.00      2106.05
  137.92        3349.50           5163         471.00      2049.37
  137.95        3349.75           5166         502.00      2184.52
  137.98        3350.00           5170         472.00      2053.73
  138.02        3350.25           5174         464.00      2018.85
  138.05        3350.50           5178         485.00      2110.41
  138.08        3350.75           5182         485.00      2110.41
  138.12        3351.00           5185         472.00      2053.73
HL scan finished at 02:18:54
end
