************************************************************
  HL Scan of (1) Internal mercury lamp
************************************************************
Integration time is 0.2294 seconds per sample
dh080619Murcia 38.0278 1.169 3.09pr1000
************************************************************
Dead Time -------------------------  2.7E-08 
Number of Cycles Used -------------  4 
Starting Wavelength (Angstroms) ---  3331 
Final Wavelength (Angstoms) -------  3351 
Wavelength Increment (Angstroms) --  .25 
Filter Wheel #1 Position ---------- (1) Ground quartz diffuser (ND=2.32)
Filter Wheel #2 Position ---------- 



************************************************************
HL scan start time = 00:54:44
Dark Count =  1.5 


Time (GMT)  Wavelength (Ang)  Step Number  Raw Counts  Counts/Second

   55.89        3331.00           6808         176.00       760.70
   56.44        3331.25           6812         170.00       734.54
   56.47        3331.50           6815         170.00       734.54
   56.51        3331.75           6819         169.00       730.18
   56.55        3332.00           6823         196.00       847.88
   56.58        3332.25           6826         168.00       725.82
   56.61        3332.50           6830         183.00       791.21
   56.65        3332.75           6834         178.00       769.41
   56.68        3333.00           6838         167.00       721.46
   56.72        3333.25           6841         186.00       804.29
   56.75        3333.50           6845         175.00       756.34
   56.79        3333.75           6849         180.00       778.13
   56.82        3334.00           6853         190.00       821.73
   56.86        3334.25           6856         193.00       834.81
   56.89        3334.50           6860         182.00       786.85
   56.93        3334.75           6864         180.00       778.13
   56.96        3335.00           6867         191.00       826.09
   57.00        3335.25           6871         189.00       817.37
   57.03        3335.50           6875         196.00       847.88
   57.07        3335.75           6879         207.00       895.84
   57.10        3336.00           6882         211.00       913.27
   57.14        3336.25           6886         264.00      1144.32
   57.17        3336.50           6890         376.00      1632.59
   57.21        3336.75           6894         458.00      1990.08
   57.24        3337.00           6897         568.00      2469.65
   57.28        3337.25           6901         679.00      2953.59
   57.31        3337.50           6905         790.00      3437.55
   57.35        3337.75           6908         863.00      3755.83
   57.38        3338.00           6912         971.00      4226.72
   57.42        3338.25           6916        1107.00      4819.72
   57.45        3338.50           6920        1243.00      5412.74
   57.49        3338.75           6923        1277.00      5560.99
   57.52        3339.00           6927        1383.00      6023.21
   57.56        3339.25           6931        1497.00      6520.33
   57.59        3339.50           6935        1597.00      6956.41
   57.63        3339.75           6938        1684.00      7335.80
   57.66        3340.00           6942        1819.00      7924.54
   57.70        3340.25           6946        1937.00      8439.15
   57.73        3340.50           6950        2034.00      8862.19
   57.77        3340.75           6953        2042.00      8897.08
   57.80        3341.00           6957        2118.00      9228.54
   57.84        3341.25           6961        2145.00      9346.30
   57.87        3341.50           6964        2156.00      9394.28
   57.91        3341.75           6968        2154.00      9385.55
   57.94        3342.00           6972        2036.00      8870.91
   57.98        3342.25           6976        1931.00      8412.98
   58.01        3342.50           6979        1848.00      8051.01
   58.05        3342.75           6983        1752.00      7632.35
   58.08        3343.00           6987        1702.00      7414.30
   58.12        3343.25           6991        1526.00      6646.79
   58.15        3343.50           6994        1451.00      6319.74
   58.19        3343.75           6998        1321.00      5752.86
   58.22        3344.00           7002        1201.00      5229.60
   58.26        3344.25           7006        1079.00      4697.63
   58.29        3344.50           7009         996.00      4335.73
   58.33        3344.75           7013         903.00      3930.23
   58.36        3345.00           7017         786.00      3420.11
   58.40        3345.25           7021         673.00      2927.43
   58.43        3345.50           7024         657.00      2857.67
   58.47        3345.75           7028         563.00      2447.85
   58.50        3346.00           7032         452.00      1963.92
   58.54        3346.25           7035         373.00      1619.51
   58.57        3346.50           7039         275.00      1192.28
   58.61        3346.75           7043         260.00      1126.89
   58.64        3347.00           7047         242.00      1048.42
   58.68        3347.25           7050         258.00      1118.17
   58.71        3347.50           7054         219.00       948.15
   58.75        3347.75           7058         236.00      1022.26
   58.78        3348.00           7062         237.00      1026.62
   58.82        3348.25           7065         251.00      1087.65
   58.85        3348.50           7069         257.00      1113.81
   58.89        3348.75           7073         260.00      1126.89
   58.92        3349.00           7077         252.00      1092.01
   58.96        3349.25           7080         277.00      1201.00
   58.99        3349.50           7084         235.00      1017.90
   59.03        3349.75           7088         240.00      1039.70
   59.06        3350.00           7092         244.00      1057.14
   59.10        3350.25           7095         258.00      1118.17
   59.13        3350.50           7099         258.00      1118.17
   59.17        3350.75           7103         259.00      1122.53
   59.20        3351.00           7107         255.00      1105.09
HL scan finished at 01:00:00
end
