************************************************************
  HL Scan of (1) Internal mercury lamp
************************************************************
Integration time is 0.2294 seconds per sample
dh300517Arenosillo 37.1 6.73 3.31pr1000
************************************************************
Dead Time -------------------------  2.7E-08 
Number of Cycles Used -------------  4 
Starting Wavelength (Angstroms) ---  3331 
Final Wavelength (Angstoms) -------  3351 
Wavelength Increment (Angstroms) --  .25 
Filter Wheel #1 Position ---------- (1) Ground quartz diffuser (ND=2.32)
Filter Wheel #2 Position ---------- (0) Clear Aperture



************************************************************
HL scan start time = 20:47:11
Dark Count =  1.4 


Time (GMT)  Wavelength (Ang)  Step Number  Raw Counts  Counts/Second

 1248.22        3331.00           4884         449.00      1951.28
 1248.62        3331.25           4888         468.00      2034.11
 1248.66        3331.50           4891         459.00      1994.88
 1248.69        3331.75           4895         467.00      2029.75
 1248.72        3332.00           4899         462.00      2007.96
 1248.75        3332.25           4903         466.00      2025.39
 1248.79        3332.50           4906         507.00      2204.14
 1248.82        3332.75           4910         487.00      2116.95
 1248.85        3333.00           4914         517.00      2247.74
 1248.89        3333.25           4918         486.00      2112.59
 1248.92        3333.50           4921         495.00      2151.83
 1248.95        3333.75           4925         505.00      2195.42
 1248.99        3334.00           4929         500.00      2173.62
 1249.02        3334.25           4933         494.00      2147.47
 1249.05        3334.50           4936         516.00      2243.38
 1249.08        3334.75           4940         520.00      2260.82
 1249.12        3335.00           4944         538.00      2339.29
 1249.15        3335.25           4948         542.00      2356.73
 1249.18        3335.50           4952         540.00      2348.01
 1249.21        3335.75           4955         534.00      2321.85
 1249.25        3336.00           4959         725.00      3154.58
 1249.28        3336.25           4963        2282.00      9944.26
 1249.31        3336.50           4967        6842.00     29843.57
 1249.35        3336.75           4970       11134.00     48592.92
 1249.38        3337.00           4974       16404.00     71640.63
 1249.41        3337.25           4978       21498.00     93945.93
 1249.45        3337.50           4982       27170.00    118813.90
 1249.48        3337.75           4985       31490.00    137776.60
 1249.51        3338.00           4989       38540.00    168764.60
 1249.55        3338.25           4993       45178.00    197989.30
 1249.58        3338.50           4997       51978.00    227975.30
 1249.61        3338.75           5000       56782.00    249188.90
 1249.65        3339.00           5004       63312.00    278063.20
 1249.68        3339.25           5008       69540.00    305644.50
 1249.71        3339.50           5012       75500.00    332077.50
 1249.75        3339.75           5016       81042.00    356690.70
 1249.78        3340.00           5019       85645.00    377158.60
 1249.81        3340.25           5023       91851.00    404790.60
 1249.85        3340.50           5027       97602.00    430433.80
 1249.88        3340.75           5031      102450.00    452078.40
 1249.91        3341.00           5034      106646.00    470832.50
 1249.94        3341.25           5038      109822.00    485040.50
 1249.98        3341.50           5042      110792.00    489382.00
 1250.01        3341.75           5046      109775.00    484830.20
 1250.05        3342.00           5049      107211.00    473359.20
 1250.08        3342.25           5053      102590.00    452703.80
 1250.11        3342.50           5057       98253.00    433338.80
 1250.14        3342.75           5061       93484.00    412068.40
 1250.18        3343.00           5065       86889.00    382694.20
 1250.21        3343.25           5068       81746.00    359819.70
 1250.24        3343.50           5072       75634.00    332672.20
 1250.27        3343.75           5076       68886.00    302746.30
 1250.31        3344.00           5080       61452.00    269834.10
 1250.34        3344.25           5083       56421.00    247593.90
 1250.37        3344.50           5087       50033.00    219393.40
 1250.41        3344.75           5091       44813.00    196381.20
 1250.44        3345.00           5095       38612.00    169081.40
 1250.47        3345.25           5098       33435.00    146320.60
 1250.50        3345.50           5102       27509.00    120301.20
 1250.54        3345.75           5106       22245.00     97219.11
 1250.57        3346.00           5110       17601.00     76879.56
 1250.61        3346.25           5114       11581.00     50546.71
 1250.64        3346.50           5117        6818.00     29738.78
 1250.67        3346.75           5121        2852.00     12430.50
 1250.71        3347.00           5125        1206.00      5251.84
 1250.74        3347.25           5129         741.00      3224.34
 1250.77        3347.50           5132         565.00      2457.01
 1250.80        3347.75           5136         524.00      2278.26
 1250.84        3348.00           5140         501.00      2177.98
 1250.87        3348.25           5144         491.00      2134.39
 1250.91        3348.50           5148         501.00      2177.98
 1250.94        3348.75           5151         509.00      2212.86
 1250.97        3349.00           5155         510.00      2217.22
 1251.00        3349.25           5159         485.00      2108.23
 1251.04        3349.50           5163         480.00      2086.43
 1251.07        3349.75           5166         488.00      2121.31
 1251.10        3350.00           5170         506.00      2199.78
 1251.14        3350.25           5174         482.00      2095.15
 1251.17        3350.50           5178         483.00      2099.51
 1251.20        3350.75           5182         461.00      2003.60
 1251.23        3351.00           5185         475.00      2064.63
HL scan finished at 20:52:01
end
