************************************************************
  HL Scan of (1) Internal mercury lamp
************************************************************
Integration time is 0.2294 seconds per sample
dh180619El Arenosillo 37.1 6.73 2.98pr1000
************************************************************
Dead Time -------------------------  2.7E-08 
Number of Cycles Used -------------  4 
Starting Wavelength (Angstroms) ---  3331 
Final Wavelength (Angstoms) -------  3351 
Wavelength Increment (Angstroms) --  .25 
Filter Wheel #1 Position ---------- (1) Ground quartz diffuser (ND=2.32)
Filter Wheel #2 Position ---------- 



************************************************************
HL scan start time = 02:35:01
Dark Count =  1.2 


Time (GMT)  Wavelength (Ang)  Step Number  Raw Counts  Counts/Second

  156.17        3331.00           6810         185.00       801.24
  156.72        3331.25           6814         179.00       775.08
  156.76        3331.50           6818         173.00       748.93
  156.79        3331.75           6822         179.00       775.08
  156.83        3332.00           6825         178.00       770.72
  156.86        3332.25           6829         182.00       788.16
  156.90        3332.50           6833         179.00       775.08
  156.93        3332.75           6836         166.00       718.41
  156.97        3333.00           6840         169.00       731.49
  157.00        3333.25           6844         168.00       727.13
  157.04        3333.50           6848         164.00       709.69
  157.07        3333.75           6851         183.00       792.52
  157.11        3334.00           6855         174.00       753.28
  157.14        3334.25           6859         165.00       714.05
  157.18        3334.50           6863         170.00       735.85
  157.21        3334.75           6866         176.00       762.00
  157.25        3335.00           6870         172.00       744.57
  157.28        3335.25           6874         202.00       875.35
  157.32        3335.50           6877         181.00       783.80
  157.35        3335.75           6881         214.00       927.66
  157.39        3336.00           6885         286.00      1241.54
  157.42        3336.25           6889         377.00      1638.26
  157.46        3336.50           6892         494.00      2148.34
  157.49        3336.75           6896         578.00      2514.56
  157.53        3337.00           6900         688.00      2994.14
  157.56        3337.25           6904         765.00      3329.85
  157.60        3337.50           6907         884.00      3848.70
  157.63        3337.75           6911         944.00      4110.31
  157.66        3338.00           6915        1074.00      4677.14
  157.70        3338.25           6918        1165.00      5073.93
  157.74        3338.50           6922        1227.00      5344.28
  157.77        3338.75           6926        1375.00      5989.64
  157.81        3339.00           6930        1454.00      6334.13
  157.84        3339.25           6933        1534.00      6682.99
  157.87        3339.50           6937        1637.00      7132.15
  157.91        3339.75           6941        1773.00      7725.24
  157.95        3340.00           6945        1857.00      8091.57
  157.98        3340.25           6948        1887.00      8222.40
  158.01        3340.50           6952        2064.00      8994.34
  158.05        3340.75           6956        2050.00      8933.28
  158.08        3341.00           6959        2063.00      8989.98
  158.12        3341.25           6963        2049.00      8928.92
  158.15        3341.50           6967        2040.00      8889.67
  158.19        3341.75           6971        1955.00      8518.96
  158.22        3342.00           6974        1936.00      8436.10
  158.26        3342.25           6978        1799.00      7838.63
  158.29        3342.50           6982        1694.00      7380.72
  158.33        3342.75           6986        1569.00      6835.61
  158.36        3343.00           6989        1467.00      6390.82
  158.40        3343.25           6993        1340.00      5837.01
  158.43        3343.50           6997        1273.00      5544.86
  158.47        3343.75           7001        1184.00      5156.78
  158.50        3344.00           7004        1088.00      4738.18
  158.54        3344.25           7008         995.00      4332.68
  158.57        3344.50           7012         912.00      3970.78
  158.61        3344.75           7015         825.00      3591.46
  158.64        3345.00           7019         713.00      3103.14
  158.68        3345.25           7023         617.00      2684.59
  158.71        3345.50           7027         527.00      2292.21
  158.75        3345.75           7030         459.00      1995.75
  158.78        3346.00           7034         367.00      1594.66
  158.82        3346.25           7038         277.00      1202.31
  158.85        3346.50           7042         246.00      1067.16
  158.89        3346.75           7045         241.00      1045.37
  158.92        3347.00           7049         211.00       914.58
  158.96        3347.25           7053         235.00      1019.21
  158.99        3347.50           7057         249.00      1080.24
  159.03        3347.75           7060         243.00      1054.08
  159.06        3348.00           7064         230.00       997.41
  159.10        3348.25           7068         258.00      1119.48
  159.13        3348.50           7072         241.00      1045.37
  159.17        3348.75           7075         223.00       966.90
  159.20        3349.00           7079         231.00      1001.77
  159.24        3349.25           7083         233.00      1010.49
  159.27        3349.50           7087         225.00       975.61
  159.31        3349.75           7090         251.00      1088.96
  159.34        3350.00           7094         263.00      1141.27
  159.38        3350.25           7098         273.00      1184.87
  159.41        3350.50           7102         259.00      1123.84
  159.45        3350.75           7105         234.00      1014.85
  159.48        3351.00           7109         256.00      1110.76
HL scan finished at 02:40:17
end
************************************************************
  HL Scan of (1) Internal mercury lamp
************************************************************
Integration time is 0.2294 seconds per sample
dh180619El Arenosillo 37.1 6.73 3.19pr1000
************************************************************
Dead Time -------------------------  2.7E-08 
Number of Cycles Used -------------  4 
Starting Wavelength (Angstroms) ---  3331 
Final Wavelength (Angstoms) -------  3351 
Wavelength Increment (Angstroms) --  .25 
Filter Wheel #1 Position ---------- (1) Ground quartz diffuser (ND=2.32)
Filter Wheel #2 Position ---------- 



************************************************************
HL scan start time = 22:02:02
Dark Count =  1.9 


Time (GMT)  Wavelength (Ang)  Step Number  Raw Counts  Counts/Second

 1323.18        3331.00           6810         190.00       819.98
 1323.73        3331.25           6814         171.00       737.16
 1323.77        3331.50           6818         177.00       763.31
 1323.80        3331.75           6822         171.00       737.16
 1323.84        3332.00           6825         187.00       806.91
 1323.87        3332.25           6829         181.00       780.75
 1323.91        3332.50           6833         189.00       815.62
 1323.94        3332.75           6836         170.00       732.80
 1323.98        3333.00           6840         167.00       719.72
 1324.01        3333.25           6844         183.00       789.47
 1324.05        3333.50           6848         182.00       785.11
 1324.08        3333.75           6851         178.00       767.67
 1324.12        3334.00           6855         178.00       767.67
 1324.15        3334.25           6859         182.00       785.11
 1324.19        3334.50           6863         182.00       785.11
 1324.22        3334.75           6866         176.00       758.95
 1324.26        3335.00           6870         192.00       828.70
 1324.29        3335.25           6874         188.00       811.26
 1324.33        3335.50           6877         190.00       819.98
 1324.36        3335.75           6881         219.00       946.41
 1324.40        3336.00           6885         311.00      1347.48
 1324.43        3336.25           6889         408.00      1770.36
 1324.47        3336.50           6892         455.00      1975.26
 1324.50        3336.75           6896         557.00      2419.95
 1324.53        3337.00           6900         702.00      3052.13
 1324.57        3337.25           6904         837.00      3640.72
 1324.60        3337.50           6907         886.00      3854.37
 1324.64        3337.75           6911         992.00      4316.55
 1324.67        3338.00           6915        1106.00      4813.62
 1324.71        3338.25           6918        1250.00      5441.51
 1324.74        3338.50           6922        1363.00      5934.26
 1324.78        3338.75           6926        1454.00      6331.07
 1324.81        3339.00           6930        1549.00      6745.34
 1324.85        3339.25           6933        1625.00      7076.77
 1324.88        3339.50           6937        1746.00      7604.44
 1324.92        3339.75           6941        1852.00      8066.71
 1324.95        3340.00           6945        1983.00      8638.02
 1324.99        3340.25           6948        2075.00      9039.26
 1325.02        3340.50           6952        2177.00      9484.12
 1325.06        3340.75           6956        2204.00      9601.88
 1325.09        3341.00           6959        2206.00      9610.60
 1325.13        3341.25           6963        2253.00      9815.59
 1325.16        3341.50           6967        2186.00      9523.37
 1325.20        3341.75           6971        2103.00      9161.38
 1325.23        3342.00           6974        1961.00      8542.07
 1325.27        3342.25           6978        1882.00      8197.54
 1325.30        3342.50           6982        1775.00      7730.91
 1325.34        3342.75           6986        1701.00      7408.20
 1325.37        3343.00           6989        1600.00      6967.74
 1325.41        3343.25           6993        1469.00      6396.48
 1325.44        3343.50           6997        1344.00      5851.40
 1325.48        3343.75           7001        1220.00      5310.70
 1325.51        3344.00           7004        1149.00      5001.11
 1325.55        3344.25           7008        1058.00      4604.32
 1325.58        3344.50           7012         960.00      4177.02
 1325.62        3344.75           7015         838.00      3645.08
 1325.65        3345.00           7019         752.00      3270.12
 1325.69        3345.25           7023         629.00      2733.85
 1325.72        3345.50           7027         541.00      2350.19
 1325.76        3345.75           7030         432.00      1874.99
 1325.79        3346.00           7034         356.00      1543.66
 1325.83        3346.25           7038         288.00      1247.21
 1325.86        3346.50           7042         269.00      1164.38
 1325.90        3346.75           7045         240.00      1037.95
 1325.93        3347.00           7049         222.00       959.48
 1325.97        3347.25           7053         248.00      1072.83
 1326.00        3347.50           7057         220.00       950.77
 1326.04        3347.75           7060         237.00      1024.88
 1326.07        3348.00           7064         254.00      1098.99
 1326.11        3348.25           7068         247.00      1068.47
 1326.14        3348.50           7072         245.00      1059.75
 1326.18        3348.75           7075         250.00      1081.55
 1326.21        3349.00           7079         247.00      1068.47
 1326.25        3349.25           7083         231.00       998.72
 1326.28        3349.50           7087         246.00      1064.11
 1326.32        3349.75           7090         241.00      1042.31
 1326.35        3350.00           7094         247.00      1068.47
 1326.39        3350.25           7098         267.00      1155.66
 1326.42        3350.50           7102         287.00      1242.85
 1326.46        3350.75           7105         246.00      1064.11
 1326.49        3351.00           7109         268.00      1160.02
HL scan finished at 22:07:18
end
