************************************************************
  HL Scan of (1) Internal mercury lamp
************************************************************
Integration time is 0.2294 seconds per sample
dh180619El Arenosillo 37.1 6.73 2.98pr1000
************************************************************
Dead Time -------------------------  2.7E-08 
Number of Cycles Used -------------  4 
Starting Wavelength (Angstroms) ---  3331 
Final Wavelength (Angstoms) -------  3351 
Wavelength Increment (Angstroms) --  .25 
Filter Wheel #1 Position ---------- (1) Ground quartz diffuser (ND=2.32)
Filter Wheel #2 Position ---------- 



************************************************************
HL scan start time = 02:35:01
Dark Count =  1.2 


Time (GMT)  Wavelength (Ang)  Step Number  Raw Counts  Counts/Second

  156.17        3331.00           6810         185.00       801.24
  156.72        3331.25           6814         179.00       775.08
  156.76        3331.50           6818         173.00       748.93
  156.79        3331.75           6822         179.00       775.08
  156.83        3332.00           6825         178.00       770.72
  156.86        3332.25           6829         182.00       788.16
  156.90        3332.50           6833         179.00       775.08
  156.93        3332.75           6836         166.00       718.41
  156.97        3333.00           6840         169.00       731.49
  157.00        3333.25           6844         168.00       727.13
  157.04        3333.50           6848         164.00       709.69
  157.07        3333.75           6851         183.00       792.52
  157.11        3334.00           6855         174.00       753.28
  157.14        3334.25           6859         165.00       714.05
  157.18        3334.50           6863         170.00       735.85
  157.21        3334.75           6866         176.00       762.00
  157.25        3335.00           6870         172.00       744.57
  157.28        3335.25           6874         202.00       875.35
  157.32        3335.50           6877         181.00       783.80
  157.35        3335.75           6881         214.00       927.66
  157.39        3336.00           6885         286.00      1241.54
  157.42        3336.25           6889         377.00      1638.26
  157.46        3336.50           6892         494.00      2148.34
  157.49        3336.75           6896         578.00      2514.56
  157.53        3337.00           6900         688.00      2994.14
  157.56        3337.25           6904         765.00      3329.85
  157.60        3337.50           6907         884.00      3848.70
  157.63        3337.75           6911         944.00      4110.31
  157.66        3338.00           6915        1074.00      4677.14
  157.70        3338.25           6918        1165.00      5073.93
  157.74        3338.50           6922        1227.00      5344.28
  157.77        3338.75           6926        1375.00      5989.64
  157.81        3339.00           6930        1454.00      6334.13
  157.84        3339.25           6933        1534.00      6682.99
  157.87        3339.50           6937        1637.00      7132.15
  157.91        3339.75           6941        1773.00      7725.24
  157.95        3340.00           6945        1857.00      8091.57
  157.98        3340.25           6948        1887.00      8222.40
  158.01        3340.50           6952        2064.00      8994.34
  158.05        3340.75           6956        2050.00      8933.28
  158.08        3341.00           6959        2063.00      8989.98
  158.12        3341.25           6963        2049.00      8928.92
  158.15        3341.50           6967        2040.00      8889.67
  158.19        3341.75           6971        1955.00      8518.96
  158.22        3342.00           6974        1936.00      8436.10
  158.26        3342.25           6978        1799.00      7838.63
  158.29        3342.50           6982        1694.00      7380.72
  158.33        3342.75           6986        1569.00      6835.61
  158.36        3343.00           6989        1467.00      6390.82
  158.40        3343.25           6993        1340.00      5837.01
  158.43        3343.50           6997        1273.00      5544.86
  158.47        3343.75           7001        1184.00      5156.78
  158.50        3344.00           7004        1088.00      4738.18
  158.54        3344.25           7008         995.00      4332.68
  158.57        3344.50           7012         912.00      3970.78
  158.61        3344.75           7015         825.00      3591.46
  158.64        3345.00           7019         713.00      3103.14
  158.68        3345.25           7023         617.00      2684.59
  158.71        3345.50           7027         527.00      2292.21
  158.75        3345.75           7030         459.00      1995.75
  158.78        3346.00           7034         367.00      1594.66
  158.82        3346.25           7038         277.00      1202.31
  158.85        3346.50           7042         246.00      1067.16
  158.89        3346.75           7045         241.00      1045.37
  158.92        3347.00           7049         211.00       914.58
  158.96        3347.25           7053         235.00      1019.21
  158.99        3347.50           7057         249.00      1080.24
  159.03        3347.75           7060         243.00      1054.08
  159.06        3348.00           7064         230.00       997.41
  159.10        3348.25           7068         258.00      1119.48
  159.13        3348.50           7072         241.00      1045.37
  159.17        3348.75           7075         223.00       966.90
  159.20        3349.00           7079         231.00      1001.77
  159.24        3349.25           7083         233.00      1010.49
  159.27        3349.50           7087         225.00       975.61
  159.31        3349.75           7090         251.00      1088.96
  159.34        3350.00           7094         263.00      1141.27
  159.38        3350.25           7098         273.00      1184.87
  159.41        3350.50           7102         259.00      1123.84
  159.45        3350.75           7105         234.00      1014.85
  159.48        3351.00           7109         256.00      1110.76
HL scan finished at 02:40:17
end
