************************************************************
  HL Scan of (1) Internal mercury lamp
************************************************************
Integration time is 0.2294 seconds per sample
dh170619El Arenosillo 37.1 6.73 2.98pr1000
************************************************************
Dead Time -------------------------  2.7E-08 
Number of Cycles Used -------------  4 
Starting Wavelength (Angstroms) ---  3331 
Final Wavelength (Angstoms) -------  3351 
Wavelength Increment (Angstroms) --  .25 
Filter Wheel #1 Position ---------- (1) Ground quartz diffuser (ND=2.32)
Filter Wheel #2 Position ---------- 



************************************************************
HL scan start time = 22:11:16
Dark Count =  1 


Time (GMT)  Wavelength (Ang)  Step Number  Raw Counts  Counts/Second

 1332.41        3331.00           6810         176.00       762.88
 1332.97        3331.25           6814         164.00       710.56
 1333.00        3331.50           6818         170.00       736.72
 1333.04        3331.75           6822         186.00       806.47
 1333.07        3332.00           6825         168.00       728.00
 1333.11        3332.25           6829         174.00       754.16
 1333.14        3332.50           6833         173.00       749.80
 1333.18        3332.75           6836         168.00       728.00
 1333.21        3333.00           6840         177.00       767.23
 1333.25        3333.25           6844         177.00       767.23
 1333.28        3333.50           6848         171.00       741.08
 1333.32        3333.75           6851         175.00       758.52
 1333.35        3334.00           6855         182.00       789.03
 1333.39        3334.25           6859         176.00       762.88
 1333.42        3334.50           6863         179.00       775.95
 1333.46        3334.75           6866         181.00       784.67
 1333.49        3335.00           6870         178.00       771.59
 1333.53        3335.25           6874         190.00       823.91
 1333.56        3335.50           6877         181.00       784.67
 1333.60        3335.75           6881         213.00       924.17
 1333.63        3336.00           6885         259.00      1124.71
 1333.66        3336.25           6889         343.00      1490.91
 1333.70        3336.50           6892         413.00      1796.08
 1333.73        3336.75           6896         529.00      2301.80
 1333.77        3337.00           6900         623.00      2711.62
 1333.80        3337.25           6904         736.00      3204.29
 1333.84        3337.50           6907         822.00      3579.25
 1333.87        3337.75           6911         967.00      4211.46
 1333.91        3338.00           6915        1030.00      4486.16
 1333.94        3338.25           6918        1035.00      4507.96
 1333.98        3338.50           6922        1194.00      5201.25
 1334.01        3338.75           6926        1296.00      5646.02
 1334.05        3339.00           6930        1460.00      6361.16
 1334.08        3339.25           6933        1520.00      6622.81
 1334.12        3339.50           6937        1612.00      7024.00
 1334.15        3339.75           6941        1680.00      7320.54
 1334.19        3340.00           6945        1761.00      7673.78
 1334.22        3340.25           6948        1843.00      8031.38
 1334.26        3340.50           6952        1961.00      8546.00
 1334.29        3340.75           6956        2004.00      8733.53
 1334.33        3341.00           6959        2029.00      8842.56
 1334.36        3341.25           6963        1996.00      8698.64
 1334.40        3341.50           6967        1992.00      8681.20
 1334.43        3341.75           6971        1909.00      8319.22
 1334.47        3342.00           6974        1908.00      8314.86
 1334.50        3342.25           6978        1824.00      7948.52
 1334.54        3342.50           6982        1651.00      7194.07
 1334.57        3342.75           6986        1594.00      6945.51
 1334.61        3343.00           6989        1469.00      6400.41
 1334.64        3343.25           6993        1436.00      6256.51
 1334.68        3343.50           6997        1293.00      5632.94
 1334.71        3343.75           7001        1195.00      5205.61
 1334.75        3344.00           7004        1094.00      4765.22
 1334.78        3344.25           7008         963.00      4194.02
 1334.82        3344.50           7012         925.00      4028.34
 1334.85        3344.75           7015         844.00      3675.17
 1334.89        3345.00           7019         730.00      3178.13
 1334.92        3345.25           7023         644.00      2803.18
 1334.96        3345.50           7027         515.00      2240.76
 1334.99        3345.75           7030         427.00      1857.11
 1335.03        3346.00           7034         337.00      1464.75
 1335.06        3346.25           7038         273.00      1185.74
 1335.10        3346.50           7042         248.00      1076.75
 1335.13        3346.75           7045         235.00      1020.08
 1335.17        3347.00           7049         220.00       954.69
 1335.20        3347.25           7053         223.00       967.77
 1335.24        3347.50           7057         227.00       985.20
 1335.27        3347.75           7060         231.00      1002.64
 1335.31        3348.00           7064         238.00      1033.16
 1335.34        3348.25           7068         224.00       972.13
 1335.38        3348.50           7072         270.00      1172.66
 1335.41        3348.75           7075         240.00      1041.88
 1335.45        3349.00           7079         235.00      1020.08
 1335.48        3349.25           7083         249.00      1081.11
 1335.52        3349.50           7087         252.00      1094.19
 1335.55        3349.75           7090         238.00      1033.16
 1335.59        3350.00           7094         259.00      1124.71
 1335.62        3350.25           7098         250.00      1085.47
 1335.66        3350.50           7102         245.00      1063.67
 1335.69        3350.75           7105         244.00      1059.32
 1335.73        3351.00           7109         254.00      1102.91
HL scan finished at 22:16:32
end
