************************************************************
  HL Scan of (1) Internal mercury lamp
************************************************************
Integration time is 0.2294 seconds per sample
dh220619El Arenosillo 37.1 6.73 3.19pr1000
************************************************************
Dead Time -------------------------  2.7E-08 
Number of Cycles Used -------------  4 
Starting Wavelength (Angstroms) ---  3331 
Final Wavelength (Angstoms) -------  3351 
Wavelength Increment (Angstroms) --  .25 
Filter Wheel #1 Position ---------- (1) Ground quartz diffuser (ND=2.32)
Filter Wheel #2 Position ---------- 



************************************************************
HL scan start time = 01:15:34
Dark Count =  3.5 


Time (GMT)  Wavelength (Ang)  Step Number  Raw Counts  Counts/Second

   76.72        3331.00           6810         212.00       908.92
   77.27        3331.25           6814         212.00       908.92
   77.30        3331.50           6818         194.00       830.45
   77.34        3331.75           6822         213.00       913.27
   77.37        3332.00           6825         217.00       930.71
   77.41        3332.25           6829         210.00       900.20
   77.44        3332.50           6833         219.00       939.43
   77.48        3332.75           6836         248.00      1065.85
   77.51        3333.00           6840         215.00       921.99
   77.55        3333.25           6844         238.00      1022.26
   77.58        3333.50           6848         219.00       939.43
   77.62        3333.75           6851         229.00       983.03
   77.65        3334.00           6855         234.00      1004.82
   77.69        3334.25           6859         226.00       969.95
   77.72        3334.50           6863         224.00       961.23
   77.76        3334.75           6866         232.00       996.10
   77.79        3335.00           6870         257.00      1105.09
   77.83        3335.25           6874         250.00      1074.57
   77.86        3335.50           6877         282.00      1214.08
   77.90        3335.75           6881         318.00      1371.02
   77.93        3336.00           6885         409.00      1767.74
   77.97        3336.25           6889         533.00      2308.34
   78.00        3336.50           6892         588.00      2548.13
   78.04        3336.75           6896         725.00      3145.43
   78.07        3337.00           6900         857.00      3720.95
   78.11        3337.25           6904         974.00      4231.08
   78.14        3337.50           6907        1107.00      4811.00
   78.18        3337.75           6911        1272.00      5530.47
   78.21        3338.00           6915        1400.00      6088.62
   78.25        3338.25           6918        1495.00      6502.89
   78.28        3338.50           6922        1650.00      7178.81
   78.32        3338.75           6926        1799.00      7828.59
   78.35        3339.00           6930        1894.00      8242.90
   78.39        3339.25           6933        2002.00      8713.91
   78.42        3339.50           6937        2136.00      9298.32
   78.46        3339.75           6941        2355.00     10253.49
   78.49        3340.00           6945        2491.00     10846.68
   78.53        3340.25           6948        2562.00     11156.37
   78.56        3340.50           6952        2690.00     11714.69
   78.60        3340.75           6956        2684.00     11688.52
   78.63        3341.00           6959        2766.00     12046.20
   78.66        3341.25           6963        2707.00     11788.84
   78.70        3341.50           6967        2633.00     11466.06
   78.74        3341.75           6971        2488.00     10833.60
   78.77        3342.00           6974        2373.00     10332.00
   78.80        3342.25           6978        2278.00      9917.65
   78.84        3342.50           6982        2113.00      9198.01
   78.87        3342.75           6986        2014.00      8766.24
   78.91        3343.00           6989        1865.00      8116.43
   78.94        3343.25           6993        1785.00      7767.54
   78.98        3343.50           6997        1616.00      7030.54
   79.01        3343.75           7001        1524.00      6629.35
   79.05        3344.00           7004        1414.00      6149.67
   79.08        3344.25           7008        1258.00      5469.42
   79.12        3344.50           7012        1111.00      4828.44
   79.15        3344.75           7015         991.00      4305.21
   79.19        3345.00           7019         862.00      3742.75
   79.22        3345.25           7023         730.00      3167.23
   79.26        3345.50           7027         602.00      2609.16
   79.29        3345.75           7030         507.00      2194.99
   79.33        3346.00           7034         398.00      1719.78
   79.36        3346.25           7038         322.00      1388.46
   79.40        3346.50           7042         297.00      1279.47
   79.43        3346.75           7045         295.00      1270.75
   79.47        3347.00           7049         288.00      1240.23
   79.50        3347.25           7053         263.00      1131.25
   79.54        3347.50           7057         282.00      1214.08
   79.57        3347.75           7060         290.00      1248.95
   79.61        3348.00           7064         276.00      1187.92
   79.64        3348.25           7068         277.00      1192.28
   79.68        3348.50           7072         283.00      1218.44
   79.71        3348.75           7075         273.00      1174.84
   79.75        3349.00           7079         291.00      1253.31
   79.78        3349.25           7083         282.00      1214.08
   79.82        3349.50           7087         289.00      1244.59
   79.85        3349.75           7090         302.00      1301.27
   79.89        3350.00           7094         293.00      1262.03
   79.92        3350.25           7098         302.00      1301.27
   79.96        3350.50           7102         285.00      1227.15
   79.99        3350.75           7105         310.00      1336.14
   80.03        3351.00           7109         291.00      1253.31
HL scan finished at 01:20:50
end
************************************************************
  HL Scan of (1) Internal mercury lamp
************************************************************
Integration time is 0.2294 seconds per sample
dh220619El Arenosillo 37.1 6.73 3.25pr1000
************************************************************
Dead Time -------------------------  2.7E-08 
Number of Cycles Used -------------  4 
Starting Wavelength (Angstroms) ---  3331 
Final Wavelength (Angstoms) -------  3351 
Wavelength Increment (Angstroms) --  .25 
Filter Wheel #1 Position ---------- (1) Ground quartz diffuser (ND=2.32)
Filter Wheel #2 Position ---------- 



************************************************************
HL scan start time = 02:30:11
Dark Count =  4.4 


Time (GMT)  Wavelength (Ang)  Step Number  Raw Counts  Counts/Second

  151.33        3331.00           6810         221.00       944.23
  151.88        3331.25           6814         206.00       878.84
  151.91        3331.50           6818         204.00       870.12
  151.95        3331.75           6822         196.00       835.24
  151.98        3332.00           6825         213.00       909.35
  152.02        3332.25           6829         199.00       848.32
  152.05        3332.50           6833         214.00       913.71
  152.09        3332.75           6836         204.00       870.12
  152.12        3333.00           6840         208.00       887.55
  152.16        3333.25           6844         208.00       887.55
  152.19        3333.50           6848         198.00       843.96
  152.23        3333.75           6851         198.00       843.96
  152.26        3334.00           6855         217.00       926.79
  152.30        3334.25           6859         203.00       865.76
  152.33        3334.50           6863         212.00       904.99
  152.37        3334.75           6866         212.00       904.99
  152.40        3335.00           6870         232.00       992.18
  152.44        3335.25           6874         243.00      1040.13
  152.47        3335.50           6877         227.00       970.38
  152.51        3335.75           6881         303.00      1301.70
  152.54        3336.00           6885         393.00      1694.06
  152.58        3336.25           6889         533.00      2304.42
  152.61        3336.50           6892         631.00      2731.67
  152.65        3336.75           6896         771.00      3342.06
  152.68        3337.00           6900         869.00      3769.35
  152.72        3337.25           6904        1019.00      4423.37
  152.75        3337.50           6907        1137.00      4937.89
  152.78        3337.75           6911        1271.00      5522.18
  152.82        3338.00           6915        1433.00      6228.60
  152.86        3338.25           6918        1514.00      6581.81
  152.89        3338.50           6922        1691.00      7353.68
  152.92        3338.75           6926        1778.00      7733.09
  152.96        3339.00           6930        1921.00      8356.72
  152.99        3339.25           6933        1989.00      8653.29
  153.03        3339.50           6937        2128.00      9259.51
  153.06        3339.75           6941        2283.00      9935.53
  153.10        3340.00           6945        2361.00     10275.74
  153.13        3340.25           6948        2503.00     10895.10
  153.17        3340.50           6952        2539.00     11052.12
  153.20        3340.75           6956        2633.00     11462.13
  153.24        3341.00           6959        2610.00     11361.81
  153.27        3341.25           6963        2605.00     11340.00
  153.31        3341.50           6967        2512.00     10934.35
  153.34        3341.75           6971        2334.00     10157.97
  153.38        3342.00           6974        2283.00      9935.53
  153.41        3342.25           6978        2206.00      9599.70
  153.45        3342.50           6982        2062.00      8971.66
  153.48        3342.75           6986        1897.00      8252.06
  153.52        3343.00           6989        1791.00      7789.78
  153.55        3343.25           6993        1666.00      7244.66
  153.59        3343.50           6997        1530.00      6651.59
  153.62        3343.75           7001        1374.00      5971.32
  153.66        3344.00           7004        1321.00      5740.21
  153.69        3344.25           7008        1173.00      5094.86
  153.73        3344.50           7012        1072.00      4654.47
  153.76        3344.75           7015         949.00      4118.16
  153.80        3345.00           7019         825.00      3577.50
  153.83        3345.25           7023         704.00      3049.95
  153.87        3345.50           7027         580.00      2509.32
  153.90        3345.75           7030         491.00      2121.31
  153.94        3346.00           7034         384.00      1654.83
  153.97        3346.25           7038         320.00      1375.81
  154.01        3346.50           7042         286.00      1227.59
  154.04        3346.75           7045         283.00      1214.51
  154.08        3347.00           7049         258.00      1105.53
  154.11        3347.25           7053         263.00      1127.32
  154.15        3347.50           7057         276.00      1184.00
  154.18        3347.75           7060         248.00      1061.93
  154.22        3348.00           7064         270.00      1157.84
  154.25        3348.25           7068         268.00      1149.12
  154.29        3348.50           7072         265.00      1136.04
  154.32        3348.75           7075         281.00      1205.79
  154.36        3349.00           7079         260.00      1114.24
  154.39        3349.25           7083         292.00      1253.75
  154.43        3349.50           7087         283.00      1214.51
  154.46        3349.75           7090         271.00      1162.20
  154.50        3350.00           7094         278.00      1192.72
  154.53        3350.25           7098         275.00      1179.64
  154.57        3350.50           7102         282.00      1210.15
  154.60        3350.75           7105         283.00      1214.51
  154.64        3351.00           7109         293.00      1258.11
HL scan finished at 02:35:26
end
************************************************************
  HL Scan of (1) Internal mercury lamp
************************************************************
Integration time is 0.2294 seconds per sample
dh220619El Arenosillo 37.1 6.73 3.13pr1000
************************************************************
Dead Time -------------------------  2.7E-08 
Number of Cycles Used -------------  4 
Starting Wavelength (Angstroms) ---  3331 
Final Wavelength (Angstoms) -------  3351 
Wavelength Increment (Angstroms) --  .25 
Filter Wheel #1 Position ---------- (1) Ground quartz diffuser (ND=2.32)
Filter Wheel #2 Position ---------- 



************************************************************
HL scan start time = 21:57:11
Dark Count =  3.2 


Time (GMT)  Wavelength (Ang)  Step Number  Raw Counts  Counts/Second

 1318.33        3331.00           6810         206.00       884.07
 1318.89        3331.25           6814         212.00       910.22
 1318.92        3331.50           6818         209.00       897.14
 1318.96        3331.75           6822         215.00       923.30
 1318.99        3332.00           6825         211.00       905.86
 1319.03        3332.25           6829         215.00       923.30
 1319.06        3332.50           6833         207.00       888.43
 1319.09        3332.75           6836         225.00       966.90
 1319.13        3333.00           6840         232.00       997.41
 1319.16        3333.25           6844         211.00       905.86
 1319.20        3333.50           6848         234.00      1006.13
 1319.23        3333.75           6851         209.00       897.14
 1319.27        3334.00           6855         209.00       897.14
 1319.30        3334.25           6859         209.00       897.14
 1319.34        3334.50           6863         237.00      1019.21
 1319.37        3334.75           6866         218.00       936.38
 1319.41        3335.00           6870         219.00       940.74
 1319.44        3335.25           6874         240.00      1032.29
 1319.48        3335.50           6877         266.00      1145.63
 1319.51        3335.75           6881         307.00      1324.37
 1319.55        3336.00           6885         408.00      1764.69
 1319.58        3336.25           6889         541.00      2344.53
 1319.62        3336.50           6892         620.00      2688.95
 1319.65        3336.75           6896         757.00      3286.26
 1319.69        3337.00           6900         907.00      3940.26
 1319.72        3337.25           6904        1056.00      4589.93
 1319.76        3337.50           6907        1155.00      5021.61
 1319.79        3337.75           6911        1273.00      5536.14
 1319.83        3338.00           6915        1371.00      5963.47
 1319.86        3338.25           6918        1529.00      6652.46
 1319.90        3338.50           6922        1643.00      7149.59
 1319.93        3338.75           6926        1743.00      7585.69
 1319.97        3339.00           6930        1877.00      8170.07
 1320.00        3339.25           6933        1957.00      8518.96
 1320.04        3339.50           6937        2056.00      8950.72
 1320.07        3339.75           6941        2199.00      9574.40
 1320.11        3340.00           6945        2406.00     10477.24
 1320.14        3340.25           6948        2437.00     10612.46
 1320.18        3340.50           6952        2511.00     10935.23
 1320.21        3340.75           6956        2521.00     10978.84
 1320.25        3341.00           6959        2544.00     11079.16
 1320.28        3341.25           6963        2526.00     11000.65
 1320.32        3341.50           6967        2419.00     10533.95
 1320.35        3341.75           6971        2335.00     10167.57
 1320.39        3342.00           6974        2255.00      9818.64
 1320.42        3342.25           6978        2115.00      9208.04
 1320.46        3342.50           6982        1956.00      8514.60
 1320.49        3342.75           6986        1872.00      8148.26
 1320.53        3343.00           6989        1752.00      7624.94
 1320.56        3343.25           6993        1631.00      7097.26
 1320.60        3343.50           6997        1520.00      6613.21
 1320.63        3343.75           7001        1411.00      6137.90
 1320.67        3344.00           7004        1290.00      5610.27
 1320.70        3344.25           7008        1147.00      4986.72
 1320.74        3344.50           7012        1078.00      4685.86
 1320.77        3344.75           7015         917.00      3983.86
 1320.81        3345.00           7019         843.00      3661.22
 1320.84        3345.25           7023         714.00      3098.78
 1320.88        3345.50           7027         560.00      2427.36
 1320.91        3345.75           7030         480.00      2078.58
 1320.95        3346.00           7034         381.00      1646.98
 1320.98        3346.25           7038         312.00      1346.17
 1321.02        3346.50           7042         292.00      1258.98
 1321.05        3346.75           7045         287.00      1237.18
 1321.09        3347.00           7049         296.00      1276.42
 1321.12        3347.25           7053         276.00      1189.23
 1321.16        3347.50           7057         285.00      1228.46
 1321.19        3347.75           7060         286.00      1232.82
 1321.22        3348.00           7064         296.00      1276.42
 1321.26        3348.25           7068         284.00      1224.10
 1321.30        3348.50           7072         300.00      1293.86
 1321.33        3348.75           7075         308.00      1328.73
 1321.36        3349.00           7079         292.00      1258.98
 1321.40        3349.25           7083         298.00      1285.14
 1321.43        3349.50           7087         288.00      1241.54
 1321.47        3349.75           7090         307.00      1324.37
 1321.51        3350.00           7094         285.00      1228.46
 1321.54        3350.25           7098         291.00      1254.62
 1321.57        3350.50           7102         335.00      1446.44
 1321.61        3350.75           7105         303.00      1306.93
 1321.64        3351.00           7109         307.00      1324.37
HL scan finished at 22:02:27
end
