************************************************************
  HL Scan of (1) Internal mercury lamp
************************************************************
Integration time is 0.2294 seconds per sample
dh250619El Arenosillo 37.1 6.73 3.19pr1000
************************************************************
Dead Time -------------------------  2.7E-08 
Number of Cycles Used -------------  4 
Starting Wavelength (Angstroms) ---  3331 
Final Wavelength (Angstoms) -------  3351 
Wavelength Increment (Angstroms) --  .25 
Filter Wheel #1 Position ---------- (1) Ground quartz diffuser (ND=2.32)
Filter Wheel #2 Position ---------- 



************************************************************
HL scan start time = 02:25:17
Dark Count =  3.4 


Time (GMT)  Wavelength (Ang)  Step Number  Raw Counts  Counts/Second

  146.42        3331.00           6810         185.00       791.65
  146.97        3331.25           6814         181.00       774.21
  147.01        3331.50           6818         197.00       843.96
  147.04        3331.75           6822         183.00       782.93
  147.08        3332.00           6825         186.00       796.01
  147.11        3332.25           6829         187.00       800.37
  147.15        3332.50           6833         193.00       826.52
  147.18        3332.75           6836         193.00       826.52
  147.22        3333.00           6840         197.00       843.96
  147.25        3333.25           6844         198.00       848.32
  147.29        3333.50           6848         192.00       822.16
  147.32        3333.75           6851         191.00       817.80
  147.36        3334.00           6855         196.00       839.60
  147.39        3334.25           6859         200.00       857.04
  147.43        3334.50           6863         185.00       791.65
  147.46        3334.75           6866         202.00       865.76
  147.50        3335.00           6870         190.00       813.44
  147.53        3335.25           6874         206.00       883.19
  147.57        3335.50           6877         246.00      1057.57
  147.60        3335.75           6881         296.00      1275.55
  147.64        3336.00           6885         414.00      1789.97
  147.67        3336.25           6889         572.00      2478.81
  147.71        3336.50           6892         627.00      2718.60
  147.74        3336.75           6896         730.00      3167.66
  147.77        3337.00           6900         805.00      3494.66
  147.81        3337.25           6904         990.00      4301.28
  147.84        3337.50           6907        1144.00      4972.77
  147.88        3337.75           6911        1222.00      5312.88
  147.91        3338.00           6915        1354.00      5888.47
  147.95        3338.25           6918        1421.00      6180.63
  147.98        3338.50           6922        1632.00      7100.75
  148.02        3338.75           6926        1676.00      7292.63
  148.05        3339.00           6930        1851.00      8055.81
  148.09        3339.25           6933        1942.00      8452.67
  148.12        3339.50           6937        2000.00      8705.62
  148.16        3339.75           6941        2131.00      9276.95
  148.19        3340.00           6945        2350.00     10232.12
  148.23        3340.25           6948        2347.00     10219.04
  148.26        3340.50           6952        2447.00     10655.20
  148.30        3340.75           6956        2486.00     10825.31
  148.33        3341.00           6959        2528.00     11008.50
  148.37        3341.25           6963        2428.00     10572.33
  148.40        3341.50           6967        2352.00     10240.84
  148.44        3341.75           6971        2263.00      9852.67
  148.47        3342.00           6974        2197.00      9564.81
  148.51        3342.25           6978        2060.00      8967.30
  148.54        3342.50           6982        1937.00      8430.86
  148.58        3342.75           6986        1765.00      7680.76
  148.61        3343.00           6989        1720.00      7484.51
  148.65        3343.25           6993        1559.00      6782.41
  148.68        3343.50           6997        1469.00      6389.94
  148.72        3343.75           7001        1349.00      5866.67
  148.75        3344.00           7004        1290.00      5609.39
  148.79        3344.25           7008        1139.00      4950.97
  148.82        3344.50           7012         974.00      4231.52
  148.86        3344.75           7015         896.00      3891.43
  148.89        3345.00           7019         768.00      3333.34
  148.93        3345.25           7023         668.00      2897.35
  148.96        3345.50           7027         536.00      2321.85
  149.00        3345.75           7030         460.00      1990.52
  149.03        3346.00           7034         338.00      1458.65
  149.07        3346.25           7038         282.00      1214.51
  149.10        3346.50           7042         254.00      1092.45
  149.14        3346.75           7045         231.00       992.18
  149.17        3347.00           7049         240.00      1031.42
  149.21        3347.25           7053         276.00      1188.36
  149.24        3347.50           7057         299.00      1288.62
  149.28        3347.75           7060         280.00      1205.79
  149.31        3348.00           7064         262.00      1127.32
  149.35        3348.25           7068         269.00      1157.84
  149.38        3348.50           7072         260.00      1118.60
  149.42        3348.75           7075         253.00      1088.09
  149.45        3349.00           7079         240.00      1031.42
  149.49        3349.25           7083         257.00      1105.53
  149.52        3349.50           7087         256.00      1101.17
  149.56        3349.75           7090         257.00      1105.53
  149.59        3350.00           7094         280.00      1205.79
  149.63        3350.25           7098         281.00      1210.15
  149.66        3350.50           7102         253.00      1088.09
  149.70        3350.75           7105         259.00      1114.24
  149.73        3351.00           7109         274.00      1179.64
HL scan finished at 02:30:32
end
