************************************************************
  HL Scan of (1) Internal mercury lamp
************************************************************
Integration time is 0.2294 seconds per sample
dh190619El Arenosillo 37.1 6.73 3.19pr1000
************************************************************
Dead Time -------------------------  2.7E-08 
Number of Cycles Used -------------  4 
Starting Wavelength (Angstroms) ---  3331 
Final Wavelength (Angstoms) -------  3351 
Wavelength Increment (Angstroms) --  .25 
Filter Wheel #1 Position ---------- (1) Ground quartz diffuser (ND=2.32)
Filter Wheel #2 Position ---------- 



************************************************************
HL scan start time = 02:35:17
Dark Count =  1.8 


Time (GMT)  Wavelength (Ang)  Step Number  Raw Counts  Counts/Second

  156.43        3331.00           6810         199.00       859.65
  156.98        3331.25           6814         166.00       715.79
  157.02        3331.50           6818         182.00       785.54
  157.06        3331.75           6822         185.00       798.62
  157.09        3332.00           6825         184.00       794.26
  157.12        3332.25           6829         179.00       772.47
  157.16        3332.50           6833         185.00       798.62
  157.19        3332.75           6836         184.00       794.26
  157.23        3333.00           6840         189.00       816.06
  157.26        3333.25           6844         185.00       798.62
  157.30        3333.50           6848         191.00       824.78
  157.33        3333.75           6851         187.00       807.34
  157.37        3334.00           6855         193.00       833.50
  157.40        3334.25           6859         176.00       759.39
  157.44        3334.50           6863         210.00       907.61
  157.47        3334.75           6866         183.00       789.90
  157.51        3335.00           6870         188.00       811.70
  157.54        3335.25           6874         190.00       820.42
  157.58        3335.50           6877         180.00       776.83
  157.61        3335.75           6881         235.00      1016.59
  157.65        3336.00           6885         287.00      1243.29
  157.68        3336.25           6889         380.00      1648.72
  157.72        3336.50           6892         458.00      1988.77
  157.75        3336.75           6896         569.00      2472.70
  157.79        3337.00           6900         701.00      3048.20
  157.82        3337.25           6904         845.00      3676.04
  157.86        3337.50           6907         950.00      4133.85
  157.89        3337.75           6911        1060.00      4613.48
  157.93        3338.00           6915        1144.00      4979.75
  157.96        3338.25           6918        1228.00      5346.02
  158.00        3338.50           6922        1344.00      5851.84
  158.03        3338.75           6926        1436.00      6253.02
  158.07        3339.00           6930        1597.00      6955.10
  158.10        3339.25           6933        1671.00      7277.80
  158.14        3339.50           6937        1777.00      7740.07
  158.17        3339.75           6941        1916.00      8346.26
  158.21        3340.00           6945        1966.00      8564.32
  158.24        3340.25           6948        2079.00      9057.14
  158.28        3340.50           6952        2204.00      9602.31
  158.31        3340.75           6956        2208.00      9619.76
  158.35        3341.00           6959        2190.00      9541.25
  158.38        3341.25           6963        2210.00      9628.48
  158.42        3341.50           6967        2189.00      9536.89
  158.45        3341.75           6971        2110.00      9192.34
  158.49        3342.00           6974        2057.00      8961.19
  158.52        3342.25           6978        1946.00      8477.09
  158.56        3342.50           6982        1818.00      7918.87
  158.59        3342.75           6986        1735.00      7556.90
  158.63        3343.00           6989        1636.00      7125.17
  158.66        3343.25           6993        1552.00      6758.86
  158.70        3343.50           6997        1402.00      6104.76
  158.73        3343.75           7001        1264.00      5503.00
  158.77        3344.00           7004        1153.00      5018.99
  158.80        3344.25           7008        1073.00      4670.16
  158.84        3344.50           7012         933.00      4059.73
  158.87        3344.75           7015         867.00      3771.96
  158.91        3345.00           7019         810.00      3523.44
  158.94        3345.25           7023         687.00      2987.16
  158.98        3345.50           7027         562.00      2442.18
  159.01        3345.75           7030         496.00      2154.44
  159.05        3346.00           7034         406.00      1762.07
  159.08        3346.25           7038         300.00      1299.96
  159.12        3346.50           7042         256.00      1108.14
  159.15        3346.75           7045         237.00      1025.31
  159.19        3347.00           7049         239.00      1034.03
  159.22        3347.25           7053         269.00      1164.81
  159.26        3347.50           7057         259.00      1121.22
  159.29        3347.75           7060         264.00      1143.02
  159.33        3348.00           7064         237.00      1025.31
  159.36        3348.25           7068         273.00      1182.25
  159.40        3348.50           7072         242.00      1047.11
  159.43        3348.75           7075         230.00       994.80
  159.46        3349.00           7079         245.00      1060.19
  159.50        3349.25           7083         281.00      1217.13
  159.54        3349.50           7087         279.00      1208.41
  159.57        3349.75           7090         249.00      1077.63
  159.60        3350.00           7094         252.00      1090.70
  159.64        3350.25           7098         267.00      1156.10
  159.67        3350.50           7102         254.00      1099.42
  159.71        3350.75           7105         255.00      1103.78
  159.74        3351.00           7109         264.00      1143.02
HL scan finished at 02:40:33
end
************************************************************
  HL Scan of (1) Internal mercury lamp
************************************************************
Integration time is 0.2294 seconds per sample
dh190619El Arenosillo 37.1 6.73 3.13pr1000
************************************************************
Dead Time -------------------------  2.7E-08 
Number of Cycles Used -------------  4 
Starting Wavelength (Angstroms) ---  3331 
Final Wavelength (Angstoms) -------  3351 
Wavelength Increment (Angstroms) --  .25 
Filter Wheel #1 Position ---------- (1) Ground quartz diffuser (ND=2.32)
Filter Wheel #2 Position ---------- 



************************************************************
HL scan start time = 22:16:33
Dark Count =  1.6 


Time (GMT)  Wavelength (Ang)  Step Number  Raw Counts  Counts/Second

 1337.69        3331.00           6810         180.00       777.70
 1338.25        3331.25           6814         200.00       864.89
 1338.28        3331.50           6818         179.00       773.34
 1338.32        3331.75           6822         193.00       834.37
 1338.35        3332.00           6825         199.00       860.53
 1338.39        3332.25           6829         181.00       782.06
 1338.42        3332.50           6833         189.00       816.93
 1338.46        3332.75           6836         194.00       838.73
 1338.49        3333.00           6840         177.00       764.62
 1338.53        3333.25           6844         196.00       847.45
 1338.56        3333.50           6848         186.00       803.85
 1338.60        3333.75           6851         184.00       795.13
 1338.63        3334.00           6855         216.00       934.64
 1338.67        3334.25           6859         180.00       777.70
 1338.70        3334.50           6863         187.00       808.21
 1338.74        3334.75           6866         195.00       843.09
 1338.77        3335.00           6870         193.00       834.37
 1338.80        3335.25           6874         194.00       838.73
 1338.84        3335.50           6877         216.00       934.64
 1338.88        3335.75           6881         234.00      1013.11
 1338.91        3336.00           6885         316.00      1370.58
 1338.94        3336.25           6889         438.00      1902.45
 1338.98        3336.50           6892         521.00      2264.31
 1339.01        3336.75           6896         626.00      2722.08
 1339.05        3337.00           6900         757.00      3293.23
 1339.08        3337.25           6904         847.00      3685.63
 1339.12        3337.50           6907         891.00      3877.48
 1339.15        3337.75           6911        1039.00      4522.78
 1339.19        3338.00           6915        1131.00      4923.93
 1339.22        3338.25           6918        1191.00      5185.56
 1339.26        3338.50           6922        1300.00      5660.85
 1339.29        3338.75           6926        1440.00      6271.33
 1339.33        3339.00           6930        1517.00      6607.11
 1339.36        3339.25           6933        1636.00      7126.04
 1339.40        3339.50           6937        1794.00      7815.08
 1339.43        3339.75           6941        1911.00      8325.32
 1339.47        3340.00           6945        1968.00      8573.91
 1339.50        3340.25           6948        2051.00      8935.90
 1339.54        3340.50           6952        2146.00      9350.22
 1339.57        3340.75           6956        2195.00      9563.93
 1339.61        3341.00           6959        2229.00      9712.22
 1339.64        3341.25           6963        2242.00      9768.92
 1339.68        3341.50           6967        2156.00      9393.84
 1339.71        3341.75           6971        2065.00      8996.95
 1339.75        3342.00           6974        2038.00      8879.20
 1339.78        3342.25           6978        1977.00      8613.16
 1339.82        3342.50           6982        1853.00      8072.38
 1339.85        3342.75           6986        1690.00      7361.53
 1339.89        3343.00           6989        1604.00      6986.50
 1339.92        3343.25           6993        1520.00      6620.19
 1339.96        3343.50           6997        1372.00      5974.81
 1339.99        3343.75           7001        1271.00      5534.39
 1340.03        3344.00           7004        1156.00      5032.94
 1340.06        3344.25           7008        1051.00      4575.11
 1340.10        3344.50           7012         986.00      4291.69
 1340.13        3344.75           7015         936.00      4073.68
 1340.17        3345.00           7019         804.00      3498.15
 1340.20        3345.25           7023         698.00      3035.99
 1340.24        3345.50           7027         551.00      2395.10
 1340.27        3345.75           7030         462.00      2007.08
 1340.31        3346.00           7034         394.00      1710.63
 1340.34        3346.25           7038         288.00      1248.52
 1340.38        3346.50           7042         254.00      1100.29
 1340.41        3346.75           7045         261.00      1130.81
 1340.45        3347.00           7049         240.00      1039.26
 1340.48        3347.25           7053         274.00      1187.48
 1340.52        3347.50           7057         229.00       991.31
 1340.55        3347.75           7060         257.00      1113.37
 1340.59        3348.00           7064         244.00      1056.70
 1340.62        3348.25           7068         263.00      1139.53
 1340.66        3348.50           7072         273.00      1183.12
 1340.69        3348.75           7075         282.00      1222.36
 1340.73        3349.00           7079         243.00      1052.34
 1340.76        3349.25           7083         295.00      1279.03
 1340.80        3349.50           7087         238.00      1030.54
 1340.83        3349.75           7090         296.00      1283.39
 1340.87        3350.00           7094         253.00      1095.93
 1340.90        3350.25           7098         254.00      1100.29
 1340.94        3350.50           7102         250.00      1082.86
 1340.97        3350.75           7105         274.00      1187.48
 1341.01        3351.00           7109         255.00      1104.65
HL scan finished at 22:21:48
end
