************************************************************
  HL Scan of (1) Internal mercury lamp
************************************************************
Integration time is 0.2294 seconds per sample
dh200619El Arenosillo 37.1 6.73 3.07pr1000
************************************************************
Dead Time -------------------------  2.7E-08 
Number of Cycles Used -------------  4 
Starting Wavelength (Angstroms) ---  3331 
Final Wavelength (Angstoms) -------  3351 
Wavelength Increment (Angstroms) --  .25 
Filter Wheel #1 Position ---------- (1) Ground quartz diffuser (ND=2.32)
Filter Wheel #2 Position ---------- 



************************************************************
HL scan start time = 02:32:39
Dark Count =  1.2 


Time (GMT)  Wavelength (Ang)  Step Number  Raw Counts  Counts/Second

  153.79        3331.00           6810         177.00       766.36
  154.34        3331.25           6814         170.00       735.85
  154.38        3331.50           6818         175.00       757.64
  154.42        3331.75           6822         177.00       766.36
  154.45        3332.00           6825         175.00       757.64
  154.48        3332.25           6829         161.00       696.61
  154.52        3332.50           6833         176.00       762.00
  154.55        3332.75           6836         168.00       727.13
  154.59        3333.00           6840         179.00       775.08
  154.62        3333.25           6844         170.00       735.85
  154.66        3333.50           6848         181.00       783.80
  154.69        3333.75           6851         182.00       788.16
  154.73        3334.00           6855         175.00       757.64
  154.76        3334.25           6859         192.00       831.75
  154.80        3334.50           6863         183.00       792.52
  154.83        3334.75           6866         174.00       753.28
  154.87        3335.00           6870         183.00       792.52
  154.90        3335.25           6874         177.00       766.36
  154.94        3335.50           6877         184.00       796.88
  154.97        3335.75           6881         243.00      1054.08
  155.01        3336.00           6885         298.00      1293.86
  155.04        3336.25           6889         382.00      1660.06
  155.08        3336.50           6892         465.00      2021.91
  155.11        3336.75           6896         558.00      2427.36
  155.15        3337.00           6900         659.00      2867.70
  155.18        3337.25           6904         785.00      3417.05
  155.22        3337.50           6907         860.00      3744.06
  155.25        3337.75           6911         981.00      4271.64
  155.29        3338.00           6915        1053.00      4585.57
  155.32        3338.25           6918        1142.00      4973.64
  155.36        3338.50           6922        1307.00      5693.12
  155.39        3338.75           6926        1388.00      6046.32
  155.43        3339.00           6930        1524.00      6639.38
  155.46        3339.25           6933        1624.00      7075.46
  155.50        3339.50           6937        1644.00      7162.68
  155.53        3339.75           6941        1750.00      7624.94
  155.57        3340.00           6945        1907.00      8309.62
  155.60        3340.25           6948        1993.00      8684.69
  155.64        3340.50           6952        2101.00      9155.71
  155.67        3340.75           6956        2164.00      9430.47
  155.71        3341.00           6959        2169.00      9452.28
  155.74        3341.25           6963        2137.00      9312.72
  155.78        3341.50           6967        2148.00      9360.69
  155.81        3341.75           6971        2091.00      9112.09
  155.85        3342.00           6974        1989.00      8667.24
  155.88        3342.25           6978        1876.00      8174.43
  155.92        3342.50           6982        1712.00      7459.22
  155.95        3342.75           6986        1686.00      7345.83
  155.99        3343.00           6989        1570.00      6839.97
  156.02        3343.25           6993        1436.00      6255.63
  156.06        3343.50           6997        1344.00      5854.46
  156.09        3343.75           7001        1237.00      5387.88
  156.13        3344.00           7004        1156.00      5034.69
  156.16        3344.25           7008        1047.00      4559.41
  156.20        3344.50           7012         922.00      4014.38
  156.23        3344.75           7015         893.00      3887.94
  156.27        3345.00           7019         800.00      3482.46
  156.30        3345.25           7023         690.00      3002.86
  156.34        3345.50           7027         551.00      2396.84
  156.37        3345.75           7030         443.00      1925.99
  156.41        3346.00           7034         344.00      1494.39
  156.44        3346.25           7038         276.00      1197.95
  156.47        3346.50           7042         224.00       971.25
  156.51        3346.75           7045         230.00       997.41
  156.54        3347.00           7049         219.00       949.46
  156.58        3347.25           7053         248.00      1075.88
  156.61        3347.50           7057         243.00      1054.08
  156.65        3347.75           7060         214.00       927.66
  156.68        3348.00           7064         241.00      1045.37
  156.72        3348.25           7068         236.00      1023.57
  156.76        3348.50           7072         235.00      1019.21
  156.79        3348.75           7075         245.00      1062.80
  156.82        3349.00           7079         244.00      1058.44
  156.86        3349.25           7083         229.00       993.05
  156.89        3349.50           7087         239.00      1036.65
  156.93        3349.75           7090         266.00      1154.35
  156.96        3350.00           7094         259.00      1123.84
  157.00        3350.25           7098         248.00      1075.88
  157.03        3350.50           7102         286.00      1241.54
  157.07        3350.75           7105         245.00      1062.80
  157.10        3351.00           7109         257.00      1115.12
HL scan finished at 02:37:54
end
