************************************************************
  HL Scan of (1) Internal mercury lamp
************************************************************
Integration time is 0.2294 seconds per sample
dh240619El Arenosillo 37.1 6.73 3.13pr1000
************************************************************
Dead Time -------------------------  2.7E-08 
Number of Cycles Used -------------  4 
Starting Wavelength (Angstroms) ---  3331 
Final Wavelength (Angstoms) -------  3351 
Wavelength Increment (Angstroms) --  .25 
Filter Wheel #1 Position ---------- (1) Ground quartz diffuser (ND=2.32)
Filter Wheel #2 Position ---------- 



************************************************************
HL scan start time = 02:25:33
Dark Count =  2.7 


Time (GMT)  Wavelength (Ang)  Step Number  Raw Counts  Counts/Second

  146.70        3331.00           6810         210.00       903.68
  147.25        3331.25           6814         205.00       881.89
  147.29        3331.50           6818         196.00       842.65
  147.32        3331.75           6822         208.00       894.97
  147.36        3332.00           6825         204.00       877.53
  147.39        3332.25           6829         218.00       938.56
  147.43        3332.50           6833         208.00       894.97
  147.46        3332.75           6836         198.00       851.37
  147.50        3333.00           6840         215.00       925.48
  147.53        3333.25           6844         233.00      1003.95
  147.57        3333.50           6848         211.00       908.04
  147.60        3333.75           6851         223.00       960.36
  147.64        3334.00           6855         212.00       912.40
  147.67        3334.25           6859         218.00       938.56
  147.71        3334.50           6863         235.00      1012.67
  147.74        3334.75           6866         216.00       929.84
  147.78        3335.00           6870         211.00       908.04
  147.81        3335.25           6874         266.00      1147.81
  147.85        3335.50           6877         243.00      1047.54
  147.88        3335.75           6881         325.00      1405.02
  147.92        3336.00           6885         447.00      1936.89
  147.95        3336.25           6889         580.00      2516.74
  147.99        3336.50           6892         680.00      2952.72
  148.02        3336.75           6896         778.00      3379.99
  148.06        3337.00           6900         918.00      3990.40
  148.09        3337.25           6904        1041.00      4526.71
  148.13        3337.50           6907        1101.00      4788.33
  148.16        3337.75           6911        1241.00      5398.78
  148.20        3338.00           6915        1339.00      5826.11
  148.23        3338.25           6918        1492.00      6493.29
  148.27        3338.50           6922        1580.00      6877.04
  148.30        3338.75           6926        1681.00      7317.49
  148.34        3339.00           6930        1877.00      8172.25
  148.37        3339.25           6933        1944.00      8464.45
  148.41        3339.50           6937        2120.00      9232.03
  148.44        3339.75           6941        2279.00      9925.50
  148.48        3340.00           6945        2391.00     10414.00
  148.51        3340.25           6948        2482.00     10810.92
  148.55        3340.50           6952        2507.00     10919.96
  148.58        3340.75           6956        2488.00     10837.09
  148.62        3341.00           6959        2568.00     11186.03
  148.65        3341.25           6963        2554.00     11124.96
  148.69        3341.50           6967        2420.00     10540.49
  148.72        3341.75           6971        2323.00     10117.41
  148.76        3342.00           6974        2189.00      9532.97
  148.79        3342.25           6978        2069.00      9009.60
  148.83        3342.50           6982        1991.00      8669.42
  148.86        3342.75           6986        1888.00      8220.22
  148.90        3343.00           6989        1728.00      7522.45
  148.93        3343.25           6993        1644.00      7156.14
  148.97        3343.50           6997        1557.00      6776.74
  149.00        3343.75           7001        1332.00      5795.59
  149.04        3344.00           7004        1289.00      5608.09
  149.07        3344.25           7008        1146.00      4984.54
  149.11        3344.50           7012         997.00      4334.86
  149.14        3344.75           7015         897.00      3898.84
  149.18        3345.00           7019         757.00      3288.44
  149.21        3345.25           7023         648.00      2813.20
  149.25        3345.50           7027         559.00      2425.18
  149.28        3345.75           7030         449.00      1945.61
  149.32        3346.00           7034         375.00      1623.00
  149.35        3346.25           7038         309.00      1335.27
  149.38        3346.50           7042         280.00      1208.85
  149.42        3346.75           7045         270.00      1165.25
  149.46        3347.00           7049         266.00      1147.81
  149.49        3347.25           7053         283.00      1221.92
  149.53        3347.50           7057         272.00      1173.97
  149.56        3347.75           7060         284.00      1226.28
  149.59        3348.00           7064         267.00      1152.17
  149.63        3348.25           7068         282.00      1217.56
  149.67        3348.50           7072         287.00      1239.36
  149.70        3348.75           7075         284.00      1226.28
  149.73        3349.00           7079         291.00      1256.80
  149.77        3349.25           7083         287.00      1239.36
  149.80        3349.50           7087         286.00      1235.00
  149.84        3349.75           7090         289.00      1248.08
  149.87        3350.00           7094         301.00      1300.39
  149.91        3350.25           7098         300.00      1296.03
  149.94        3350.50           7102         295.00      1274.24
  149.98        3350.75           7105         283.00      1221.92
  150.01        3351.00           7109         272.00      1173.97
HL scan finished at 02:30:49
end
