************************************************************
  HL Scan of (1) Internal mercury lamp
************************************************************
Integration time is 0.2294 seconds per sample
dh190619El Arenosillo 37.1 6.73 3.19pr1000
************************************************************
Dead Time -------------------------  2.7E-08 
Number of Cycles Used -------------  4 
Starting Wavelength (Angstroms) ---  3331 
Final Wavelength (Angstoms) -------  3351 
Wavelength Increment (Angstroms) --  .25 
Filter Wheel #1 Position ---------- (1) Ground quartz diffuser (ND=2.32)
Filter Wheel #2 Position ---------- 



************************************************************
HL scan start time = 02:35:17
Dark Count =  1.8 


Time (GMT)  Wavelength (Ang)  Step Number  Raw Counts  Counts/Second

  156.43        3331.00           6810         199.00       859.65
  156.98        3331.25           6814         166.00       715.79
  157.02        3331.50           6818         182.00       785.54
  157.06        3331.75           6822         185.00       798.62
  157.09        3332.00           6825         184.00       794.26
  157.12        3332.25           6829         179.00       772.47
  157.16        3332.50           6833         185.00       798.62
  157.19        3332.75           6836         184.00       794.26
  157.23        3333.00           6840         189.00       816.06
  157.26        3333.25           6844         185.00       798.62
  157.30        3333.50           6848         191.00       824.78
  157.33        3333.75           6851         187.00       807.34
  157.37        3334.00           6855         193.00       833.50
  157.40        3334.25           6859         176.00       759.39
  157.44        3334.50           6863         210.00       907.61
  157.47        3334.75           6866         183.00       789.90
  157.51        3335.00           6870         188.00       811.70
  157.54        3335.25           6874         190.00       820.42
  157.58        3335.50           6877         180.00       776.83
  157.61        3335.75           6881         235.00      1016.59
  157.65        3336.00           6885         287.00      1243.29
  157.68        3336.25           6889         380.00      1648.72
  157.72        3336.50           6892         458.00      1988.77
  157.75        3336.75           6896         569.00      2472.70
  157.79        3337.00           6900         701.00      3048.20
  157.82        3337.25           6904         845.00      3676.04
  157.86        3337.50           6907         950.00      4133.85
  157.89        3337.75           6911        1060.00      4613.48
  157.93        3338.00           6915        1144.00      4979.75
  157.96        3338.25           6918        1228.00      5346.02
  158.00        3338.50           6922        1344.00      5851.84
  158.03        3338.75           6926        1436.00      6253.02
  158.07        3339.00           6930        1597.00      6955.10
  158.10        3339.25           6933        1671.00      7277.80
  158.14        3339.50           6937        1777.00      7740.07
  158.17        3339.75           6941        1916.00      8346.26
  158.21        3340.00           6945        1966.00      8564.32
  158.24        3340.25           6948        2079.00      9057.14
  158.28        3340.50           6952        2204.00      9602.31
  158.31        3340.75           6956        2208.00      9619.76
  158.35        3341.00           6959        2190.00      9541.25
  158.38        3341.25           6963        2210.00      9628.48
  158.42        3341.50           6967        2189.00      9536.89
  158.45        3341.75           6971        2110.00      9192.34
  158.49        3342.00           6974        2057.00      8961.19
  158.52        3342.25           6978        1946.00      8477.09
  158.56        3342.50           6982        1818.00      7918.87
  158.59        3342.75           6986        1735.00      7556.90
  158.63        3343.00           6989        1636.00      7125.17
  158.66        3343.25           6993        1552.00      6758.86
  158.70        3343.50           6997        1402.00      6104.76
  158.73        3343.75           7001        1264.00      5503.00
  158.77        3344.00           7004        1153.00      5018.99
  158.80        3344.25           7008        1073.00      4670.16
  158.84        3344.50           7012         933.00      4059.73
  158.87        3344.75           7015         867.00      3771.96
  158.91        3345.00           7019         810.00      3523.44
  158.94        3345.25           7023         687.00      2987.16
  158.98        3345.50           7027         562.00      2442.18
  159.01        3345.75           7030         496.00      2154.44
  159.05        3346.00           7034         406.00      1762.07
  159.08        3346.25           7038         300.00      1299.96
  159.12        3346.50           7042         256.00      1108.14
  159.15        3346.75           7045         237.00      1025.31
  159.19        3347.00           7049         239.00      1034.03
  159.22        3347.25           7053         269.00      1164.81
  159.26        3347.50           7057         259.00      1121.22
  159.29        3347.75           7060         264.00      1143.02
  159.33        3348.00           7064         237.00      1025.31
  159.36        3348.25           7068         273.00      1182.25
  159.40        3348.50           7072         242.00      1047.11
  159.43        3348.75           7075         230.00       994.80
  159.46        3349.00           7079         245.00      1060.19
  159.50        3349.25           7083         281.00      1217.13
  159.54        3349.50           7087         279.00      1208.41
  159.57        3349.75           7090         249.00      1077.63
  159.60        3350.00           7094         252.00      1090.70
  159.64        3350.25           7098         267.00      1156.10
  159.67        3350.50           7102         254.00      1099.42
  159.71        3350.75           7105         255.00      1103.78
  159.74        3351.00           7109         264.00      1143.02
HL scan finished at 02:40:33
end
