************************************************************
  HL Scan of (1) Internal mercury lamp
************************************************************
Integration time is 0.2294 seconds per sample
dh210619El Arenosillo 37.1 6.73 3.25pr1000
************************************************************
Dead Time -------------------------  2.7E-08 
Number of Cycles Used -------------  4 
Starting Wavelength (Angstroms) ---  3331 
Final Wavelength (Angstoms) -------  3351 
Wavelength Increment (Angstroms) --  .25 
Filter Wheel #1 Position ---------- (1) Ground quartz diffuser (ND=2.32)
Filter Wheel #2 Position ---------- 



************************************************************
HL scan start time = 21:56:15
Dark Count =  3.4 


Time (GMT)  Wavelength (Ang)  Step Number  Raw Counts  Counts/Second

 1317.40        3331.00           6810         218.00       935.51
 1317.95        3331.25           6814         227.00       974.74
 1317.99        3331.50           6818         242.00      1040.13
 1318.02        3331.75           6822         244.00      1048.85
 1318.05        3332.00           6825         230.00       987.82
 1318.09        3332.25           6829         251.00      1079.37
 1318.12        3332.50           6833         222.00       952.95
 1318.16        3332.75           6836         218.00       935.51
 1318.19        3333.00           6840         217.00       931.15
 1318.23        3333.25           6844         221.00       948.59
 1318.26        3333.50           6848         240.00      1031.42
 1318.30        3333.75           6851         228.00       979.10
 1318.33        3334.00           6855         246.00      1057.57
 1318.37        3334.25           6859         243.00      1044.49
 1318.40        3334.50           6863         226.00       970.38
 1318.44        3334.75           6866         225.00       966.02
 1318.47        3335.00           6870         225.00       966.02
 1318.51        3335.25           6874         259.00      1114.24
 1318.54        3335.50           6877         255.00      1096.81
 1318.58        3335.75           6881         299.00      1288.62
 1318.61        3336.00           6885         416.00      1798.69
 1318.65        3336.25           6889         531.00      2300.06
 1318.68        3336.50           6892         648.00      2810.15
 1318.72        3336.75           6896         794.00      3446.70
 1318.75        3337.00           6900         904.00      3926.31
 1318.79        3337.25           6904        1021.00      4436.45
 1318.82        3337.50           6907        1136.00      4937.89
 1318.86        3337.75           6911        1270.00      5522.18
 1318.89        3338.00           6915        1462.00      6359.42
 1318.93        3338.25           6918        1580.00      6873.99
 1318.96        3338.50           6922        1729.00      7523.76
 1319.00        3338.75           6926        1855.00      8073.25
 1319.03        3339.00           6930        1944.00      8461.39
 1319.07        3339.25           6933        2102.00      9150.47
 1319.10        3339.50           6937        2212.00      9630.23
 1319.14        3339.75           6941        2324.00     10118.72
 1319.17        3340.00           6945        2475.00     10777.33
 1319.21        3340.25           6948        2535.00     11039.04
 1319.24        3340.50           6952        2624.00     11427.24
 1319.28        3340.75           6956        2639.00     11492.67
 1319.31        3341.00           6959        2671.00     11632.25
 1319.35        3341.25           6963        2674.00     11645.34
 1319.38        3341.50           6967        2561.00     11152.44
 1319.42        3341.75           6971        2439.00     10620.31
 1319.45        3342.00           6974        2408.00     10485.10
 1319.49        3342.25           6978        2192.00      9543.00
 1319.52        3342.50           6982        2101.00      9146.11
 1319.56        3342.75           6986        2011.00      8753.59
 1319.59        3343.00           6989        1855.00      8073.25
 1319.63        3343.25           6993        1731.00      7532.48
 1319.66        3343.50           6997        1601.00      6965.57
 1319.70        3343.75           7001        1509.00      6564.37
 1319.73        3344.00           7004        1325.00      5762.01
 1319.77        3344.25           7008        1215.00      5282.36
 1319.80        3344.50           7012        1062.00      4615.22
 1319.84        3344.75           7015         940.00      4083.28
 1319.87        3345.00           7019         811.00      3520.82
 1319.91        3345.25           7023         718.00      3115.35
 1319.94        3345.50           7027         591.00      2561.64
 1319.98        3345.75           7030         466.00      2016.67
 1320.01        3346.00           7034         407.00      1759.46
 1320.05        3346.25           7038         335.00      1445.57
 1320.08        3346.50           7042         297.00      1279.90
 1320.12        3346.75           7045         282.00      1214.51
 1320.15        3347.00           7049         272.00      1170.92
 1320.19        3347.25           7053         302.00      1301.70
 1320.22        3347.50           7057         272.00      1170.92
 1320.26        3347.75           7060         290.00      1249.39
 1320.29        3348.00           7064         296.00      1275.55
 1320.33        3348.25           7068         296.00      1275.55
 1320.36        3348.50           7072         272.00      1170.92
 1320.40        3348.75           7075         298.00      1284.26
 1320.43        3349.00           7079         295.00      1271.19
 1320.47        3349.25           7083         296.00      1275.55
 1320.50        3349.50           7087         302.00      1301.70
 1320.53        3349.75           7090         292.00      1258.11
 1320.57        3350.00           7094         289.00      1245.03
 1320.60        3350.25           7098         298.00      1284.26
 1320.64        3350.50           7102         301.00      1297.34
 1320.67        3350.75           7105         297.00      1279.90
 1320.71        3351.00           7109         291.00      1253.75
HL scan finished at 22:01:31
end
