************************************************************
  HL Scan of (1) Internal mercury lamp
************************************************************
Integration time is 0.2294 seconds per sample
dh220619El Arenosillo 37.1 6.73 3.19pr1000
************************************************************
Dead Time -------------------------  2.7E-08 
Number of Cycles Used -------------  4 
Starting Wavelength (Angstroms) ---  3331 
Final Wavelength (Angstoms) -------  3351 
Wavelength Increment (Angstroms) --  .25 
Filter Wheel #1 Position ---------- (1) Ground quartz diffuser (ND=2.32)
Filter Wheel #2 Position ---------- 



************************************************************
HL scan start time = 01:15:34
Dark Count =  3.5 


Time (GMT)  Wavelength (Ang)  Step Number  Raw Counts  Counts/Second

   76.72        3331.00           6810         212.00       908.92
   77.27        3331.25           6814         212.00       908.92
   77.30        3331.50           6818         194.00       830.45
   77.34        3331.75           6822         213.00       913.27
   77.37        3332.00           6825         217.00       930.71
   77.41        3332.25           6829         210.00       900.20
   77.44        3332.50           6833         219.00       939.43
   77.48        3332.75           6836         248.00      1065.85
   77.51        3333.00           6840         215.00       921.99
   77.55        3333.25           6844         238.00      1022.26
   77.58        3333.50           6848         219.00       939.43
   77.62        3333.75           6851         229.00       983.03
   77.65        3334.00           6855         234.00      1004.82
   77.69        3334.25           6859         226.00       969.95
   77.72        3334.50           6863         224.00       961.23
   77.76        3334.75           6866         232.00       996.10
   77.79        3335.00           6870         257.00      1105.09
   77.83        3335.25           6874         250.00      1074.57
   77.86        3335.50           6877         282.00      1214.08
   77.90        3335.75           6881         318.00      1371.02
   77.93        3336.00           6885         409.00      1767.74
   77.97        3336.25           6889         533.00      2308.34
   78.00        3336.50           6892         588.00      2548.13
   78.04        3336.75           6896         725.00      3145.43
   78.07        3337.00           6900         857.00      3720.95
   78.11        3337.25           6904         974.00      4231.08
   78.14        3337.50           6907        1107.00      4811.00
   78.18        3337.75           6911        1272.00      5530.47
   78.21        3338.00           6915        1400.00      6088.62
   78.25        3338.25           6918        1495.00      6502.89
   78.28        3338.50           6922        1650.00      7178.81
   78.32        3338.75           6926        1799.00      7828.59
   78.35        3339.00           6930        1894.00      8242.90
   78.39        3339.25           6933        2002.00      8713.91
   78.42        3339.50           6937        2136.00      9298.32
   78.46        3339.75           6941        2355.00     10253.49
   78.49        3340.00           6945        2491.00     10846.68
   78.53        3340.25           6948        2562.00     11156.37
   78.56        3340.50           6952        2690.00     11714.69
   78.60        3340.75           6956        2684.00     11688.52
   78.63        3341.00           6959        2766.00     12046.20
   78.66        3341.25           6963        2707.00     11788.84
   78.70        3341.50           6967        2633.00     11466.06
   78.74        3341.75           6971        2488.00     10833.60
   78.77        3342.00           6974        2373.00     10332.00
   78.80        3342.25           6978        2278.00      9917.65
   78.84        3342.50           6982        2113.00      9198.01
   78.87        3342.75           6986        2014.00      8766.24
   78.91        3343.00           6989        1865.00      8116.43
   78.94        3343.25           6993        1785.00      7767.54
   78.98        3343.50           6997        1616.00      7030.54
   79.01        3343.75           7001        1524.00      6629.35
   79.05        3344.00           7004        1414.00      6149.67
   79.08        3344.25           7008        1258.00      5469.42
   79.12        3344.50           7012        1111.00      4828.44
   79.15        3344.75           7015         991.00      4305.21
   79.19        3345.00           7019         862.00      3742.75
   79.22        3345.25           7023         730.00      3167.23
   79.26        3345.50           7027         602.00      2609.16
   79.29        3345.75           7030         507.00      2194.99
   79.33        3346.00           7034         398.00      1719.78
   79.36        3346.25           7038         322.00      1388.46
   79.40        3346.50           7042         297.00      1279.47
   79.43        3346.75           7045         295.00      1270.75
   79.47        3347.00           7049         288.00      1240.23
   79.50        3347.25           7053         263.00      1131.25
   79.54        3347.50           7057         282.00      1214.08
   79.57        3347.75           7060         290.00      1248.95
   79.61        3348.00           7064         276.00      1187.92
   79.64        3348.25           7068         277.00      1192.28
   79.68        3348.50           7072         283.00      1218.44
   79.71        3348.75           7075         273.00      1174.84
   79.75        3349.00           7079         291.00      1253.31
   79.78        3349.25           7083         282.00      1214.08
   79.82        3349.50           7087         289.00      1244.59
   79.85        3349.75           7090         302.00      1301.27
   79.89        3350.00           7094         293.00      1262.03
   79.92        3350.25           7098         302.00      1301.27
   79.96        3350.50           7102         285.00      1227.15
   79.99        3350.75           7105         310.00      1336.14
   80.03        3351.00           7109         291.00      1253.31
HL scan finished at 01:20:50
end
