************************************************************
  HL Scan of (1) Internal mercury lamp
************************************************************
Integration time is 0.2294 seconds per sample
dh230619El Arenosillo 37.1 6.73 3.07pr1000
************************************************************
Dead Time -------------------------  2.7E-08 
Number of Cycles Used -------------  4 
Starting Wavelength (Angstroms) ---  3331 
Final Wavelength (Angstoms) -------  3351 
Wavelength Increment (Angstroms) --  .25 
Filter Wheel #1 Position ---------- (1) Ground quartz diffuser (ND=2.32)
Filter Wheel #2 Position ---------- 



************************************************************
HL scan start time = 02:31:01
Dark Count =  2.2 


Time (GMT)  Wavelength (Ang)  Step Number  Raw Counts  Counts/Second

  152.16        3331.00           6810         191.00       823.03
  152.71        3331.25           6814         202.00       870.99
  152.75        3331.50           6818         196.00       844.83
  152.78        3331.75           6822         194.00       836.11
  152.82        3332.00           6825         201.00       866.63
  152.85        3332.25           6829         205.00       884.07
  152.88        3332.50           6833         209.00       901.50
  152.92        3332.75           6836         201.00       866.63
  152.96        3333.00           6840         206.00       888.43
  152.99        3333.25           6844         197.00       849.19
  153.02        3333.50           6848         193.00       831.75
  153.06        3333.75           6851         200.00       862.27
  153.09        3334.00           6855         196.00       844.83
  153.13        3334.25           6859         200.00       862.27
  153.16        3334.50           6863         206.00       888.43
  153.20        3334.75           6866         207.00       892.79
  153.23        3335.00           6870         211.00       910.22
  153.27        3335.25           6874         223.00       962.54
  153.30        3335.50           6877         244.00      1054.08
  153.34        3335.75           6881         304.00      1315.65
  153.37        3336.00           6885         395.00      1712.37
  153.41        3336.25           6889         512.00      2222.45
  153.44        3336.50           6892         609.00      2645.35
  153.48        3336.75           6896         742.00      3225.22
  153.51        3337.00           6900         870.00      3783.30
  153.55        3337.25           6904         947.00      4119.03
  153.58        3337.50           6907        1051.00      4572.49
  153.62        3337.75           6911        1270.00      5527.42
  153.65        3338.00           6915        1333.00      5802.13
  153.69        3338.25           6918        1398.00      6085.57
  153.72        3338.50           6922        1487.00      6473.67
  153.76        3338.75           6926        1640.00      7140.87
  153.79        3339.00           6930        1773.00      7720.88
  153.83        3339.25           6933        1821.00      7930.21
  153.86        3339.50           6937        1962.00      8545.13
  153.90        3339.75           6941        2055.00      8950.72
  153.93        3340.00           6945        2216.00      9652.91
  153.97        3340.25           6948        2290.00      9975.66
  154.00        3340.50           6952        2363.00     10294.06
  154.04        3340.75           6956        2365.00     10302.78
  154.07        3341.00           6959        2428.00     10577.56
  154.11        3341.25           6963        2385.00     10390.01
  154.14        3341.50           6967        2311.00     10067.25
  154.18        3341.75           6971        2173.00      9465.37
  154.21        3342.00           6974        2128.00      9269.10
  154.25        3342.25           6978        1975.00      8601.82
  154.28        3342.50           6982        1892.00      8239.85
  154.32        3342.75           6986        1759.00      7659.82
  154.35        3343.00           6989        1653.00      7197.56
  154.39        3343.25           6993        1579.00      6874.86
  154.42        3343.50           6997        1452.00      6321.04
  154.46        3343.75           7001        1299.00      5653.87
  154.49        3344.00           7004        1204.00      5239.63
  154.53        3344.25           7008        1104.00      4803.59
  154.56        3344.50           7012         954.00      4149.55
  154.60        3344.75           7015         888.00      3861.78
  154.63        3345.00           7019         743.00      3229.58
  154.67        3345.25           7023         643.00      2793.58
  154.70        3345.50           7027         489.00      2122.18
  154.74        3345.75           7030         426.00      1847.52
  154.77        3346.00           7034         376.00      1629.54
  154.81        3346.25           7038         292.00      1263.34
  154.84        3346.50           7042         242.00      1045.37
  154.88        3346.75           7045         254.00      1097.68
  154.91        3347.00           7049         276.00      1193.59
  154.95        3347.25           7053         244.00      1054.08
  154.98        3347.50           7057         237.00      1023.57
  155.01        3347.75           7060         295.00      1276.42
  155.05        3348.00           7064         268.00      1158.71
  155.09        3348.25           7068         278.00      1202.31
  155.12        3348.50           7072         291.00      1258.98
  155.15        3348.75           7075         281.00      1215.38
  155.19        3349.00           7079         280.00      1211.02
  155.22        3349.25           7083         258.00      1115.12
  155.26        3349.50           7087         271.00      1171.79
  155.29        3349.75           7090         296.00      1280.78
  155.33        3350.00           7094         286.00      1237.18
  155.36        3350.25           7098         298.00      1289.50
  155.40        3350.50           7102         276.00      1193.59
  155.43        3350.75           7105         277.00      1197.95
  155.47        3351.00           7109         296.00      1280.78
HL scan finished at 02:36:16
end
************************************************************
  HL Scan of (1) Internal mercury lamp
************************************************************
Integration time is 0.2294 seconds per sample
dh230619El Arenosillo 37.1 6.73 3.15pr1000
************************************************************
Dead Time -------------------------  2.7E-08 
Number of Cycles Used -------------  4 
Starting Wavelength (Angstroms) ---  3331 
Final Wavelength (Angstoms) -------  3351 
Wavelength Increment (Angstroms) --  .25 
Filter Wheel #1 Position ---------- (1) Ground quartz diffuser (ND=2.32)
Filter Wheel #2 Position ---------- 



************************************************************
HL scan start time = 21:57:16
Dark Count =  2.9 


Time (GMT)  Wavelength (Ang)  Step Number  Raw Counts  Counts/Second

 1318.41        3331.00           6810         214.00       920.25
 1318.96        3331.25           6814         224.00       963.84
 1319.00        3331.50           6818         217.00       933.33
 1319.03        3331.75           6822         224.00       963.84
 1319.07        3332.00           6825         219.00       942.05
 1319.10        3332.25           6829         218.00       937.69
 1319.14        3332.50           6833         227.00       976.92
 1319.17        3332.75           6836         215.00       924.61
 1319.21        3333.00           6840         217.00       933.33
 1319.24        3333.25           6844         206.00       885.37
 1319.28        3333.50           6848         222.00       955.12
 1319.31        3333.75           6851         211.00       907.17
 1319.35        3334.00           6855         207.00       889.73
 1319.38        3334.25           6859         218.00       937.69
 1319.42        3334.50           6863         231.00       994.36
 1319.45        3334.75           6866         214.00       920.25
 1319.49        3335.00           6870         220.00       946.41
 1319.52        3335.25           6874         241.00      1037.95
 1319.56        3335.50           6877         248.00      1068.47
 1319.59        3335.75           6881         325.00      1404.15
 1319.63        3336.00           6885         386.00      1670.08
 1319.66        3336.25           6889         531.00      2302.24
 1319.70        3336.50           6892         568.00      2463.55
 1319.73        3336.75           6896         714.00      3100.09
 1319.77        3337.00           6900         883.00      3836.93
 1319.80        3337.25           6904        1023.00      4447.35
 1319.84        3337.50           6907        1115.00      4848.50
 1319.87        3337.75           6911        1257.00      5467.68
 1319.91        3338.00           6915        1366.00      5942.98
 1319.94        3338.25           6918        1455.00      6331.07
 1319.98        3338.50           6922        1608.00      6998.27
 1320.01        3338.75           6926        1712.00      7451.80
 1320.05        3339.00           6930        1839.00      8005.65
 1320.08        3339.25           6933        1917.00      8345.82
 1320.12        3339.50           6937        1993.00      8677.27
 1320.15        3339.75           6941        2152.00      9370.72
 1320.19        3340.00           6945        2296.00      9998.78
 1320.22        3340.25           6948        2389.00     10404.41
 1320.26        3340.50           6952        2491.00     10849.30
 1320.29        3340.75           6956        2500.00     10888.56
 1320.33        3341.00           6959        2551.00     11111.01
 1320.36        3341.25           6963        2542.00     11071.75
 1320.40        3341.50           6967        2458.00     10705.36
 1320.43        3341.75           6971        2339.00     10186.32
 1320.47        3342.00           6974        2217.00      9654.22
 1320.50        3342.25           6978        2035.00      8860.45
 1320.54        3342.50           6982        1955.00      8511.55
 1320.57        3342.75           6986        1866.00      8123.40
 1320.61        3343.00           6989        1747.00      7604.44
 1320.64        3343.25           6993        1633.00      7107.29
 1320.68        3343.50           6997        1537.00      6688.65
 1320.71        3343.75           7001        1405.00      6113.04
 1320.75        3344.00           7004        1292.00      5620.29
 1320.78        3344.25           7008        1215.00      5284.54
 1320.82        3344.50           7012        1026.00      4460.43
 1320.85        3344.75           7015         942.00      4094.18
 1320.89        3345.00           7019         823.00      3575.32
 1320.92        3345.25           7023         728.00      3161.12
 1320.96        3345.50           7027         540.00      2341.47
 1320.99        3345.75           7030         469.00      2031.93
 1321.03        3346.00           7034         367.00      1587.25
 1321.06        3346.25           7038         304.00      1312.60
 1321.09        3346.50           7042         290.00      1251.57
 1321.13        3346.75           7045         287.00      1238.49
 1321.17        3347.00           7049         276.00      1190.54
 1321.20        3347.25           7053         265.00      1142.58
 1321.24        3347.50           7057         284.00      1225.41
 1321.27        3347.75           7060         287.00      1238.49
 1321.30        3348.00           7064         270.00      1164.38
 1321.34        3348.25           7068         289.00      1247.21
 1321.38        3348.50           7072         284.00      1225.41
 1321.41        3348.75           7075         277.00      1194.89
 1321.44        3349.00           7079         291.00      1255.93
 1321.48        3349.25           7083         289.00      1247.21
 1321.51        3349.50           7087         298.00      1286.44
 1321.55        3349.75           7090         269.00      1160.02
 1321.58        3350.00           7094         282.00      1216.69
 1321.62        3350.25           7098         301.00      1299.52
 1321.65        3350.50           7102         284.00      1225.41
 1321.69        3350.75           7105         297.00      1282.08
 1321.72        3351.00           7109         291.00      1255.93
HL scan finished at 22:02:32
end
