************************************************************
  HS Scan of (1) Internal mercury lamp
************************************************************
Integration time is 0.2294 seconds per sample
dh020617Arenosillo 37.1 6.73 3.25pr1000
************************************************************
Dead Time -------------------------  2.7E-08 
Number of Cycles Used -------------  4 
Starting Wavelength (Angstroms) ---  2950 
Final Wavelength (Angstoms) -------  2984 
Wavelength Increment (Angstroms) --  .25 
Filter Wheel #1 Position ---------- (1) Ground quartz diffuser (ND=2.32)
Filter Wheel #2 Position ---------- (1) Neutral Density 0.494



************************************************************
HS scan start time = 01:06:28
Dark Count =  1 


Time (GMT)  Wavelength (Ang)  Step Number  Raw Counts  Counts/Second

   67.19        2950.00           1407         289.00      1255.49
   67.33        2950.25           1411         302.00      1312.17
   67.36        2950.50           1414         313.00      1360.12
   67.40        2950.75           1417         291.00      1264.21
   67.43        2951.00           1421         268.00      1163.94
   67.46        2951.25           1424         291.00      1264.21
   67.50        2951.50           1427         290.00      1259.85
   67.53        2951.75           1431         301.00      1307.81
   67.56        2952.00           1434         308.00      1338.32
   67.59        2952.25           1437         293.00      1272.93
   67.63        2952.50           1441         284.00      1233.69
   67.66        2952.75           1444         306.00      1329.60
   67.69        2953.00           1448         306.00      1329.60
   67.73        2953.25           1451         295.00      1281.65
   67.76        2953.50           1454         312.00      1355.76
   67.79        2953.75           1458         314.00      1364.48
   67.82        2954.00           1461         310.00      1347.04
   67.86        2954.25           1464         321.00      1395.00
   67.89        2954.50           1468         316.00      1373.20
   67.92        2954.75           1471         310.00      1347.04
   67.96        2955.00           1475         327.00      1421.15
   67.99        2955.25           1478         328.00      1425.51
   68.02        2955.50           1481         336.00      1460.39
   68.05        2955.75           1485         322.00      1399.36
   68.09        2956.00           1488         362.00      1573.74
   68.12        2956.25           1491         320.00      1390.64
   68.15        2956.50           1495         370.00      1608.61
   68.18        2956.75           1498         339.00      1473.47
   68.22        2957.00           1501         358.00      1556.30
   68.25        2957.25           1505         380.00      1652.21
   68.28        2957.50           1508         364.00      1582.46
   68.31        2957.75           1512         365.00      1586.82
   68.35        2958.00           1515         376.00      1634.77
   68.38        2958.25           1518         369.00      1604.25
   68.41        2958.50           1522         380.00      1652.21
   68.45        2958.75           1525         420.00      1826.59
   68.48        2959.00           1528         385.00      1674.01
   68.51        2959.25           1532         403.00      1752.48
   68.54        2959.50           1535         391.00      1700.17
   68.58        2959.75           1539         409.00      1778.64
   68.61        2960.00           1542         390.00      1695.81
   68.64        2960.25           1545         416.00      1809.16
   68.68        2960.50           1549         443.00      1926.87
   68.71        2960.75           1552         433.00      1883.27
   68.74        2961.00           1555         441.00      1918.15
   68.77        2961.25           1559         421.00      1830.95
   68.81        2961.50           1562         459.00      1996.62
   68.84        2961.75           1566         721.00      3138.89
   68.87        2962.00           1569        2120.00      9239.45
   68.91        2962.25           1572        5299.00     23109.45
   68.94        2962.50           1576       12161.00     53083.88
   68.97        2962.75           1579       18012.00     78680.48
   69.00        2963.00           1582       23391.00    102243.50
   69.04        2963.25           1586       30717.00    134383.80
   69.07        2963.50           1589       35321.00    154610.90
   69.10        2963.75           1593       42172.00    184751.00
   69.13        2964.00           1596       47274.00    207228.60
   69.17        2964.25           1599       52505.00    230303.00
   69.20        2964.50           1603       58757.00    257918.90
   69.23        2964.75           1606       63110.00    277171.10
   69.27        2965.00           1609       68040.00    298999.60
   69.30        2965.25           1613       75552.00    332310.00
   69.33        2965.50           1616       80858.00    355874.80
   69.36        2965.75           1620       87828.00    386875.50
   69.40        2966.00           1623       92816.00    409092.80
   69.43        2966.25           1626       97897.00    431751.90
   69.46        2966.50           1630      102285.00    451343.00
   69.49        2966.75           1633      107491.00    474613.40
   69.53        2967.00           1636      111749.00    493668.20
   69.56        2967.25           1640      115024.00    508337.40
   69.59        2967.50           1643      116025.00    512823.30
   69.63        2967.75           1647      116317.00    514132.20
   69.66        2968.00           1650      116081.00    513074.30
   69.69        2968.25           1653      115595.00    510896.20
   69.72        2968.50           1657      112272.00    496010.00
   69.76        2968.75           1660      108305.00    478254.50
   69.79        2969.00           1663      104154.00    459693.90
   69.82        2969.25           1667       97381.00    429449.50
   69.86        2969.50           1670       91770.00    404431.50
   69.89        2969.75           1674       84202.00    370741.50
   69.92        2970.00           1677       78633.00    345989.60
   69.95        2970.25           1680       73966.00    325272.30
   69.99        2970.50           1684       67681.00    297409.20
   70.02        2970.75           1687       61846.00    271578.70
   70.05        2971.00           1690       56650.00    248607.40
   70.08        2971.25           1694       50066.00    219540.80
   70.12        2971.50           1697       45061.00    197475.60
   70.15        2971.75           1701       39084.00    171159.70
   70.18        2972.00           1704       35396.00    154940.60
   70.22        2972.25           1707       31145.00    136263.30
   70.25        2972.50           1711       23844.00    104229.30
   70.28        2972.75           1714       17915.00     78255.85
   70.31        2973.00           1718       10395.00     45365.04
   70.35        2973.25           1721        5463.00     23825.26
   70.38        2973.50           1724        2568.00     11193.44
   70.41        2973.75           1728         958.00      4172.22
   70.45        2974.00           1731         558.00      2428.23
   70.48        2974.25           1734         486.00      2114.33
   70.51        2974.50           1738         456.00      1983.54
   70.54        2974.75           1741         442.00      1922.51
   70.58        2975.00           1745         441.00      1918.15
   70.61        2975.25           1748         415.00      1804.80
   70.64        2975.50           1751         436.00      1896.35
   70.67        2975.75           1755         416.00      1809.16
   70.71        2976.00           1758         415.00      1804.80
   70.74        2976.25           1762         408.00      1774.28
   70.77        2976.50           1765         415.00      1804.80
   70.81        2976.75           1768         403.00      1752.48
   70.84        2977.00           1772         380.00      1652.21
   70.87        2977.25           1775         399.00      1735.04
   70.90        2977.50           1778         384.00      1669.65
   70.94        2977.75           1782         378.00      1643.49
   70.97        2978.00           1785         428.00      1861.47
   71.00        2978.25           1789         393.00      1708.88
   71.04        2978.50           1792         382.00      1660.93
   71.07        2978.75           1795         363.00      1578.10
   71.10        2979.00           1799         371.00      1612.97
   71.14        2979.25           1802         364.00      1582.46
   71.17        2979.50           1806         357.00      1551.94
   71.20        2979.75           1809         348.00      1512.70
   71.23        2980.00           1812         351.00      1525.78
   71.27        2980.25           1816         367.00      1595.54
   71.30        2980.50           1819         346.00      1503.98
   71.33        2980.75           1822         333.00      1447.31
   71.36        2981.00           1826         356.00      1547.58
   71.40        2981.25           1829         328.00      1425.51
   71.43        2981.50           1833         341.00      1482.19
   71.46        2981.75           1836         340.00      1477.83
   71.50        2982.00           1839         311.00      1351.40
   71.53        2982.25           1843         321.00      1395.00
   71.56        2982.50           1846         328.00      1425.51
   71.59        2982.75           1850         325.00      1412.43
   71.63        2983.00           1853         315.00      1368.84
   71.66        2983.25           1856         314.00      1364.48
   71.69        2983.50           1860         312.00      1355.76
   71.73        2983.75           1863         303.00      1316.52
   71.76        2984.00           1867         312.00      1355.76
HS scan finished at 01:11:59
end
