************************************************************
  HS Scan of (1) Internal mercury lamp
************************************************************
Integration time is 0.2294 seconds per sample
dh040617Arenosillo 37.1 6.73 3.07pr1000
************************************************************
Dead Time -------------------------  2.7E-08 
Number of Cycles Used -------------  4 
Starting Wavelength (Angstroms) ---  2950 
Final Wavelength (Angstoms) -------  2984 
Wavelength Increment (Angstroms) --  .25 
Filter Wheel #1 Position ---------- (1) Ground quartz diffuser (ND=2.32)
Filter Wheel #2 Position ---------- (1) Neutral Density 0.494



************************************************************
HS scan start time = 02:11:46
Dark Count =  1.7 


Time (GMT)  Wavelength (Ang)  Step Number  Raw Counts  Counts/Second

  132.50        2950.00           1401         447.00      1941.25
  132.64        2950.25           1405         431.00      1871.50
  132.68        2950.50           1408         443.00      1923.81
  132.71        2950.75           1412         441.00      1915.09
  132.74        2951.00           1415         471.00      2045.88
  132.78        2951.25           1418         444.00      1928.17
  132.81        2951.50           1422         441.00      1915.09
  132.84        2951.75           1425         466.00      2024.09
  132.87        2952.00           1429         487.00      2115.64
  132.91        2952.25           1432         462.00      2006.65
  132.94        2952.50           1435         474.00      2058.96
  132.97        2952.75           1439         497.00      2159.24
  133.00        2953.00           1442         478.00      2076.40
  133.04        2953.25           1446         471.00      2045.88
  133.07        2953.50           1449         504.00      2189.75
  133.10        2953.75           1452         518.00      2250.79
  133.14        2954.00           1456         517.00      2246.43
  133.17        2954.25           1459         503.00      2185.39
  133.20        2954.50           1463         515.00      2237.71
  133.23        2954.75           1466         547.00      2377.22
  133.27        2955.00           1469         518.00      2250.79
  133.30        2955.25           1473         522.00      2268.23
  133.33        2955.50           1476         538.00      2337.99
  133.37        2955.75           1480         529.00      2298.75
  133.40        2956.00           1483         530.00      2303.11
  133.43        2956.25           1486         514.00      2233.35
  133.46        2956.50           1490         555.00      2412.10
  133.50        2956.75           1493         544.00      2364.14
  133.53        2957.00           1497         570.00      2477.50
  133.56        2957.25           1500         568.00      2468.78
  133.59        2957.50           1503         545.00      2368.50
  133.63        2957.75           1507         557.00      2420.82
  133.66        2958.00           1510         594.00      2582.13
  133.69        2958.25           1514         569.00      2473.14
  133.73        2958.50           1517         592.00      2573.41
  133.76        2958.75           1520         600.00      2608.29
  133.79        2959.00           1524         624.00      2712.93
  133.82        2959.25           1527         620.00      2695.49
  133.86        2959.50           1531         633.00      2752.17
  133.89        2959.75           1534         649.00      2821.92
  133.92        2960.00           1537         628.00      2730.37
  133.95        2960.25           1541         693.00      3013.76
  133.99        2960.50           1544         695.00      3022.48
  134.02        2960.75           1548         702.00      3053.00
  134.05        2961.00           1551         656.00      2852.44
  134.09        2961.25           1554         707.00      3074.80
  134.12        2961.50           1558         697.00      3031.20
  134.15        2961.75           1561         882.00      3837.80
  134.18        2962.00           1565        2837.00     12363.76
  134.22        2962.25           1568        7564.00     32994.94
  134.25        2962.50           1571       13206.00     57649.82
  134.28        2962.75           1575       25259.00    110430.40
  134.32        2963.00           1578       34027.00    148920.60
  134.35        2963.25           1582       45187.00    198027.70
  134.38        2963.50           1585       53479.00    234599.50
  134.41        2963.75           1588       61440.00    269779.70
  134.45        2964.00           1592       71111.00    312607.00
  134.48        2964.25           1595       78023.00    343277.30
  134.51        2964.50           1599       88398.00    389409.80
  134.54        2964.75           1602       95859.00    422656.80
  134.58        2965.00           1606      105406.00    465287.00
  134.61        2965.25           1609      113358.00    500870.50
  134.64        2965.50           1612      122212.00    540571.50
  134.68        2965.75           1616      131030.00    580196.50
  134.71        2966.00           1619      137248.00    608189.50
  134.74        2966.25           1623      148445.00    658705.30
  134.77        2966.50           1626      157774.00    700900.00
  134.81        2966.75           1629      165193.00    734525.30
  134.84        2967.00           1633      172566.00    768003.40
  134.87        2967.25           1636      175303.00    780446.60
  134.90        2967.50           1640      177119.00    788707.50
  134.94        2967.75           1643      177515.00    790509.30
  134.97        2968.00           1646      178135.00    793330.80
  135.00        2968.25           1650      177208.00    789112.40
  135.04        2968.50           1653      175161.00    779800.80
  135.07        2968.75           1657      167020.00    742815.30
  135.10        2969.00           1660      158786.00    705483.10
  135.13        2969.25           1663      149405.00    663042.80
  135.17        2969.50           1667      138638.00    614452.90
  135.20        2969.75           1670      130862.00    579440.70
  135.23        2970.00           1674      123436.00    546066.60
  135.27        2970.25           1677      117048.00    517405.90
  135.30        2970.50           1681      106770.00    471385.70
  135.33        2970.75           1684       98875.00    436113.40
  135.36        2971.00           1687       91271.00    402205.10
  135.40        2971.25           1691       81003.00    356516.00
  135.43        2971.50           1694       74713.00    328583.60
  135.46        2971.75           1698       64924.00    285196.80
  135.49        2972.00           1701       56563.00    248219.90
  135.53        2972.25           1704       47815.00    209610.60
  135.56        2972.50           1708       36403.00    159364.70
  135.59        2972.75           1711       27955.00    122256.90
  135.63        2973.00           1715       16684.00     72864.66
  135.66        2973.25           1718        8043.00     35086.85
  135.69        2973.50           1721        3737.00     16290.07
  135.72        2973.75           1725        1405.00      6118.27
  135.76        2974.00           1728         867.00      3772.40
  135.79        2974.25           1732         730.00      3175.08
  135.82        2974.50           1735         714.00      3105.32
  135.86        2974.75           1739         651.00      2830.64
  135.89        2975.00           1742         719.00      3127.12
  135.92        2975.25           1745         670.00      2913.48
  135.95        2975.50           1749         657.00      2856.80
  135.99        2975.75           1752         667.00      2900.40
  136.02        2976.00           1756         628.00      2730.37
  136.05        2976.25           1759         651.00      2830.64
  136.08        2976.50           1762         610.00      2651.89
  136.12        2976.75           1766         624.00      2712.93
  136.15        2977.00           1769         612.00      2660.61
  136.18        2977.25           1773         607.00      2638.81
  136.22        2977.50           1776         574.00      2494.94
  136.25        2977.75           1780         591.00      2569.05
  136.28        2978.00           1783         563.00      2446.98
  136.31        2978.25           1786         596.00      2590.85
  136.35        2978.50           1790         568.00      2468.78
  136.38        2978.75           1793         567.00      2464.42
  136.41        2979.00           1797         548.00      2381.58
  136.45        2979.25           1800         574.00      2494.94
  136.48        2979.50           1803         564.00      2451.34
  136.51        2979.75           1807         558.00      2425.18
  136.54        2980.00           1810         535.00      2324.91
  136.58        2980.25           1814         539.00      2342.35
  136.61        2980.50           1817         532.00      2311.83
  136.64        2980.75           1821         539.00      2342.35
  136.67        2981.00           1824         517.00      2246.43
  136.71        2981.25           1827         533.00      2316.19
  136.74        2981.50           1831         521.00      2263.87
  136.77        2981.75           1834         502.00      2181.04
  136.81        2982.00           1838         523.00      2272.59
  136.84        2982.25           1841         474.00      2058.96
  136.87        2982.50           1844         512.00      2224.63
  136.90        2982.75           1848         509.00      2211.55
  136.94        2983.00           1851         487.00      2115.64
  136.97        2983.25           1855         479.00      2080.76
  137.00        2983.50           1858         487.00      2115.64
  137.03        2983.75           1862         465.00      2019.73
  137.07        2984.00           1865         469.00      2037.17
HS scan finished at 02:17:18
end
