************************************************************
  HS Scan of (1) Internal mercury lamp
************************************************************
Integration time is 0.2294 seconds per sample
dh310517Arenosillo 37.1 6.73 3.17pr1000
************************************************************
Dead Time -------------------------  2.7E-08 
Number of Cycles Used -------------  4 
Starting Wavelength (Angstroms) ---  2950 
Final Wavelength (Angstoms) -------  2984 
Wavelength Increment (Angstroms) --  .25 
Filter Wheel #1 Position ---------- (1) Ground quartz diffuser (ND=2.32)
Filter Wheel #2 Position ---------- (1) Neutral Density 0.494



************************************************************
HS scan start time = 01:56:41
Dark Count =  .9 


Time (GMT)  Wavelength (Ang)  Step Number  Raw Counts  Counts/Second

  117.41        2950.00           1407         290.00      1260.29
  117.55        2950.25           1411         292.00      1269.01
  117.59        2950.50           1414         289.00      1255.93
  117.62        2950.75           1417         287.00      1247.21
  117.65        2951.00           1421         282.00      1225.41
  117.69        2951.25           1424         297.00      1290.80
  117.72        2951.50           1427         299.00      1299.52
  117.75        2951.75           1431         290.00      1260.29
  117.78        2952.00           1434         296.00      1286.44
  117.82        2952.25           1437         305.00      1325.68
  117.85        2952.50           1441         302.00      1312.60
  117.88        2952.75           1444         310.00      1347.48
  117.92        2953.00           1448         313.00      1360.56
  117.95        2953.25           1451         313.00      1360.56
  117.98        2953.50           1454         326.00      1417.23
  118.01        2953.75           1458         325.00      1412.87
  118.05        2954.00           1461         319.00      1386.71
  118.08        2954.25           1464         320.00      1391.07
  118.11        2954.50           1468         319.00      1386.71
  118.14        2954.75           1471         339.00      1473.90
  118.18        2955.00           1475         335.00      1456.47
  118.21        2955.25           1478         337.00      1465.18
  118.24        2955.50           1481         337.00      1465.18
  118.28        2955.75           1485         355.00      1543.66
  118.31        2956.00           1488         353.00      1534.94
  118.34        2956.25           1491         359.00      1561.09
  118.37        2956.50           1495         358.00      1556.74
  118.41        2956.75           1498         339.00      1473.90
  118.44        2957.00           1501         343.00      1491.34
  118.47        2957.25           1505         374.00      1626.49
  118.50        2957.50           1508         376.00      1635.21
  118.54        2957.75           1512         376.00      1635.21
  118.57        2958.00           1515         366.00      1591.61
  118.60        2958.25           1518         367.00      1595.97
  118.64        2958.50           1522         407.00      1770.36
  118.67        2958.75           1525         393.00      1709.32
  118.70        2959.00           1528         399.00      1735.48
  118.73        2959.25           1532         410.00      1783.43
  118.77        2959.50           1535         391.00      1700.60
  118.80        2959.75           1539         410.00      1783.43
  118.83        2960.00           1542         428.00      1861.91
  118.87        2960.25           1545         441.00      1918.58
  118.90        2960.50           1549         433.00      1883.71
  118.93        2960.75           1552         443.00      1927.30
  118.96        2961.00           1555         437.00      1901.14
  119.00        2961.25           1559         471.00      2049.37
  119.03        2961.50           1562         492.00      2140.93
  119.06        2961.75           1566         973.00      4238.06
  119.09        2962.00           1569        2747.00     11974.67
  119.13        2962.25           1572        5882.00     25654.65
  119.16        2962.50           1576       11719.00     51152.12
  119.19        2962.75           1579       17227.00     75244.69
  119.23        2963.00           1582       22918.00    100170.70
  119.26        2963.25           1586       30239.00    132285.50
  119.29        2963.50           1589       35746.00    156479.70
  119.32        2963.75           1593       43342.00    189903.70
  119.36        2964.00           1596       48896.00    214380.70
  119.39        2964.25           1599       54143.00    237534.70
  119.42        2964.50           1603       61307.00    269195.00
  119.46        2964.75           1606       66671.00    292936.00
  119.49        2965.00           1609       71587.00    314721.00
  119.52        2965.25           1613       78284.00    344440.00
  119.55        2965.50           1616       83252.00    366517.20
  119.59        2965.75           1620       90503.00    398787.40
  119.62        2966.00           1623       95779.00    422303.60
  119.65        2966.25           1626      100411.00    442974.10
  119.68        2966.50           1630      107924.00    476550.60
  119.72        2966.75           1633      112693.00    497895.70
  119.75        2967.00           1636      115150.00    508902.50
  119.78        2967.25           1640      117080.00    517553.00
  119.82        2967.50           1643      117230.00    518225.50
  119.85        2967.75           1647      117773.00    520660.10
  119.88        2968.00           1650      118071.00    521996.30
  119.91        2968.25           1653      118081.00    522041.20
  119.95        2968.50           1657      115176.00    509019.00
  119.98        2968.75           1660      111904.00    494362.60
  120.01        2969.00           1663      106471.00    470052.20
  120.05        2969.25           1667       98997.00    436661.60
  120.08        2969.50           1670       92758.00    408834.70
  120.11        2969.75           1674       84573.00    372392.00
  120.15        2970.00           1677       79200.00    348508.60
  120.18        2970.25           1680       73795.00    324514.00
  120.21        2970.50           1684       67355.00    295965.50
  120.25        2970.75           1687       61896.00    271800.30
  120.28        2971.00           1690       56369.00    247366.40
  120.31        2971.25           1694       49803.00    218381.10
  120.35        2971.50           1697       45152.00    197877.00
  120.38        2971.75           1701       39630.00    173562.50
  120.41        2972.00           1704       33568.00    146907.20
  120.44        2972.25           1707       27703.00    121154.60
  120.48        2972.50           1711       20571.00     89887.02
  120.51        2972.75           1714       15408.00     67284.72
  120.54        2973.00           1718        8457.00     36898.56
  120.58        2973.25           1721        4986.00     21743.80
  120.61        2973.50           1724        2937.00     12803.47
  120.64        2973.75           1728        1122.00      4887.74
  120.67        2974.00           1731         619.00      2694.62
  120.71        2974.25           1734         496.00      2158.36
  120.74        2974.50           1738         477.00      2075.53
  120.77        2974.75           1741         479.00      2084.25
  120.81        2975.00           1745         459.00      1997.06
  120.84        2975.25           1748         451.00      1962.18
  120.87        2975.50           1751         427.00      1857.55
  120.90        2975.75           1755         413.00      1796.51
  120.94        2976.00           1758         430.00      1870.63
  120.97        2976.25           1762         403.00      1752.92
  121.00        2976.50           1765         403.00      1752.92
  121.03        2976.75           1768         413.00      1796.51
  121.07        2977.00           1772         421.00      1831.39
  121.10        2977.25           1775         406.00      1766.00
  121.13        2977.50           1778         388.00      1687.52
  121.17        2977.75           1782         392.00      1704.96
  121.20        2978.00           1785         386.00      1678.80
  121.23        2978.25           1789         364.00      1582.89
  121.26        2978.50           1792         390.00      1696.24
  121.30        2978.75           1795         368.00      1600.33
  121.33        2979.00           1799         361.00      1569.81
  121.36        2979.25           1802         342.00      1486.98
  121.40        2979.50           1806         366.00      1591.61
  121.43        2979.75           1809         371.00      1613.41
  121.46        2980.00           1812         356.00      1548.02
  121.49        2980.25           1816         357.00      1552.38
  121.53        2980.50           1819         344.00      1495.70
  121.56        2980.75           1822         340.00      1478.26
  121.59        2981.00           1826         393.00      1709.32
  121.62        2981.25           1829         344.00      1495.70
  121.66        2981.50           1833         328.00      1425.95
  121.69        2981.75           1836         339.00      1473.90
  121.72        2982.00           1839         325.00      1412.87
  121.76        2982.25           1843         342.00      1486.98
  121.79        2982.50           1846         351.00      1526.22
  121.82        2982.75           1850         337.00      1465.18
  121.85        2983.00           1853         319.00      1386.71
  121.89        2983.25           1856         335.00      1456.47
  121.92        2983.50           1860         325.00      1412.87
  121.95        2983.75           1863         322.00      1399.79
  121.98        2984.00           1867         305.00      1325.68
HS scan finished at 02:02:13
end
