************************************************************
  HS Scan of (1) Internal mercury lamp
************************************************************
Integration time is 0.2294 seconds per sample
dh030617Arenosillo 37.1 6.73 3.35pr1000
************************************************************
Dead Time -------------------------  2.7E-08 
Number of Cycles Used -------------  4 
Starting Wavelength (Angstroms) ---  2950 
Final Wavelength (Angstoms) -------  2984 
Wavelength Increment (Angstroms) --  .25 
Filter Wheel #1 Position ---------- (1) Ground quartz diffuser (ND=2.32)
Filter Wheel #2 Position ---------- (1) Neutral Density 0.494



************************************************************
HS scan start time = 20:46:00
Dark Count =  5.9 


Time (GMT)  Wavelength (Ang)  Step Number  Raw Counts  Counts/Second

 1246.73        2950.00           1401         394.00      1691.88
 1246.87        2950.25           1405         397.00      1704.96
 1246.91        2950.50           1408         426.00      1831.39
 1246.94        2950.75           1412         390.00      1674.44
 1246.97        2951.00           1415         405.00      1739.84
 1247.00        2951.25           1418         394.00      1691.88
 1247.04        2951.50           1422         399.00      1713.68
 1247.07        2951.75           1425         411.00      1766.00
 1247.10        2952.00           1429         437.00      1879.35
 1247.14        2952.25           1432         423.00      1818.31
 1247.17        2952.50           1435         410.00      1761.64
 1247.20        2952.75           1439         414.00      1779.07
 1247.23        2953.00           1442         425.00      1827.03
 1247.27        2953.25           1446         418.00      1796.51
 1247.30        2953.50           1449         415.00      1783.43
 1247.33        2953.75           1452         430.00      1848.83
 1247.36        2954.00           1456         458.00      1970.90
 1247.40        2954.25           1459         456.00      1962.18
 1247.43        2954.50           1463         435.00      1870.63
 1247.46        2954.75           1466         444.00      1909.86
 1247.50        2955.00           1469         451.00      1940.38
 1247.53        2955.25           1473         438.00      1883.71
 1247.56        2955.50           1476         462.00      1988.34
 1247.59        2955.75           1480         472.00      2031.93
 1247.63        2956.00           1483         462.00      1988.34
 1247.66        2956.25           1486         483.00      2079.89
 1247.69        2956.50           1490         491.00      2114.77
 1247.72        2956.75           1493         498.00      2145.29
 1247.76        2957.00           1497         503.00      2167.08
 1247.79        2957.25           1500         504.00      2171.44
 1247.82        2957.50           1503         510.00      2197.60
 1247.86        2957.75           1507         495.00      2132.21
 1247.89        2958.00           1510         501.00      2158.36
 1247.92        2958.25           1514         538.00      2319.67
 1247.95        2958.50           1517         515.00      2219.40
 1247.99        2958.75           1520         547.00      2358.91
 1248.02        2959.00           1524         541.00      2332.75
 1248.05        2959.25           1527         555.00      2393.79
 1248.09        2959.50           1531         553.00      2385.07
 1248.12        2959.75           1534         548.00      2363.27
 1248.15        2960.00           1537         566.00      2441.75
 1248.18        2960.25           1541         569.00      2454.83
 1248.22        2960.50           1544         596.00      2572.54
 1248.25        2960.75           1548         609.00      2629.22
 1248.28        2961.00           1551         586.00      2528.94
 1248.32        2961.25           1554         602.00      2598.70
 1248.35        2961.50           1558         634.00      2738.21
 1248.38        2961.75           1561         988.00      4281.66
 1248.41        2962.00           1565        2954.00     12855.81
 1248.45        2962.25           1568        5845.00     25471.31
 1248.48        2962.50           1571       10899.00     47546.18
 1248.51        2962.75           1575       18606.00     81259.61
 1248.54        2963.00           1578       25115.00    109780.50
 1248.58        2963.25           1582       37150.00    162631.10
 1248.61        2963.50           1585       45275.00    198396.90
 1248.64        2963.75           1588       52116.00    228564.40
 1248.68        2964.00           1592       61190.00    268655.30
 1248.71        2964.25           1595       68357.00    300382.40
 1248.74        2964.50           1599       77806.00    342295.00
 1248.77        2964.75           1602       86443.00    380689.40
 1248.81        2965.00           1606       97285.00    428999.30
 1248.84        2965.25           1609      105493.00    465657.20
 1248.87        2965.50           1612      112500.00    497009.00
 1248.90        2965.75           1616      122393.00    541365.10
 1248.94        2966.00           1619      128908.00    570634.30
 1248.97        2966.25           1623      136858.00    606413.50
 1249.00        2966.50           1626      144349.00    640190.90
 1249.04        2966.75           1629      151715.00    673465.30
 1249.07        2967.00           1633      156999.00    697372.00
 1249.10        2967.25           1636      158692.00    705038.30
 1249.13        2967.50           1640      159820.00    710148.00
 1249.17        2967.75           1643      160041.00    711149.20
 1249.20        2968.00           1646      159890.00    710465.10
 1249.23        2968.25           1650      159995.00    710940.80
 1249.27        2968.50           1653      158266.00    703109.00
 1249.30        2968.75           1657      152577.00    677363.20
 1249.33        2969.00           1660      146710.00    650849.60
 1249.36        2969.25           1663      139726.00    619338.10
 1249.40        2969.50           1667      129842.00    574834.10
 1249.43        2969.75           1670      122558.00    542105.80
 1249.46        2970.00           1674      112773.00    498231.60
 1249.49        2970.25           1677      104495.00    461196.00
 1249.53        2970.50           1681       93713.00    413069.10
 1249.56        2970.75           1684       86370.00    380364.50
 1249.59        2971.00           1687       78943.00    347344.80
 1249.63        2971.25           1691       70426.00    309551.60
 1249.66        2971.50           1694       65708.00    288649.30
 1249.69        2971.75           1698       57213.00    251073.30
 1249.72        2972.00           1701       50054.00    219466.20
 1249.76        2972.25           1704       43485.00    190511.50
 1249.79        2972.50           1708       33629.00    147153.30
 1249.82        2972.75           1711       24992.00    109241.10
 1249.85        2973.00           1715       14284.00     62345.93
 1249.89        2973.25           1718        6646.00     28968.16
 1249.92        2973.50           1721        3225.00     14038.01
 1249.95        2973.75           1725        1365.00      5925.53
 1249.99        2974.00           1728         878.00      3802.05
 1250.02        2974.25           1732         661.00      2855.93
 1250.05        2974.50           1735         608.00      2624.86
 1250.08        2974.75           1739         628.00      2712.06
 1250.12        2975.00           1742         613.00      2646.66
 1250.15        2975.25           1745         590.00      2546.38
 1250.18        2975.50           1749         615.00      2655.38
 1250.22        2975.75           1752         585.00      2524.58
 1250.25        2976.00           1756         531.00      2289.16
 1250.28        2976.25           1759         559.00      2411.23
 1250.31        2976.50           1762         571.00      2463.55
 1250.35        2976.75           1766         546.00      2354.55
 1250.38        2977.00           1769         572.00      2467.91
 1250.41        2977.25           1773         533.00      2297.88
 1250.44        2977.50           1776         550.00      2371.99
 1250.48        2977.75           1780         550.00      2371.99
 1250.51        2978.00           1783         534.00      2302.24
 1250.54        2978.25           1786         533.00      2297.88
 1250.58        2978.50           1790         523.00      2254.28
 1250.61        2978.75           1793         501.00      2158.36
 1250.64        2979.00           1797         492.00      2119.13
 1250.67        2979.25           1800         510.00      2197.60
 1250.71        2979.50           1803         522.00      2249.92
 1250.74        2979.75           1807         485.00      2088.61
 1250.77        2980.00           1810         498.00      2145.29
 1250.80        2980.25           1814         482.00      2075.53
 1250.84        2980.50           1817         516.00      2223.76
 1250.87        2980.75           1821         480.00      2066.81
 1250.90        2981.00           1824         478.00      2058.09
 1250.94        2981.25           1827         469.00      2018.85
 1250.97        2981.50           1831         488.00      2101.69
 1251.00        2981.75           1834         445.00      1914.22
 1251.03        2982.00           1838         437.00      1879.35
 1251.07        2982.25           1841         443.00      1905.50
 1251.10        2982.50           1844         466.00      2005.78
 1251.13        2982.75           1848         437.00      1879.35
 1251.17        2983.00           1851         453.00      1949.10
 1251.20        2983.25           1855         437.00      1879.35
 1251.23        2983.50           1858         430.00      1848.83
 1251.26        2983.75           1862         428.00      1840.11
 1251.30        2984.00           1865         427.00      1835.75
HS scan finished at 20:51:31
end
