************************************************************
  HS Scan of (1) Internal mercury lamp
************************************************************
Integration time is 0.2294 seconds per sample
dh300517Arenosillo 37.1 6.73 3.31pr1000
************************************************************
Dead Time -------------------------  2.7E-08 
Number of Cycles Used -------------  4 
Starting Wavelength (Angstroms) ---  2950 
Final Wavelength (Angstoms) -------  2984 
Wavelength Increment (Angstroms) --  .25 
Filter Wheel #1 Position ---------- (1) Ground quartz diffuser (ND=2.32)
Filter Wheel #2 Position ---------- (1) Neutral Density 0.494



************************************************************
HS scan start time = 20:29:39
Dark Count =  2.1 


Time (GMT)  Wavelength (Ang)  Step Number  Raw Counts  Counts/Second

 1230.39        2950.00           1407         265.00      1146.07
 1230.53        2950.25           1411         266.00      1150.43
 1230.56        2950.50           1414         268.00      1159.15
 1230.60        2950.75           1417         273.00      1180.94
 1230.63        2951.00           1421         276.00      1194.02
 1230.66        2951.25           1424         289.00      1250.70
 1230.69        2951.50           1427         295.00      1276.85
 1230.73        2951.75           1431         307.00      1329.17
 1230.76        2952.00           1434         298.00      1289.93
 1230.79        2952.25           1437         283.00      1224.54
 1230.82        2952.50           1441         293.00      1268.13
 1230.86        2952.75           1444         311.00      1346.61
 1230.89        2953.00           1448         298.00      1289.93
 1230.92        2953.25           1451         296.00      1281.21
 1230.96        2953.50           1454         308.00      1333.53
 1230.99        2953.75           1458         303.00      1311.73
 1231.02        2954.00           1461         322.00      1394.56
 1231.05        2954.25           1464         293.00      1268.13
 1231.09        2954.50           1468         316.00      1368.40
 1231.12        2954.75           1471         310.00      1342.25
 1231.15        2955.00           1475         324.00      1403.28
 1231.19        2955.25           1478         326.00      1412.00
 1231.22        2955.50           1481         335.00      1451.23
 1231.25        2955.75           1485         327.00      1416.36
 1231.29        2956.00           1488         361.00      1564.58
 1231.32        2956.25           1491         352.00      1525.35
 1231.35        2956.50           1495         325.00      1407.64
 1231.39        2956.75           1498         347.00      1503.55
 1231.42        2957.00           1501         355.00      1538.42
 1231.45        2957.25           1505         356.00      1542.78
 1231.48        2957.50           1508         357.00      1547.14
 1231.52        2957.75           1512         380.00      1647.41
 1231.55        2958.00           1515         344.00      1490.47
 1231.58        2958.25           1518         370.00      1603.82
 1231.62        2958.50           1522         356.00      1542.78
 1231.65        2958.75           1525         375.00      1625.62
 1231.68        2959.00           1528         384.00      1664.85
 1231.72        2959.25           1532         385.00      1669.21
 1231.75        2959.50           1535         378.00      1638.70
 1231.78        2959.75           1539         392.00      1699.73
 1231.81        2960.00           1542         397.00      1721.53
 1231.85        2960.25           1545         401.00      1738.97
 1231.88        2960.50           1549         388.00      1682.29
 1231.91        2960.75           1552         400.00      1734.61
 1231.95        2961.00           1555         419.00      1817.44
 1231.98        2961.25           1559         450.00      1952.59
 1232.01        2961.50           1562         428.00      1856.68
 1232.05        2961.75           1566         798.00      3469.81
 1232.08        2962.00           1569        2274.00      9906.31
 1232.11        2962.25           1572        5373.00     23427.63
 1232.14        2962.50           1576       11185.00     48812.77
 1232.18        2962.75           1579       15677.00     68456.41
 1232.21        2963.00           1582       20760.00     90709.69
 1232.24        2963.25           1586       27183.00    118867.80
 1232.28        2963.50           1589       32115.00    140518.60
 1232.31        2963.75           1593       39044.00    170978.90
 1232.34        2964.00           1596       44165.00    193523.40
 1232.37        2964.25           1599       48811.00    214000.60
 1232.41        2964.50           1603       55011.00    241362.50
 1232.44        2964.75           1606       59341.00    260495.80
 1232.47        2965.00           1609       63162.00    277396.40
 1232.51        2965.25           1613       68966.00    303097.60
 1232.54        2965.50           1616       74131.00    325999.40
 1232.57        2965.75           1620       81826.00    360172.10
 1232.61        2966.00           1623       87206.00    384101.90
 1232.64        2966.25           1626       92770.00    408882.80
 1232.67        2966.50           1630      100494.00    443339.30
 1232.70        2966.75           1633      106270.00    469148.00
 1232.74        2967.00           1636      110054.00    486075.70
 1232.77        2967.25           1640      112152.00    495467.70
 1232.80        2967.50           1643      113245.00    500362.60
 1232.84        2967.75           1647      113302.00    500617.90
 1232.87        2968.00           1650      113436.00    501218.10
 1232.90        2968.25           1653      113424.00    501164.30
 1232.93        2968.50           1657      110930.00    489996.70
 1232.97        2968.75           1660      108354.00    478468.80
 1233.00        2969.00           1663      104333.00    460488.90
 1233.03        2969.25           1667       97576.00    430314.60
 1233.06        2969.50           1670       91590.00    403624.60
 1233.10        2969.75           1674       84654.00    372747.00
 1233.13        2970.00           1677       79623.00    350382.40
 1233.16        2970.25           1680       74812.00    329021.10
 1233.19        2970.50           1684       69444.00    305215.90
 1233.23        2970.75           1687       65406.00    287329.00
 1233.26        2971.00           1690       60477.00    265518.80
 1233.29        2971.25           1694       53010.00    232527.20
 1233.33        2971.50           1697       47513.00    208277.40
 1233.36        2971.75           1701       40761.00    178534.60
 1233.39        2972.00           1704       35642.00    156017.20
 1233.42        2972.25           1707       30129.00    131797.30
 1233.46        2972.50           1711       22470.00     98202.06
 1233.49        2972.75           1714       17306.00     75585.22
 1233.52        2973.00           1718       10987.00     47947.39
 1233.56        2973.25           1721        6255.00     27277.71
 1233.59        2973.50           1724        2904.00     12654.28
 1233.62        2973.75           1728         932.00      4054.06
 1233.65        2974.00           1731         558.00      2423.44
 1233.69        2974.25           1734         447.00      1939.51
 1233.72        2974.50           1738         425.00      1843.60
 1233.75        2974.75           1741         458.00      1987.47
 1233.79        2975.00           1745         437.00      1895.91
 1233.82        2975.25           1748         433.00      1878.47
 1233.85        2975.50           1751         412.00      1786.92
 1233.89        2975.75           1755         424.00      1839.24
 1233.92        2976.00           1758         403.00      1747.68
 1233.95        2976.25           1762         393.00      1704.09
 1233.99        2976.50           1765         426.00      1847.96
 1234.02        2976.75           1768         392.00      1699.73
 1234.05        2977.00           1772         411.00      1782.56
 1234.08        2977.25           1775         408.00      1769.48
 1234.12        2977.50           1778         409.00      1773.84
 1234.15        2977.75           1782         377.00      1634.34
 1234.18        2978.00           1785         366.00      1586.38
 1234.22        2978.25           1789         388.00      1682.29
 1234.25        2978.50           1792         360.00      1560.22
 1234.28        2978.75           1795         355.00      1538.42
 1234.32        2979.00           1799         343.00      1486.11
 1234.35        2979.25           1802         352.00      1525.35
 1234.38        2979.50           1806         344.00      1490.47
 1234.41        2979.75           1809         341.00      1477.39
 1234.45        2980.00           1812         345.00      1494.83
 1234.48        2980.25           1816         340.00      1473.03
 1234.51        2980.50           1819         339.00      1468.67
 1234.55        2980.75           1822         336.00      1455.59
 1234.58        2981.00           1826         346.00      1499.19
 1234.61        2981.25           1829         331.00      1433.80
 1234.64        2981.50           1833         332.00      1438.16
 1234.68        2981.75           1836         335.00      1451.23
 1234.71        2982.00           1839         325.00      1407.64
 1234.74        2982.25           1843         311.00      1346.61
 1234.77        2982.50           1846         317.00      1372.76
 1234.81        2982.75           1850         313.00      1355.32
 1234.84        2983.00           1853         315.00      1364.04
 1234.87        2983.25           1856         321.00      1390.20
 1234.91        2983.50           1860         304.00      1316.09
 1234.94        2983.75           1863         310.00      1342.25
 1234.97        2984.00           1867         304.00      1316.09
HS scan finished at 20:35:12
end
