************************************************************
  HS Scan of (1) Internal mercury lamp
************************************************************
Integration time is 0.2294 seconds per sample
dh180619El Arenosillo 37.1 6.73 2.96pr1000
************************************************************
Dead Time -------------------------  2.7E-08 
Number of Cycles Used -------------  4 
Starting Wavelength (Angstroms) ---  2950 
Final Wavelength (Angstoms) -------  2984 
Wavelength Increment (Angstroms) --  .25 
Filter Wheel #1 Position ---------- (1) Ground quartz diffuser (ND=2.32)
Filter Wheel #2 Position ---------- (1) Neutral Density 0.494



************************************************************
HS scan start time = 02:23:43
Dark Count =  2.1 


Time (GMT)  Wavelength (Ang)  Step Number  Raw Counts  Counts/Second

  144.45        2950.00           1399         370.00      1603.82
  144.59        2950.25           1403         351.00      1520.99
  144.63        2950.50           1406         333.00      1442.51
  144.66        2950.75           1410         328.00      1420.72
  144.70        2951.00           1413         361.00      1564.58
  144.73        2951.25           1416         345.00      1494.83
  144.77        2951.50           1420         372.00      1612.54
  144.80        2951.75           1423         359.00      1555.86
  144.84        2952.00           1427         369.00      1599.46
  144.87        2952.25           1430         368.00      1595.10
  144.91        2952.50           1433         357.00      1547.14
  144.94        2952.75           1437         374.00      1621.26
  144.98        2953.00           1440         372.00      1612.54
  145.01        2953.25           1444         390.00      1691.01
  145.05        2953.50           1447         391.00      1695.37
  145.08        2953.75           1450         389.00      1686.65
  145.12        2954.00           1454         412.00      1786.92
  145.15        2954.25           1457         447.00      1939.51
  145.19        2954.50           1461         392.00      1699.73
  145.22        2954.75           1464         409.00      1773.84
  145.26        2955.00           1468         398.00      1725.89
  145.29        2955.25           1471         418.00      1813.08
  145.33        2955.50           1474         394.00      1708.45
  145.36        2955.75           1478         415.00      1800.00
  145.39        2956.00           1481         435.00      1887.19
  145.43        2956.25           1485         432.00      1874.11
  145.47        2956.50           1488         437.00      1895.91
  145.50        2956.75           1491         422.00      1830.52
  145.53        2957.00           1495         439.00      1904.63
  145.57        2957.25           1498         432.00      1874.11
  145.61        2957.50           1502         441.00      1913.35
  145.64        2957.75           1505         452.00      1961.31
  145.67        2958.00           1508         475.00      2061.58
  145.71        2958.25           1512         441.00      1913.35
  145.74        2958.50           1515         454.00      1970.03
  145.78        2958.75           1519         493.00      2140.05
  145.81        2959.00           1522         500.00      2170.57
  145.85        2959.25           1525         510.00      2214.17
  145.88        2959.50           1529         486.00      2109.54
  145.92        2959.75           1532         529.00      2297.00
  145.95        2960.00           1536         532.00      2310.08
  145.99        2960.25           1539         528.00      2292.64
  146.02        2960.50           1543         536.00      2327.52
  146.06        2960.75           1546         542.00      2353.68
  146.09        2961.00           1549         541.00      2349.32
  146.13        2961.25           1553         895.00      3892.74
  146.16        2961.50           1556        1753.00      7634.09
  146.20        2961.75           1560        4721.00     20582.06
  146.23        2962.00           1563        8655.00     37758.18
  146.27        2962.25           1566       13920.00     60770.51
  146.30        2962.50           1570       22676.00     99104.86
  146.34        2962.75           1573       29984.00    131160.70
  146.37        2963.00           1577       38195.00    167243.90
  146.41        2963.25           1580       44046.00    192999.20
  146.44        2963.50           1584       51656.00    226551.10
  146.48        2963.75           1587       57250.00    251253.60
  146.51        2964.00           1590       63110.00    277166.30
  146.55        2964.25           1594       71397.00    313873.20
  146.58        2964.50           1597       77821.00    342378.50
  146.62        2964.75           1601       85475.00    376399.20
  146.65        2965.00           1604       90370.00    398189.60
  146.69        2965.25           1607       97020.00    427833.90
  146.72        2965.50           1611      105754.00    466841.00
  146.76        2965.75           1614      111615.00    493063.30
  146.79        2966.00           1618      118337.00    523183.80
  146.83        2966.25           1621      123650.00    547025.80
  146.86        2966.50           1624      127969.00    566429.90
  146.90        2966.75           1628      130867.00    579461.40
  146.93        2967.00           1631      131909.00    584149.30
  146.97        2967.25           1635      132351.00    586138.10
  147.00        2967.50           1638      132584.00    587186.70
  147.04        2967.75           1642      132295.00    585886.20
  147.07        2968.00           1645      131228.00    581085.40
  147.11        2968.25           1648      128122.00    567117.60
  147.14        2968.50           1652      121813.00    538778.70
  147.18        2968.75           1655      115593.00    510882.30
  147.21        2969.00           1659      106607.00    470655.00
  147.25        2969.25           1662      100620.00    443901.90
  147.28        2969.50           1665       95132.00    419412.80
  147.32        2969.75           1669       86471.00    380830.90
  147.35        2970.00           1672       79620.00    350369.00
  147.39        2970.25           1676       71881.00    316019.30
  147.42        2970.50           1679       64572.00    283636.80
  147.46        2970.75           1683       57043.00    250339.00
  147.49        2971.00           1686       51939.00    227800.00
  147.53        2971.25           1689       46657.00    204504.00
  147.56        2971.50           1693       41296.00    180889.60
  147.60        2971.75           1696       35361.00    154781.90
  147.63        2972.00           1700       26445.00    115630.30
  147.67        2972.25           1703       19774.00     86390.91
  147.70        2972.50           1707       11903.00     51951.21
  147.74        2972.75           1710        6334.00     27622.60
  147.77        2973.00           1713        3292.00     14346.88
  147.80        2973.25           1717        1464.00      6373.81
  147.84        2973.50           1720         812.00      3530.85
  147.88        2973.75           1724         597.00      2593.47
  147.91        2974.00           1727         562.00      2440.88
  147.94        2974.25           1730         549.00      2384.20
  147.98        2974.50           1734         541.00      2349.32
  148.01        2974.75           1737         527.00      2288.28
  148.05        2975.00           1741         544.00      2362.40
  148.09        2975.25           1744         489.00      2122.62
  148.12        2975.50           1748         501.00      2174.93
  148.15        2975.75           1751         484.00      2100.82
  148.19        2976.00           1754         483.00      2096.46
  148.22        2976.25           1758         469.00      2035.42
  148.26        2976.50           1761         477.00      2070.30
  148.29        2976.75           1765         459.00      1991.82
  148.33        2977.00           1768         474.00      2057.22
  148.36        2977.25           1772         469.00      2035.42
  148.40        2977.50           1775         459.00      1991.82
  148.43        2977.75           1778         462.00      2004.90
  148.47        2978.00           1782         422.00      1830.52
  148.50        2978.25           1785         454.00      1970.03
  148.54        2978.50           1789         441.00      1913.35
  148.57        2978.75           1792         436.00      1891.55
  148.61        2979.00           1795         444.00      1926.43
  148.64        2979.25           1799         441.00      1913.35
  148.68        2979.50           1802         447.00      1939.51
  148.71        2979.75           1806         440.00      1908.99
  148.75        2980.00           1809         431.00      1869.75
  148.78        2980.25           1813         414.00      1795.64
  148.82        2980.50           1816         417.00      1808.72
  148.85        2980.75           1819         395.00      1712.81
  148.89        2981.00           1823         399.00      1730.25
  148.92        2981.25           1826         416.00      1804.36
  148.96        2981.50           1830         421.00      1826.16
  148.99        2981.75           1833         406.00      1760.76
  149.03        2982.00           1837         390.00      1691.01
  149.06        2982.25           1840         382.00      1656.13
  149.10        2982.50           1843         374.00      1621.26
  149.13        2982.75           1847         387.00      1677.93
  149.17        2983.00           1850         390.00      1691.01
  149.20        2983.25           1854         373.00      1616.90
  149.24        2983.50           1857         355.00      1538.42
  149.27        2983.75           1861         360.00      1560.22
  149.31        2984.00           1864         359.00      1555.86
HS scan finished at 02:29:33
end
************************************************************
  HS Scan of (1) Internal mercury lamp
************************************************************
Integration time is 0.2294 seconds per sample
dh180619El Arenosillo 37.1 6.73 3.17pr1000
************************************************************
Dead Time -------------------------  2.7E-08 
Number of Cycles Used -------------  4 
Starting Wavelength (Angstroms) ---  2950 
Final Wavelength (Angstoms) -------  2984 
Wavelength Increment (Angstroms) --  .25 
Filter Wheel #1 Position ---------- (1) Ground quartz diffuser (ND=2.32)
Filter Wheel #2 Position ---------- (1) Neutral Density 0.494



************************************************************
HS scan start time = 21:50:50
Dark Count =  3.1 


Time (GMT)  Wavelength (Ang)  Step Number  Raw Counts  Counts/Second

 1311.57        2950.00           1399         375.00      1621.26
 1311.71        2950.25           1403         385.00      1664.85
 1311.74        2950.50           1406         379.00      1638.70
 1311.78        2950.75           1410         385.00      1664.85
 1311.81        2951.00           1413         402.00      1738.97
 1311.85        2951.25           1416         380.00      1643.05
 1311.88        2951.50           1420         427.00      1847.96
 1311.92        2951.75           1423         397.00      1717.17
 1311.95        2952.00           1427         421.00      1821.80
 1311.99        2952.25           1430         406.00      1756.40
 1312.02        2952.50           1433         432.00      1869.75
 1312.06        2952.75           1437         416.00      1800.00
 1312.09        2953.00           1440         428.00      1852.32
 1312.13        2953.25           1444         437.00      1891.55
 1312.16        2953.50           1447         432.00      1869.75
 1312.20        2953.75           1450         436.00      1887.19
 1312.23        2954.00           1454         424.00      1834.88
 1312.27        2954.25           1457         434.00      1878.47
 1312.30        2954.50           1461         426.00      1843.60
 1312.34        2954.75           1464         450.00      1948.23
 1312.37        2955.00           1468         441.00      1908.99
 1312.40        2955.25           1471         438.00      1895.91
 1312.44        2955.50           1474         464.00      2009.26
 1312.47        2955.75           1478         471.00      2039.78
 1312.51        2956.00           1481         455.00      1970.03
 1312.54        2956.25           1485         472.00      2044.14
 1312.58        2956.50           1488         465.00      2013.62
 1312.61        2956.75           1491         489.00      2118.26
 1312.65        2957.00           1495         451.00      1952.59
 1312.68        2957.25           1498         468.00      2026.70
 1312.72        2957.50           1502         483.00      2092.10
 1312.75        2957.75           1505         488.00      2113.90
 1312.79        2958.00           1508         486.00      2105.18
 1312.82        2958.25           1512         481.00      2083.38
 1312.86        2958.50           1515         495.00      2144.41
 1312.89        2958.75           1519         524.00      2270.85
 1312.93        2959.00           1522         509.00      2205.45
 1312.96        2959.25           1525         547.00      2371.12
 1313.00        2959.50           1529         515.00      2231.61
 1313.03        2959.75           1532         543.00      2353.68
 1313.07        2960.00           1536         571.00      2475.75
 1313.10        2960.25           1539         556.00      2410.36
 1313.14        2960.50           1543         559.00      2423.44
 1313.17        2960.75           1546         559.00      2423.44
 1313.21        2961.00           1549         589.00      2554.23
 1313.24        2961.25           1553         890.00      3866.58
 1313.28        2961.50           1556        1877.00      8170.50
 1313.31        2961.75           1560        5219.00     22751.11
 1313.35        2962.00           1563        9956.00     43437.58
 1313.38        2962.25           1566       16123.00     70403.54
 1313.42        2962.50           1570       24608.00    107569.60
 1313.45        2962.75           1573       31398.00    137365.10
 1313.49        2963.00           1577       41350.00    181122.90
 1313.52        2963.25           1580       47565.00    208502.20
 1313.56        2963.50           1584       55104.00    241768.80
 1313.59        2963.75           1587       59933.00    263108.80
 1313.63        2964.00           1590       66934.00    294091.00
 1313.66        2964.25           1594       77109.00    339212.50
 1313.70        2964.50           1597       83666.00    368348.40
 1313.73        2964.75           1601       91726.00    404226.10
 1313.77        2965.00           1604       96919.00    427378.90
 1313.80        2965.25           1607      102836.00    453795.20
 1313.84        2965.50           1611      110627.00    488635.80
 1313.87        2965.75           1614      116000.00    512701.90
 1313.91        2966.00           1618      122976.00    543995.00
 1313.94        2966.25           1621      129399.00    572854.60
 1313.98        2966.50           1624      133792.00    592619.10
 1314.01        2966.75           1628      136936.00    606777.50
 1314.05        2967.00           1631      138183.00    612396.10
 1314.08        2967.25           1635      138580.00    614185.30
 1314.12        2967.50           1638      138578.00    614176.20
 1314.15        2967.75           1642      138413.00    613432.60
 1314.19        2968.00           1645      136185.00    603394.60
 1314.22        2968.25           1648      132726.00    587821.20
 1314.26        2968.50           1652      125418.00    554961.90
 1314.29        2968.75           1655      118832.00    525399.30
 1314.33        2969.00           1659      110457.00    487874.90
 1314.36        2969.25           1662      103831.00    458241.10
 1314.40        2969.50           1665       97180.00    428543.30
 1314.43        2969.75           1669       89201.00    392979.00
 1314.47        2970.00           1672       82057.00    361194.50
 1314.50        2970.25           1676       72561.00    319030.50
 1314.54        2970.50           1679       66212.00    290893.50
 1314.57        2970.75           1683       58481.00    256689.60
 1314.61        2971.00           1686       53294.00    233776.50
 1314.64        2971.25           1689       47569.00    208519.90
 1314.68        2971.50           1693       40983.00    179507.40
 1314.71        2971.75           1696       35062.00    153463.20
 1314.74        2972.00           1700       27544.00    120447.30
 1314.78        2972.25           1703       21340.00     93246.24
 1314.82        2972.50           1707       12799.00     55864.06
 1314.85        2972.75           1710        7540.00     32884.02
 1314.88        2973.00           1713        3825.00     16667.92
 1314.92        2973.25           1717        1398.00      6081.64
 1314.95        2973.50           1720         732.00      3177.69
 1314.99        2973.75           1724         615.00      2667.59
 1315.02        2974.00           1727         557.00      2414.72
 1315.06        2974.25           1730         559.00      2423.44
 1315.09        2974.50           1734         561.00      2432.16
 1315.13        2974.75           1737         549.00      2379.84
 1315.16        2975.00           1741         563.00      2440.88
 1315.20        2975.25           1744         536.00      2323.16
 1315.23        2975.50           1748         508.00      2201.09
 1315.27        2975.75           1751         533.00      2310.08
 1315.30        2976.00           1754         533.00      2310.08
 1315.34        2976.25           1758         482.00      2087.74
 1315.37        2976.50           1761         482.00      2087.74
 1315.41        2976.75           1765         517.00      2240.33
 1315.44        2977.00           1768         484.00      2096.46
 1315.48        2977.25           1772         488.00      2113.90
 1315.51        2977.50           1775         479.00      2074.66
 1315.55        2977.75           1778         454.00      1965.67
 1315.58        2978.00           1782         451.00      1952.59
 1315.62        2978.25           1785         469.00      2031.06
 1315.65        2978.50           1789         474.00      2052.86
 1315.69        2978.75           1792         448.00      1939.51
 1315.72        2979.00           1795         453.00      1961.31
 1315.76        2979.25           1799         449.00      1943.87
 1315.79        2979.50           1802         432.00      1869.75
 1315.83        2979.75           1806         432.00      1869.75
 1315.86        2980.00           1809         428.00      1852.32
 1315.90        2980.25           1813         448.00      1939.51
 1315.93        2980.50           1816         438.00      1895.91
 1315.97        2980.75           1819         412.00      1782.56
 1316.00        2981.00           1823         402.00      1738.97
 1316.04        2981.25           1826         426.00      1843.60
 1316.07        2981.50           1830         413.00      1786.92
 1316.11        2981.75           1833         425.00      1839.24
 1316.14        2982.00           1837         385.00      1664.85
 1316.18        2982.25           1840         409.00      1769.48
 1316.21        2982.50           1843         387.00      1673.57
 1316.25        2982.75           1847         392.00      1695.37
 1316.28        2983.00           1850         383.00      1656.13
 1316.32        2983.25           1854         395.00      1708.45
 1316.35        2983.50           1857         389.00      1682.29
 1316.39        2983.75           1861         383.00      1656.13
 1316.42        2984.00           1864         390.00      1686.65
HS scan finished at 21:56:40
end
