************************************************************
  HS Scan of (1) Internal mercury lamp
************************************************************
Integration time is 0.2294 seconds per sample
dh170619El Arenosillo 37.1 6.73 2.96pr1000
************************************************************
Dead Time -------------------------  2.7E-08 
Number of Cycles Used -------------  4 
Starting Wavelength (Angstroms) ---  2950 
Final Wavelength (Angstoms) -------  2984 
Wavelength Increment (Angstroms) --  .25 
Filter Wheel #1 Position ---------- (1) Ground quartz diffuser (ND=2.32)
Filter Wheel #2 Position ---------- (1) Neutral Density 0.494



************************************************************
HS scan start time = 22:00:04
Dark Count =  1 


Time (GMT)  Wavelength (Ang)  Step Number  Raw Counts  Counts/Second

 1320.80        2950.00           1399         391.00      1700.17
 1320.94        2950.25           1403         373.00      1621.69
 1320.97        2950.50           1406         349.00      1517.06
 1321.01        2950.75           1410         371.00      1612.97
 1321.04        2951.00           1413         366.00      1591.18
 1321.08        2951.25           1416         385.00      1674.01
 1321.11        2951.50           1420         371.00      1612.97
 1321.15        2951.75           1423         406.00      1765.56
 1321.18        2952.00           1427         420.00      1826.59
 1321.22        2952.25           1430         412.00      1791.72
 1321.25        2952.50           1433         407.00      1769.92
 1321.29        2952.75           1437         397.00      1726.32
 1321.32        2953.00           1440         393.00      1708.88
 1321.36        2953.25           1444         411.00      1787.36
 1321.39        2953.50           1447         408.00      1774.28
 1321.43        2953.75           1450         407.00      1769.92
 1321.46        2954.00           1454         441.00      1918.15
 1321.50        2954.25           1457         422.00      1835.31
 1321.53        2954.50           1461         418.00      1817.87
 1321.57        2954.75           1464         429.00      1865.83
 1321.60        2955.00           1468         426.00      1852.75
 1321.63        2955.25           1471         459.00      1996.62
 1321.67        2955.50           1474         456.00      1983.54
 1321.70        2955.75           1478         468.00      2035.86
 1321.74        2956.00           1481         434.00      1887.63
 1321.77        2956.25           1485         448.00      1948.66
 1321.81        2956.50           1488         454.00      1974.82
 1321.84        2956.75           1491         499.00      2171.01
 1321.88        2957.00           1495         459.00      1996.62
 1321.91        2957.25           1498         505.00      2197.17
 1321.95        2957.50           1502         479.00      2083.81
 1321.98        2957.75           1505         448.00      1948.66
 1322.02        2958.00           1508         477.00      2075.09
 1322.05        2958.25           1512         489.00      2127.41
 1322.09        2958.50           1515         483.00      2101.25
 1322.12        2958.75           1519         504.00      2192.81
 1322.16        2959.00           1522         538.00      2341.04
 1322.19        2959.25           1525         531.00      2310.52
 1322.23        2959.50           1529         530.00      2306.16
 1322.26        2959.75           1532         559.00      2432.59
 1322.30        2960.00           1536         553.00      2406.43
 1322.33        2960.25           1539         574.00      2497.99
 1322.37        2960.50           1543         605.00      2633.14
 1322.40        2960.75           1546         572.00      2489.27
 1322.44        2961.00           1549         596.00      2593.90
 1322.47        2961.25           1553         707.00      3077.85
 1322.51        2961.50           1556        1339.00      5833.53
 1322.54        2961.75           1560        4042.00     17623.90
 1322.58        2962.00           1563        7976.00     34797.28
 1322.61        2962.25           1566       13333.00     58208.24
 1322.65        2962.50           1570       21975.00     96037.72
 1322.68        2962.75           1573       29451.00    128825.70
 1322.72        2963.00           1577       37323.00    163413.40
 1322.75        2963.25           1580       43557.00    190850.20
 1322.79        2963.50           1584       51052.00    223890.80
 1322.82        2963.75           1587       57950.00    254352.00
 1322.86        2964.00           1590       64868.00    284952.00
 1322.89        2964.25           1594       73966.00    325272.30
 1322.93        2964.50           1597       79490.00    349796.40
 1322.96        2964.75           1601       87629.00    385989.60
 1323.00        2965.00           1604       93129.00    410487.80
 1323.03        2965.25           1607       98349.00    433769.00
 1323.07        2965.50           1611      107120.00    472954.10
 1323.10        2965.75           1614      115288.00    509520.40
 1323.14        2966.00           1618      123498.00    546348.10
 1323.17        2966.25           1621      129657.00    574024.20
 1323.21        2966.50           1624      133320.00    590504.10
 1323.24        2966.75           1628      137207.00    608007.90
 1323.28        2967.00           1631      138609.00    614325.40
 1323.31        2967.25           1635      139127.00    616660.10
 1323.35        2967.50           1638      138953.00    615875.80
 1323.38        2967.75           1642      138651.00    614514.60
 1323.42        2968.00           1645      137799.00    610675.10
 1323.45        2968.25           1648      135016.00    598139.40
 1323.49        2968.50           1652      128241.00    567657.60
 1323.52        2968.75           1655      122830.00    543349.00
 1323.56        2969.00           1659      114570.00    506303.20
 1323.59        2969.25           1662      108848.00    480683.90
 1323.63        2969.50           1665      102482.00    452223.10
 1323.66        2969.75           1669       93869.00    413786.40
 1323.70        2970.00           1672       86421.00    380613.30
 1323.73        2970.25           1676       77174.00    339510.40
 1323.77        2970.50           1679       71007.00    312149.00
 1323.80        2970.75           1683       63176.00    277463.20
 1323.83        2971.00           1686       56823.00    249371.70
 1323.87        2971.25           1689       50596.00    221878.90
 1323.90        2971.50           1693       42861.00    187784.90
 1323.94        2971.75           1696       36536.00    159952.60
 1323.97        2972.00           1700       28877.00    126306.20
 1324.01        2972.25           1703       22391.00     97860.68
 1324.04        2972.50           1707       14685.00     64121.39
 1324.08        2972.75           1710        9013.00     39326.83
 1324.11        2973.00           1713        4549.00     19836.25
 1324.15        2973.25           1717        1713.00      7464.45
 1324.18        2973.50           1720         933.00      4063.22
 1324.22        2973.75           1724         625.00      2720.34
 1324.25        2974.00           1727         586.00      2550.31
 1324.29        2974.25           1730         590.00      2567.75
 1324.32        2974.50           1734         565.00      2458.75
 1324.36        2974.75           1737         556.00      2419.51
 1324.39        2975.00           1741         547.00      2380.28
 1324.43        2975.25           1744         538.00      2341.04
 1324.46        2975.50           1748         520.00      2262.56
 1324.50        2975.75           1751         507.00      2205.89
 1324.53        2976.00           1754         527.00      2293.08
 1324.57        2976.25           1758         510.00      2218.96
 1324.60        2976.50           1761         505.00      2197.17
 1324.64        2976.75           1765         491.00      2136.13
 1324.67        2977.00           1768         504.00      2192.81
 1324.71        2977.25           1772         469.00      2040.22
 1324.74        2977.50           1775         449.00      1953.02
 1324.78        2977.75           1778         466.00      2027.14
 1324.81        2978.00           1782         460.00      2000.98
 1324.85        2978.25           1785         418.00      1817.87
 1324.88        2978.50           1789         434.00      1887.63
 1324.92        2978.75           1792         435.00      1891.99
 1324.95        2979.00           1795         426.00      1852.75
 1324.99        2979.25           1799         421.00      1830.95
 1325.02        2979.50           1802         426.00      1852.75
 1325.06        2979.75           1806         431.00      1874.55
 1325.09        2980.00           1809         405.00      1761.20
 1325.13        2980.25           1813         393.00      1708.88
 1325.16        2980.50           1816         397.00      1726.32
 1325.20        2980.75           1819         406.00      1765.56
 1325.23        2981.00           1823         399.00      1735.04
 1325.27        2981.25           1826         396.00      1721.96
 1325.30        2981.50           1830         393.00      1708.88
 1325.34        2981.75           1833         395.00      1717.60
 1325.37        2982.00           1837         375.00      1630.41
 1325.41        2982.25           1840         373.00      1621.69
 1325.44        2982.50           1843         397.00      1726.32
 1325.48        2982.75           1847         407.00      1769.92
 1325.51        2983.00           1850         391.00      1700.17
 1325.55        2983.25           1854         356.00      1547.58
 1325.58        2983.50           1857         342.00      1486.55
 1325.62        2983.75           1861         347.00      1508.34
 1325.65        2984.00           1864         388.00      1687.09
HS scan finished at 22:05:53
end
