************************************************************
  HS Scan of (1) Internal mercury lamp
************************************************************
Integration time is 0.2294 seconds per sample
dh090619Murcia 38.0278 1.169 3.15pr1000
************************************************************
Dead Time -------------------------  2.7E-08 
Number of Cycles Used -------------  4 
Starting Wavelength (Angstroms) ---  2950 
Final Wavelength (Angstoms) -------  2984 
Wavelength Increment (Angstroms) --  .25 
Filter Wheel #1 Position ---------- (1) Ground quartz diffuser (ND=2.32)
Filter Wheel #2 Position ---------- (1) Neutral Density 0.494



************************************************************
HS scan start time = 00:54:56
Dark Count =  1.9 


Time (GMT)  Wavelength (Ang)  Step Number  Raw Counts  Counts/Second

   55.68        2950.00           1401         373.00      1617.77
   55.82        2950.25           1405         346.00      1500.06
   55.85        2950.50           1408         379.00      1643.93
   55.89        2950.75           1412         380.00      1648.29
   55.92        2951.00           1415         388.00      1683.16
   55.96        2951.25           1418         386.00      1674.44
   55.99        2951.50           1422         398.00      1726.76
   56.03        2951.75           1425         410.00      1779.07
   56.06        2952.00           1429         383.00      1661.36
   56.10        2952.25           1432         379.00      1643.93
   56.13        2952.50           1435         389.00      1687.52
   56.17        2952.75           1439         418.00      1813.95
   56.20        2953.00           1442         409.00      1774.71
   56.24        2953.25           1446         404.00      1752.92
   56.27        2953.50           1449         417.00      1809.59
   56.31        2953.75           1452         413.00      1792.15
   56.34        2954.00           1456         424.00      1840.11
   56.38        2954.25           1459         407.00      1766.00
   56.41        2954.50           1463         436.00      1892.42
   56.45        2954.75           1466         442.00      1918.58
   56.48        2955.00           1469         424.00      1840.11
   56.52        2955.25           1473         457.00      1983.98
   56.55        2955.50           1476         447.00      1940.38
   56.59        2955.75           1480         451.00      1957.82
   56.62        2956.00           1483         452.00      1962.18
   56.66        2956.25           1486         464.00      2014.49
   56.69        2956.50           1490         477.00      2071.17
   56.73        2956.75           1493         465.00      2018.85
   56.76        2957.00           1497         470.00      2040.65
   56.80        2957.25           1500         457.00      1983.98
   56.83        2957.50           1503         478.00      2075.53
   56.87        2957.75           1507         484.00      2101.69
   56.90        2958.00           1510         497.00      2158.36
   56.94        2958.25           1514         540.00      2345.83
   56.97        2958.50           1517         494.00      2145.29
   57.01        2958.75           1520         537.00      2332.75
   57.04        2959.00           1524         515.00      2236.84
   57.08        2959.25           1527         538.00      2337.11
   57.11        2959.50           1531         533.00      2315.31
   57.15        2959.75           1534         527.00      2289.16
   57.18        2960.00           1537         529.00      2297.88
   57.22        2960.25           1541         579.00      2515.86
   57.25        2960.50           1544         566.00      2459.19
   57.29        2960.75           1548         597.00      2594.34
   57.32        2961.00           1551         620.00      2694.62
   57.36        2961.25           1554         794.00      3453.24
   57.39        2961.50           1558        2080.00      9061.07
   57.43        2961.75           1561        5154.00     22472.66
   57.46        2962.00           1565       11995.00     52354.25
   57.50        2962.25           1568       18798.00     82117.80
   57.53        2962.50           1571       25012.00    109346.30
   57.57        2962.75           1575       31862.00    139408.20
   57.60        2963.00           1578       38061.00    166655.40
   57.64        2963.25           1582       47175.00    206788.20
   57.67        2963.50           1585       53306.00    233834.80
   57.71        2963.75           1588       59750.00    262305.00
   57.74        2964.00           1592       69136.00    303851.90
   57.78        2964.25           1595       76253.00    335417.60
   57.81        2964.50           1599       83094.00    365810.20
   57.85        2964.75           1602       89219.00    393064.50
   57.88        2965.00           1606       96291.00    424582.80
   57.91        2965.25           1609      101859.00    449436.20
   57.95        2965.50           1612      108767.00    480317.50
   57.99        2965.75           1616      118686.00    524749.90
   58.02        2966.00           1619      126517.00    559905.10
   58.05        2966.25           1623      133853.00    592899.20
   58.09        2966.50           1626      136911.00    606670.30
   58.12        2966.75           1629      138485.00    613762.50
   58.16        2967.00           1633      139408.00    617922.60
   58.19        2967.25           1636      140144.00    621240.60
   58.23        2967.50           1640      139486.00    618274.30
   58.26        2967.75           1643      138684.00    614659.30
   58.30        2968.00           1646      136662.00    605548.50
   58.33        2968.25           1650      132098.00    585000.50
   58.37        2968.50           1653      127331.00    563563.10
   58.40        2968.75           1657      119363.00    527786.40
   58.44        2969.00           1660      112816.00    498442.10
   58.47        2969.25           1663      106828.00    471644.20
   58.51        2969.50           1667       98075.00    432542.20
   58.54        2969.75           1670       90614.00    399277.40
   58.58        2970.00           1674       82320.00    362369.00
   58.61        2970.25           1677       75258.00    331001.20
   58.65        2970.50           1681       68171.00    299576.00
   58.68        2970.75           1684       62541.00    274649.50
   58.72        2971.00           1687       57039.00    250322.20
   58.75        2971.25           1691       48269.00    211611.50
   58.79        2971.50           1694       42105.00    184452.10
   58.82        2971.75           1698       33034.00    144556.60
   58.86        2972.00           1701       27113.00    118561.60
   58.89        2972.25           1704       20466.00     89422.71
   58.93        2972.50           1708       11153.00     48673.78
   58.96        2972.75           1711        5906.00     25755.04
   59.00        2973.00           1715        2524.00     10997.60
   59.03        2973.25           1718        1407.00      6126.12
   59.07        2973.50           1721         813.00      3536.08
   59.10        2973.75           1725         604.00      2624.86
   59.14        2974.00           1728         594.00      2581.26
   59.17        2974.25           1732         564.00      2450.47
   59.21        2974.50           1735         579.00      2515.86
   59.24        2974.75           1739         556.00      2415.59
   59.28        2975.00           1742         581.00      2524.58
   59.31        2975.25           1745         548.00      2380.71
   59.35        2975.50           1749         533.00      2315.31
   59.38        2975.75           1752         502.00      2180.16
   59.42        2976.00           1756         508.00      2206.32
   59.45        2976.25           1759         508.00      2206.32
   59.49        2976.50           1762         472.00      2049.37
   59.52        2976.75           1766         493.00      2140.93
   59.56        2977.00           1769         479.00      2079.89
   59.59        2977.25           1773         475.00      2062.45
   59.63        2977.50           1776         472.00      2049.37
   59.66        2977.75           1780         503.00      2184.52
   59.70        2978.00           1783         466.00      2023.21
   59.73        2978.25           1786         467.00      2027.57
   59.77        2978.50           1790         449.00      1949.10
   59.80        2978.75           1793         455.00      1975.26
   59.84        2979.00           1797         464.00      2014.49
   59.87        2979.25           1800         448.00      1944.74
   59.91        2979.50           1803         443.00      1922.94
   59.94        2979.75           1807         424.00      1840.11
   59.98        2980.00           1810         437.00      1896.78
   60.01        2980.25           1814         431.00      1870.63
   60.05        2980.50           1817         443.00      1922.94
   60.08        2980.75           1821         409.00      1774.71
   60.12        2981.00           1824         411.00      1783.43
   60.15        2981.25           1827         418.00      1813.95
   60.19        2981.50           1831         407.00      1766.00
   60.22        2981.75           1834         392.00      1700.60
   60.26        2982.00           1838         418.00      1813.95
   60.29        2982.25           1841         400.00      1735.48
   60.33        2982.50           1844         388.00      1683.16
   60.36        2982.75           1848         402.00      1744.20
   60.40        2983.00           1851         378.00      1639.57
   60.43        2983.25           1855         381.00      1652.65
   60.47        2983.50           1858         400.00      1735.48
   60.50        2983.75           1862         372.00      1613.41
   60.54        2984.00           1865         380.00      1648.29
HS scan finished at 01:00:46
end
