************************************************************
  HS Scan of (1) Internal mercury lamp
************************************************************
Integration time is 0.2294 seconds per sample
dh190619El Arenosillo 37.1 6.73 3.19pr1000
************************************************************
Dead Time -------------------------  2.7E-08 
Number of Cycles Used -------------  4 
Starting Wavelength (Angstroms) ---  2950 
Final Wavelength (Angstoms) -------  2984 
Wavelength Increment (Angstroms) --  .25 
Filter Wheel #1 Position ---------- (1) Ground quartz diffuser (ND=2.32)
Filter Wheel #2 Position ---------- (1) Neutral Density 0.494



************************************************************
HS scan start time = 02:23:59
Dark Count =  1.6 


Time (GMT)  Wavelength (Ang)  Step Number  Raw Counts  Counts/Second

  144.72        2950.00           1399         380.00      1649.59
  144.86        2950.25           1403         377.00      1636.52
  144.89        2950.50           1406         399.00      1732.43
  144.93        2950.75           1410         381.00      1653.95
  144.96        2951.00           1413         374.00      1623.44
  145.00        2951.25           1416         373.00      1619.08
  145.03        2951.50           1420         395.00      1714.99
  145.07        2951.75           1423         383.00      1662.67
  145.10        2952.00           1427         384.00      1667.03
  145.14        2952.25           1430         391.00      1697.55
  145.17        2952.50           1433         396.00      1719.35
  145.21        2952.75           1437         425.00      1845.78
  145.24        2953.00           1440         418.00      1815.26
  145.28        2953.25           1444         419.00      1819.62
  145.31        2953.50           1447         419.00      1819.62
  145.35        2953.75           1450         414.00      1797.82
  145.38        2954.00           1454         425.00      1845.78
  145.42        2954.25           1457         431.00      1871.93
  145.45        2954.50           1461         437.00      1898.09
  145.49        2954.75           1464         456.00      1980.93
  145.52        2955.00           1468         462.00      2007.08
  145.56        2955.25           1471         434.00      1885.01
  145.59        2955.50           1474         467.00      2028.88
  145.63        2955.75           1478         445.00      1932.97
  145.66        2956.00           1481         433.00      1880.65
  145.70        2956.25           1485         470.00      2041.96
  145.73        2956.50           1488         462.00      2007.08
  145.77        2956.75           1491         467.00      2028.88
  145.80        2957.00           1495         453.00      1967.85
  145.84        2957.25           1498         488.00      2120.44
  145.87        2957.50           1502         495.00      2150.95
  145.91        2957.75           1505         500.00      2172.75
  145.94        2958.00           1508         480.00      2085.56
  145.98        2958.25           1512         479.00      2081.20
  146.01        2958.50           1515         501.00      2177.11
  146.05        2958.75           1519         528.00      2294.82
  146.08        2959.00           1522         526.00      2286.10
  146.12        2959.25           1525         519.00      2255.59
  146.15        2959.50           1529         549.00      2386.38
  146.19        2959.75           1532         541.00      2351.50
  146.22        2960.00           1536         549.00      2386.38
  146.26        2960.25           1539         539.00      2342.78
  146.29        2960.50           1543         569.00      2473.57
  146.33        2960.75           1546         573.00      2491.01
  146.36        2961.00           1549         609.00      2647.97
  146.40        2961.25           1553         761.00      3310.67
  146.43        2961.50           1556        1485.00      6467.56
  146.47        2961.75           1560        5524.00     24088.90
  146.50        2962.00           1563       10693.00     46664.69
  146.54        2962.25           1566       16546.00     72261.18
  146.57        2962.50           1570       23875.00    104362.60
  146.61        2962.75           1573       30086.00    131610.70
  146.64        2963.00           1577       40280.00    176419.90
  146.68        2963.25           1580       48829.00    214082.20
  146.71        2963.50           1584       59115.00    259498.80
  146.75        2963.75           1587       65320.00    286950.50
  146.78        2964.00           1590       71904.00    316123.50
  146.82        2964.25           1594       78891.00    347132.90
  146.85        2964.50           1597       84118.00    370365.20
  146.88        2964.75           1601       91861.00    404834.30
  146.92        2965.00           1604       98197.00    433088.00
  146.95        2965.25           1607      104471.00    461108.00
  146.99        2965.50           1611      112151.00    495465.40
  147.02        2965.75           1614      118011.00    521724.20
  147.06        2966.00           1618      125747.00    556446.60
  147.09        2966.25           1621      131270.00    581276.60
  147.13        2966.50           1624      136462.00    604649.00
  147.16        2966.75           1628      140339.00    622121.30
  147.20        2967.00           1631      141509.00    627397.30
  147.23        2967.25           1635      141958.00    629422.40
  147.27        2967.50           1638      142258.00    630775.60
  147.30        2967.75           1642      141448.00    627122.10
  147.34        2968.00           1645      139021.00    616179.60
  147.37        2968.25           1648      135117.00    598591.50
  147.41        2968.50           1652      128727.00    569839.80
  147.44        2968.75           1655      122794.00    543184.60
  147.48        2969.00           1659      114142.00    504382.90
  147.51        2969.25           1662      107745.00    475746.80
  147.55        2969.50           1665      102002.00    450076.20
  147.58        2969.75           1669       93514.00    412201.20
  147.62        2970.00           1672       86195.00    379605.00
  147.65        2970.25           1676       78561.00    345667.10
  147.69        2970.50           1679       72580.00    319121.50
  147.72        2970.75           1683       65064.00    285817.10
  147.76        2971.00           1686       58569.00    257085.20
  147.79        2971.25           1689       52150.00    228733.50
  147.83        2971.50           1693       44944.00    196957.40
  147.86        2971.75           1696       39265.00    171953.40
  147.90        2972.00           1700       30952.00    135413.10
  147.93        2972.25           1703       24328.00    106348.50
  147.97        2972.50           1707       14826.00     64735.55
  148.00        2972.75           1710        8296.00     36192.28
  148.04        2973.00           1713        4174.00     18197.26
  148.07        2973.25           1717        1648.00      7178.38
  148.11        2973.50           1720         862.00      3751.03
  148.14        2973.75           1724         604.00      2626.17
  148.18        2974.00           1727         621.00      2700.28
  148.21        2974.25           1730         571.00      2482.29
  148.25        2974.50           1734         559.00      2429.98
  148.28        2974.75           1737         570.00      2477.93
  148.32        2975.00           1741         574.00      2495.37
  148.35        2975.25           1744         529.00      2299.18
  148.39        2975.50           1748         548.00      2382.02
  148.42        2975.75           1751         554.00      2408.18
  148.46        2976.00           1754         520.00      2259.95
  148.49        2976.25           1758         514.00      2233.79
  148.53        2976.50           1761         521.00      2264.31
  148.56        2976.75           1765         513.00      2229.43
  148.60        2977.00           1768         500.00      2172.75
  148.63        2977.25           1772         482.00      2094.28
  148.67        2977.50           1775         532.00      2312.26
  148.70        2977.75           1778         513.00      2229.43
  148.74        2978.00           1782         482.00      2094.28
  148.77        2978.25           1785         474.00      2059.40
  148.81        2978.50           1789         474.00      2059.40
  148.84        2978.75           1792         458.00      1989.64
  148.88        2979.00           1795         458.00      1989.64
  148.91        2979.25           1799         423.00      1837.06
  148.95        2979.50           1802         455.00      1976.57
  148.98        2979.75           1806         438.00      1902.45
  149.02        2980.00           1809         453.00      1967.85
  149.05        2980.25           1813         435.00      1889.37
  149.09        2980.50           1816         440.00      1911.17
  149.12        2980.75           1819         446.00      1937.33
  149.15        2981.00           1823         440.00      1911.17
  149.19        2981.25           1826         407.00      1767.30
  149.22        2981.50           1830         439.00      1906.81
  149.26        2981.75           1833         435.00      1889.37
  149.29        2982.00           1837         422.00      1832.70
  149.33        2982.25           1840         409.00      1776.02
  149.36        2982.50           1843         412.00      1789.10
  149.40        2982.75           1847         399.00      1732.43
  149.43        2983.00           1850         423.00      1837.06
  149.47        2983.25           1854         401.00      1741.15
  149.50        2983.50           1857         401.00      1741.15
  149.54        2983.75           1861         385.00      1671.39
  149.57        2984.00           1864         403.00      1749.86
HS scan finished at 02:29:49
end
************************************************************
  HS Scan of (1) Internal mercury lamp
************************************************************
Integration time is 0.2294 seconds per sample
dh190619El Arenosillo 37.1 6.73 3.11pr1000
************************************************************
Dead Time -------------------------  2.7E-08 
Number of Cycles Used -------------  4 
Starting Wavelength (Angstroms) ---  2950 
Final Wavelength (Angstoms) -------  2984 
Wavelength Increment (Angstroms) --  .25 
Filter Wheel #1 Position ---------- (1) Ground quartz diffuser (ND=2.32)
Filter Wheel #2 Position ---------- (1) Neutral Density 0.494



************************************************************
HS scan start time = 22:05:25
Dark Count =  2.6 


Time (GMT)  Wavelength (Ang)  Step Number  Raw Counts  Counts/Second

 1326.15        2950.00           1399         358.00      1549.32
 1326.29        2950.25           1403         359.00      1553.68
 1326.32        2950.50           1406         367.00      1588.56
 1326.36        2950.75           1410         375.00      1623.44
 1326.39        2951.00           1413         380.00      1645.23
 1326.43        2951.25           1416         372.00      1610.36
 1326.46        2951.50           1420         363.00      1571.12
 1326.50        2951.75           1423         375.00      1623.44
 1326.53        2952.00           1427         389.00      1684.47
 1326.57        2952.25           1430         395.00      1710.63
 1326.60        2952.50           1433         374.00      1619.08
 1326.64        2952.75           1437         414.00      1793.46
 1326.67        2953.00           1440         405.00      1754.22
 1326.71        2953.25           1444         401.00      1736.79
 1326.74        2953.50           1447         428.00      1854.50
 1326.78        2953.75           1450         411.00      1780.38
 1326.81        2954.00           1454         382.00      1653.95
 1326.85        2954.25           1457         412.00      1784.74
 1326.88        2954.50           1461         413.00      1789.10
 1326.92        2954.75           1464         422.00      1828.34
 1326.95        2955.00           1468         426.00      1845.78
 1326.98        2955.25           1471         412.00      1784.74
 1327.02        2955.50           1474         428.00      1854.50
 1327.06        2955.75           1478         430.00      1863.22
 1327.09        2956.00           1481         414.00      1793.46
 1327.12        2956.25           1485         442.00      1915.53
 1327.16        2956.50           1488         452.00      1959.13
 1327.19        2956.75           1491         450.00      1950.41
 1327.23        2957.00           1495         478.00      2072.48
 1327.26        2957.25           1498         462.00      2002.72
 1327.30        2957.50           1502         485.00      2103.00
 1327.33        2957.75           1505         481.00      2085.56
 1327.37        2958.00           1508         486.00      2107.36
 1327.40        2958.25           1512         522.00      2264.31
 1327.44        2958.50           1515         511.00      2216.35
 1327.47        2958.75           1519         489.00      2120.44
 1327.51        2959.00           1522         536.00      2325.34
 1327.54        2959.25           1525         505.00      2190.19
 1327.58        2959.50           1529         531.00      2303.54
 1327.61        2959.75           1532         530.00      2299.18
 1327.65        2960.00           1536         555.00      2408.18
 1327.68        2960.25           1539         563.00      2443.06
 1327.72        2960.50           1543         571.00      2477.93
 1327.75        2960.75           1546         577.00      2504.09
 1327.79        2961.00           1549         635.00      2756.96
 1327.82        2961.25           1553         959.00      4169.61
 1327.86        2961.50           1556        1852.00      8063.66
 1327.89        2961.75           1560        5803.00     25302.37
 1327.93        2962.00           1563       10930.00     47696.09
 1327.96        2962.25           1566       16887.00     73749.15
 1328.00        2962.50           1570       24830.00    108545.20
 1328.03        2962.75           1573       30265.00    132392.20
 1328.07        2963.00           1577       38783.00    169828.40
 1328.10        2963.25           1580       45635.00    199997.70
 1328.14        2963.50           1584       54677.00    239885.20
 1328.17        2963.75           1587       61493.00    270010.10
 1328.21        2964.00           1590       67678.00    297388.80
 1328.24        2964.25           1594       75023.00    329955.20
 1328.28        2964.50           1597       80969.00    356361.00
 1328.31        2964.75           1601       88247.00    388733.60
 1328.35        2965.00           1604       94547.00    416802.00
 1328.38        2965.25           1607      101381.00    447298.10
 1328.42        2965.50           1611      109611.00    484090.90
 1328.45        2965.75           1614      115837.00    511973.60
 1328.49        2966.00           1618      124996.00    553068.60
 1328.52        2966.25           1621      130639.00    578433.60
 1328.56        2966.50           1624      135010.00    598105.10
 1328.59        2966.75           1628      137470.00    609185.60
 1328.63        2967.00           1631      138411.00    613425.80
 1328.66        2967.25           1635      138697.00    614714.80
 1328.70        2967.50           1638      138999.00    616076.00
 1328.73        2967.75           1642      138946.00    615837.00
 1328.77        2968.00           1645      137213.00    608027.60
 1328.80        2968.25           1648      133404.00    590875.00
 1328.84        2968.50           1652      126922.00    561721.90
 1328.87        2968.75           1655      119952.00    530425.60
 1328.91        2969.00           1659      111695.00    493419.20
 1328.94        2969.25           1662      105149.00    464134.00
 1328.98        2969.50           1665       97926.00    431874.20
 1329.01        2969.75           1669       89493.00    394281.50
 1329.05        2970.00           1672       83497.00    367599.10
 1329.08        2970.25           1676       74853.00    329200.90
 1329.11        2970.50           1679       68001.00    298819.70
 1329.15        2970.75           1683       59065.00    259273.40
 1329.19        2971.00           1686       52825.00    231708.40
 1329.22        2971.25           1689       47349.00    207552.20
 1329.26        2971.50           1693       39541.00    173163.40
 1329.29        2971.75           1696       33488.00    146548.20
 1329.33        2972.00           1700       25935.00    113391.10
 1329.36        2972.25           1703       20178.00     88158.16
 1329.40        2972.50           1707       12567.00     54851.89
 1329.43        2972.75           1710        8138.00     35497.83
 1329.46        2973.00           1713        3949.00     17211.14
 1329.50        2973.25           1717        1375.00      5983.53
 1329.53        2973.50           1720         816.00      3546.11
 1329.57        2973.75           1724         608.00      2639.25
 1329.60        2974.00           1727         584.00      2534.61
 1329.64        2974.25           1730         552.00      2395.10
 1329.67        2974.50           1734         561.00      2434.34
 1329.71        2974.75           1737         557.00      2416.90
 1329.74        2975.00           1741         532.00      2307.90
 1329.78        2975.25           1744         538.00      2334.06
 1329.81        2975.50           1748         538.00      2334.06
 1329.85        2975.75           1751         542.00      2351.50
 1329.88        2976.00           1754         525.00      2277.39
 1329.92        2976.25           1758         503.00      2181.47
 1329.95        2976.50           1761         522.00      2264.31
 1329.99        2976.75           1765         493.00      2137.87
 1330.02        2977.00           1768         489.00      2120.44
 1330.06        2977.25           1772         472.00      2046.32
 1330.09        2977.50           1775         481.00      2085.56
 1330.13        2977.75           1778         467.00      2024.52
 1330.16        2978.00           1782         469.00      2033.24
 1330.20        2978.25           1785         468.00      2028.88
 1330.23        2978.50           1789         462.00      2002.72
 1330.27        2978.75           1792         454.00      1967.85
 1330.30        2979.00           1795         455.00      1972.21
 1330.34        2979.25           1799         457.00      1980.93
 1330.37        2979.50           1802         438.00      1898.09
 1330.41        2979.75           1806         442.00      1915.53
 1330.44        2980.00           1809         448.00      1941.69
 1330.48        2980.25           1813         431.00      1867.57
 1330.51        2980.50           1816         431.00      1867.57
 1330.55        2980.75           1819         415.00      1797.82
 1330.58        2981.00           1823         436.00      1889.37
 1330.62        2981.25           1826         436.00      1889.37
 1330.65        2981.50           1830         409.00      1771.66
 1330.69        2981.75           1833         402.00      1741.15
 1330.72        2982.00           1837         408.00      1767.30
 1330.76        2982.25           1840         399.00      1728.07
 1330.79        2982.50           1843         391.00      1693.19
 1330.83        2982.75           1847         403.00      1745.51
 1330.86        2983.00           1850         394.00      1706.27
 1330.90        2983.25           1854         408.00      1767.30
 1330.93        2983.50           1857         406.00      1758.58
 1330.97        2983.75           1861         370.00      1601.64
 1331.00        2984.00           1864         381.00      1649.59
HS scan finished at 22:11:14
end
