************************************************************
  HS Scan of (1) Internal mercury lamp
************************************************************
Integration time is 0.2294 seconds per sample
dh230619El Arenosillo 37.1 6.73 3pr1000
************************************************************
Dead Time -------------------------  2.7E-08 
Number of Cycles Used -------------  4 
Starting Wavelength (Angstroms) ---  2950 
Final Wavelength (Angstoms) -------  2984 
Wavelength Increment (Angstroms) --  .25 
Filter Wheel #1 Position ---------- (1) Ground quartz diffuser (ND=2.32)
Filter Wheel #2 Position ---------- (1) Neutral Density 0.494



************************************************************
HS scan start time = 01:15:50
Dark Count =  2 


Time (GMT)  Wavelength (Ang)  Step Number  Raw Counts  Counts/Second

   76.57        2950.00           1399         395.00      1713.24
   76.71        2950.25           1403         430.00      1865.83
   76.75        2950.50           1406         414.00      1796.08
   76.78        2950.75           1410         435.00      1887.63
   76.82        2951.00           1413         404.00      1752.48
   76.85        2951.25           1416         434.00      1883.27
   76.89        2951.50           1420         409.00      1774.28
   76.92        2951.75           1423         411.00      1783.00
   76.96        2952.00           1427         412.00      1787.36
   76.99        2952.25           1430         435.00      1887.63
   77.03        2952.50           1433         422.00      1830.95
   77.06        2952.75           1437         442.00      1918.15
   77.10        2953.00           1440         437.00      1896.35
   77.13        2953.25           1444         455.00      1974.82
   77.17        2953.50           1447         453.00      1966.10
   77.20        2953.75           1450         449.00      1948.66
   77.24        2954.00           1454         474.00      2057.66
   77.27        2954.25           1457         448.00      1944.30
   77.31        2954.50           1461         474.00      2057.66
   77.34        2954.75           1464         462.00      2005.34
   77.38        2955.00           1468         467.00      2027.14
   77.41        2955.25           1471         535.00      2323.60
   77.45        2955.50           1474         477.00      2070.73
   77.48        2955.75           1478         521.00      2262.56
   77.52        2956.00           1481         482.00      2092.53
   77.55        2956.25           1485         517.00      2245.12
   77.59        2956.50           1488         504.00      2188.45
   77.62        2956.75           1491         542.00      2354.12
   77.66        2957.00           1495         509.00      2210.25
   77.69        2957.25           1498         522.00      2266.92
   77.73        2957.50           1502         558.00      2423.87
   77.76        2957.75           1505         523.00      2271.28
   77.80        2958.00           1508         555.00      2410.79
   77.83        2958.25           1512         533.00      2314.88
   77.87        2958.50           1515         549.00      2384.63
   77.90        2958.75           1519         575.00      2497.99
   77.94        2959.00           1522         589.00      2559.03
   77.97        2959.25           1525         568.00      2467.47
   78.01        2959.50           1529         577.00      2506.71
   78.04        2959.75           1532         578.00      2511.07
   78.08        2960.00           1536         600.00      2606.98
   78.11        2960.25           1539         612.00      2659.30
   78.15        2960.50           1543         644.00      2798.82
   78.18        2960.75           1546         650.00      2824.98
   78.22        2961.00           1549         658.00      2859.85
   78.25        2961.25           1553         768.00      3339.45
   78.29        2961.50           1556        1449.00      6308.83
   78.32        2961.75           1560        4510.00     19661.70
   78.36        2962.00           1563        7931.00     34596.38
   78.39        2962.25           1566       13789.00     60198.02
   78.43        2962.50           1570       22462.00     98167.44
   78.46        2962.75           1573       28786.00    125902.40
   78.49        2963.00           1577       37177.00    162766.90
   78.53        2963.25           1580       43968.00    192656.10
   78.56        2963.50           1584       52519.00    230360.30
   78.60        2963.75           1587       59834.00    262675.90
   78.63        2964.00           1590       67311.00    295765.80
   78.67        2964.25           1594       79380.00    349303.30
   78.70        2964.50           1597       87622.00    385954.00
   78.74        2964.75           1601       96398.00    425059.60
   78.77        2965.00           1604      102734.00    453344.40
   78.81        2965.25           1607      108622.00    479668.30
   78.84        2965.50           1611      116594.00    515369.30
   78.88        2965.75           1614      123712.00    547304.60
   78.91        2966.00           1618      133884.00    593038.30
   78.95        2966.25           1621      140620.00    623386.40
   78.98        2966.50           1624      146062.00    647941.20
   79.02        2966.75           1628      150698.00    668885.30
   79.05        2967.00           1631      151921.00    674414.40
   79.09        2967.25           1635      152829.00    678520.50
   79.12        2967.50           1638      152661.00    677760.80
   79.16        2967.75           1642      152716.00    678009.50
   79.19        2968.00           1645      151935.00    674477.80
   79.23        2968.25           1648      148955.00    661008.10
   79.26        2968.50           1652      142624.00    632424.80
   79.30        2968.75           1655      136305.00    603940.00
   79.33        2969.00           1659      128415.00    568435.30
   79.37        2969.25           1662      122123.00    540170.60
   79.40        2969.50           1665      113697.00    502387.70
   79.44        2969.75           1669      105363.00    465093.40
   79.47        2970.00           1672       98431.00    434130.50
   79.51        2970.25           1676       87505.00    385433.20
   79.54        2970.50           1679       80930.00    356190.30
   79.58        2970.75           1683       72550.00    318986.60
   79.61        2971.00           1686       67465.00    296447.90
   79.65        2971.25           1689       59912.00    263020.80
   79.68        2971.50           1693       49267.00    216012.10
   79.72        2971.75           1696       42412.00    185803.40
   79.75        2972.00           1700       34506.00    151024.40
   79.79        2972.25           1703       27516.00    120329.30
   79.82        2972.50           1707       18402.00     80383.52
   79.86        2972.75           1710       12375.00     54015.08
   79.89        2973.00           1713        7041.00     30709.85
   79.93        2973.25           1717        3001.00     13077.85
   79.96        2973.50           1720        1640.00      7141.74
   80.00        2973.75           1724         839.00      3649.01
   80.03        2974.00           1727         687.00      2986.29
   80.07        2974.25           1730         669.00      2907.81
   80.10        2974.50           1734         640.00      2781.38
   80.14        2974.75           1737         614.00      2668.02
   80.17        2975.00           1741         630.00      2737.78
   80.21        2975.25           1744         613.00      2663.66
   80.24        2975.50           1748         580.00      2519.79
   80.28        2975.75           1751         582.00      2528.51
   80.31        2976.00           1754         595.00      2585.19
   80.35        2976.25           1758         582.00      2528.51
   80.38        2976.50           1761         579.00      2515.43
   80.42        2976.75           1765         566.00      2458.75
   80.45        2977.00           1768         553.00      2402.07
   80.49        2977.25           1772         528.00      2293.08
   80.52        2977.50           1775         539.00      2341.04
   80.56        2977.75           1778         527.00      2288.72
   80.59        2978.00           1782         532.00      2310.52
   80.63        2978.25           1785         556.00      2415.15
   80.66        2978.50           1789         518.00      2249.48
   80.69        2978.75           1792         504.00      2188.45
   80.73        2979.00           1795         525.00      2280.00
   80.76        2979.25           1799         494.00      2144.85
   80.80        2979.50           1802         522.00      2266.92
   80.83        2979.75           1806         529.00      2297.44
   80.87        2980.00           1809         481.00      2088.17
   80.90        2980.25           1813         477.00      2070.73
   80.94        2980.50           1816         479.00      2079.45
   80.97        2980.75           1819         525.00      2280.00
   81.01        2981.00           1823         463.00      2009.70
   81.04        2981.25           1826         462.00      2005.34
   81.08        2981.50           1830         467.00      2027.14
   81.11        2981.75           1833         457.00      1983.54
   81.15        2982.00           1837         429.00      1861.47
   81.18        2982.25           1840         455.00      1974.82
   81.22        2982.50           1843         451.00      1957.38
   81.25        2982.75           1847         449.00      1948.66
   81.29        2983.00           1850         422.00      1830.95
   81.32        2983.25           1854         429.00      1861.47
   81.36        2983.50           1857         447.00      1939.94
   81.39        2983.75           1861         418.00      1813.52
   81.43        2984.00           1864         430.00      1865.83
HS scan finished at 01:21:40
end
************************************************************
  HS Scan of (1) Internal mercury lamp
************************************************************
Integration time is 0.2294 seconds per sample
dh230619El Arenosillo 37.1 6.73 3.07pr1000
************************************************************
Dead Time -------------------------  2.7E-08 
Number of Cycles Used -------------  4 
Starting Wavelength (Angstroms) ---  2950 
Final Wavelength (Angstoms) -------  2984 
Wavelength Increment (Angstroms) --  .25 
Filter Wheel #1 Position ---------- (1) Ground quartz diffuser (ND=2.32)
Filter Wheel #2 Position ---------- (1) Neutral Density 0.494



************************************************************
HS scan start time = 02:19:42
Dark Count =  2.1 


Time (GMT)  Wavelength (Ang)  Step Number  Raw Counts  Counts/Second

  140.44        2950.00           1399         385.00      1669.21
  140.58        2950.25           1403         424.00      1839.24
  140.61        2950.50           1406         397.00      1721.53
  140.65        2950.75           1410         392.00      1699.73
  140.68        2951.00           1413         384.00      1664.85
  140.72        2951.25           1416         424.00      1839.24
  140.75        2951.50           1420         428.00      1856.68
  140.79        2951.75           1423         404.00      1752.04
  140.82        2952.00           1427         448.00      1943.87
  140.86        2952.25           1430         421.00      1826.16
  140.89        2952.50           1433         437.00      1895.91
  140.93        2952.75           1437         429.00      1861.04
  140.96        2953.00           1440         414.00      1795.64
  141.00        2953.25           1444         411.00      1782.56
  141.03        2953.50           1447         439.00      1904.63
  141.07        2953.75           1450         455.00      1974.39
  141.10        2954.00           1454         433.00      1878.47
  141.14        2954.25           1457         446.00      1935.15
  141.17        2954.50           1461         479.00      2079.02
  141.21        2954.75           1464         482.00      2092.10
  141.24        2955.00           1468         496.00      2153.13
  141.28        2955.25           1471         460.00      1996.18
  141.31        2955.50           1474         484.00      2100.82
  141.35        2955.75           1478         472.00      2048.50
  141.38        2956.00           1481         486.00      2109.54
  141.42        2956.25           1485         499.00      2166.21
  141.45        2956.50           1488         508.00      2205.45
  141.49        2956.75           1491         510.00      2214.17
  141.52        2957.00           1495         519.00      2253.41
  141.56        2957.25           1498         501.00      2174.93
  141.59        2957.50           1502         531.00      2305.72
  141.63        2957.75           1505         544.00      2362.40
  141.66        2958.00           1508         560.00      2432.16
  141.70        2958.25           1512         568.00      2467.03
  141.73        2958.50           1515         527.00      2288.28
  141.77        2958.75           1519         574.00      2493.19
  141.80        2959.00           1522         554.00      2406.00
  141.84        2959.25           1525         554.00      2406.00
  141.87        2959.50           1529         610.00      2650.15
  141.91        2959.75           1532         576.00      2501.91
  141.94        2960.00           1536         587.00      2549.87
  141.98        2960.25           1539         613.00      2663.23
  142.01        2960.50           1543         651.00      2828.90
  142.05        2960.75           1546         647.00      2811.46
  142.08        2961.00           1549         631.00      2741.70
  142.11        2961.25           1553         868.00      3775.01
  142.15        2961.50           1556        1681.00      7320.10
  142.18        2961.75           1560        4754.00     20726.07
  142.22        2962.00           1563        9349.00     40789.89
  142.25        2962.25           1566       15395.00     67222.60
  142.29        2962.50           1570       24418.00    106740.90
  142.32        2962.75           1573       30872.00    135059.60
  142.36        2963.00           1577       39327.00    172224.00
  142.39        2963.25           1580       45730.00    200418.60
  142.43        2963.50           1584       56322.00    247153.40
  142.46        2963.75           1587       65018.00    285611.20
  142.50        2964.00           1590       72982.00    320902.30
  142.53        2964.25           1594       81630.00    359301.00
  142.57        2964.50           1597       87996.00    387618.40
  142.60        2964.75           1601       95869.00    422699.60
  142.64        2965.00           1604      103149.00    455198.10
  142.67        2965.25           1607      110464.00    487910.70
  142.71        2965.50           1611      118607.00    524394.60
  142.74        2965.75           1614      125573.00    555662.80
  142.78        2966.00           1618      133985.00    593492.50
  142.81        2966.25           1621      139062.00    616362.10
  142.85        2966.50           1624      145242.00    644238.80
  142.88        2966.75           1628      149513.00    663529.10
  142.92        2967.00           1631      151019.00    670336.00
  142.95        2967.25           1635      151014.00    670313.30
  142.99        2967.50           1638      151372.00    671931.80
  143.02        2967.75           1642      151728.00    673541.30
  143.06        2968.00           1645      149953.00    665517.60
  143.09        2968.25           1648      147435.00    654141.10
  143.13        2968.50           1652      140290.00    621898.00
  143.16        2968.75           1655      135016.00    598134.50
  143.20        2969.00           1659      126333.00    559077.30
  143.23        2969.25           1662      118385.00    523399.10
  143.27        2969.50           1665      110335.00    487333.30
  143.30        2969.75           1669      100661.00    444085.00
  143.34        2970.00           1672       94312.00    415756.50
  143.37        2970.25           1676       86418.00    380595.00
  143.41        2970.50           1679       80642.00    354910.00
  143.44        2970.75           1683       70765.00    311071.20
  143.48        2971.00           1686       63675.00    279666.60
  143.51        2971.25           1689       55879.00    245196.40
  143.55        2971.50           1693       45987.00    201551.10
  143.58        2971.75           1696       38968.00    170644.50
  143.62        2972.00           1700       30849.00    134958.60
  143.65        2972.25           1703       24808.00    108450.90
  143.69        2972.50           1707       16913.00     73865.13
  143.72        2972.75           1710       10669.00     46557.63
  143.76        2973.00           1713        6079.00     26509.38
  143.79        2973.25           1717        2391.00     10416.62
  143.83        2973.50           1720        1185.00      5157.21
  143.86        2973.75           1724         695.00      3020.73
  143.90        2974.00           1727         686.00      2981.50
  143.93        2974.25           1730         651.00      2828.90
  143.97        2974.50           1734         663.00      2881.22
  144.00        2974.75           1737         611.00      2654.51
  144.04        2975.00           1741         604.00      2623.99
  144.07        2975.25           1744         607.00      2637.07
  144.11        2975.50           1748         595.00      2584.75
  144.14        2975.75           1751         576.00      2501.91
  144.18        2976.00           1754         565.00      2453.96
  144.21        2976.25           1758         586.00      2545.51
  144.25        2976.50           1761         570.00      2475.75
  144.28        2976.75           1765         562.00      2440.88
  144.31        2977.00           1768         555.00      2410.36
  144.35        2977.25           1772         552.00      2397.28
  144.38        2977.50           1775         561.00      2436.52
  144.42        2977.75           1778         532.00      2310.08
  144.45        2978.00           1782         508.00      2205.45
  144.49        2978.25           1785         532.00      2310.08
  144.52        2978.50           1789         510.00      2214.17
  144.56        2978.75           1792         511.00      2218.53
  144.59        2979.00           1795         489.00      2122.62
  144.63        2979.25           1799         520.00      2257.77
  144.66        2979.50           1802         503.00      2183.65
  144.70        2979.75           1806         493.00      2140.05
  144.73        2980.00           1809         479.00      2079.02
  144.77        2980.25           1813         487.00      2113.90
  144.80        2980.50           1816         475.00      2061.58
  144.84        2980.75           1819         465.00      2017.98
  144.87        2981.00           1823         435.00      1887.19
  144.91        2981.25           1826         450.00      1952.59
  144.94        2981.50           1830         448.00      1943.87
  144.98        2981.75           1833         467.00      2026.70
  145.01        2982.00           1837         441.00      1913.35
  145.05        2982.25           1840         439.00      1904.63
  145.08        2982.50           1843         415.00      1800.00
  145.12        2982.75           1847         439.00      1904.63
  145.15        2983.00           1850         426.00      1847.96
  145.19        2983.25           1854         424.00      1839.24
  145.22        2983.50           1857         436.00      1891.55
  145.26        2983.75           1861         416.00      1804.36
  145.29        2984.00           1864         395.00      1712.81
HS scan finished at 02:25:32
end
************************************************************
  HS Scan of (1) Internal mercury lamp
************************************************************
Integration time is 0.2294 seconds per sample
dh230619El Arenosillo 37.1 6.73 3.15pr1000
************************************************************
Dead Time -------------------------  2.7E-08 
Number of Cycles Used -------------  4 
Starting Wavelength (Angstroms) ---  2950 
Final Wavelength (Angstoms) -------  2984 
Wavelength Increment (Angstroms) --  .25 
Filter Wheel #1 Position ---------- (1) Ground quartz diffuser (ND=2.32)
Filter Wheel #2 Position ---------- (1) Neutral Density 0.494



************************************************************
HS scan start time = 21:46:01
Dark Count =  3.4 


Time (GMT)  Wavelength (Ang)  Step Number  Raw Counts  Counts/Second

 1306.75        2950.00           1399         412.00      1781.25
 1306.89        2950.25           1403         441.00      1907.68
 1306.93        2950.50           1406         431.00      1864.09
 1306.96        2950.75           1410         409.00      1768.18
 1307.00        2951.00           1413         435.00      1881.53
 1307.03        2951.25           1416         435.00      1881.53
 1307.07        2951.50           1420         432.00      1868.45
 1307.10        2951.75           1423         458.00      1981.80
 1307.13        2952.00           1427         456.00      1973.08
 1307.17        2952.25           1430         457.00      1977.44
 1307.21        2952.50           1433         476.00      2060.27
 1307.24        2952.75           1437         475.00      2055.91
 1307.27        2953.00           1440         465.00      2012.32
 1307.31        2953.25           1444         493.00      2134.39
 1307.34        2953.50           1447         473.00      2047.19
 1307.38        2953.75           1450         483.00      2090.79
 1307.41        2954.00           1454         484.00      2095.15
 1307.45        2954.25           1457         494.00      2138.75
 1307.48        2954.50           1461         475.00      2055.91
 1307.52        2954.75           1464         499.00      2160.54
 1307.55        2955.00           1468         502.00      2173.62
 1307.59        2955.25           1471         508.00      2199.78
 1307.62        2955.50           1474         509.00      2204.14
 1307.66        2955.75           1478         545.00      2361.09
 1307.69        2956.00           1481         553.00      2395.97
 1307.73        2956.25           1485         532.00      2304.42
 1307.76        2956.50           1488         529.00      2291.34
 1307.80        2956.75           1491         534.00      2313.14
 1307.83        2957.00           1495         541.00      2343.65
 1307.87        2957.25           1498         554.00      2400.33
 1307.90        2957.50           1502         552.00      2391.61
 1307.94        2957.75           1505         599.00      2596.52
 1307.97        2958.00           1508         572.00      2478.81
 1308.01        2958.25           1512         559.00      2422.13
 1308.04        2958.50           1515         582.00      2522.40
 1308.08        2958.75           1519         604.00      2618.32
 1308.11        2959.00           1522         592.00      2566.00
 1308.15        2959.25           1525         606.00      2627.04
 1308.18        2959.50           1529         641.00      2779.63
 1308.22        2959.75           1532         621.00      2692.44
 1308.25        2960.00           1536         601.00      2605.24
 1308.29        2960.25           1539         638.00      2766.55
 1308.32        2960.50           1543         650.00      2818.87
 1308.36        2960.75           1546         663.00      2875.55
 1308.39        2961.00           1549         712.00      3089.19
 1308.43        2961.25           1553         987.00      4288.20
 1308.46        2961.50           1556        2184.00      9508.11
 1308.50        2961.75           1560        5969.00     26023.51
 1308.53        2962.00           1563        9854.00     42990.59
 1308.57        2962.25           1566       15286.00     66740.03
 1308.60        2962.50           1570       23962.00    104736.00
 1308.64        2962.75           1573       30834.00    134887.10
 1308.67        2963.00           1577       41204.00    180478.90
 1308.71        2963.25           1580       48597.00    213051.20
 1308.74        2963.50           1584       57481.00    252268.70
 1308.78        2963.75           1587       65680.00    288536.50
 1308.81        2964.00           1590       74006.00    325439.10
 1308.85        2964.25           1594       84717.00    373021.40
 1308.88        2964.50           1597       92023.00    405548.10
 1308.92        2964.75           1601      100427.00    443034.30
 1308.95        2965.00           1604      106448.00    469938.20
 1308.99        2965.25           1607      113002.00    499268.40
 1309.02        2965.50           1611      122103.00    540074.60
 1309.06        2965.75           1614      129096.00    571490.80
 1309.09        2966.00           1618      139150.00    616752.90
 1309.13        2966.25           1621      146942.00    651908.60
 1309.16        2966.50           1624      153348.00    680861.50
 1309.20        2966.75           1628      157798.00    701001.00
 1309.23        2967.00           1631      159640.00    709343.80
 1309.27        2967.25           1635      160600.00    713693.50
 1309.30        2967.50           1638      160759.00    714413.80
 1309.34        2967.75           1642      161013.00    715564.90
 1309.37        2968.00           1645      159971.00    710843.50
 1309.41        2968.25           1648      157645.00    700308.30
 1309.44        2968.50           1652      149861.00    665095.90
 1309.48        2968.75           1655      143765.00    637566.60
 1309.51        2969.00           1659      135418.00    599938.80
 1309.55        2969.25           1662      128824.00    570267.80
 1309.58        2969.50           1665      122344.00    541156.50
 1309.61        2969.75           1669      113007.00    499290.80
 1309.65        2970.00           1672      104852.00    462802.90
 1309.69        2970.25           1676       93677.00    412919.80
 1309.72        2970.50           1679       86380.00    380420.10
 1309.75        2970.75           1683       77854.00    342519.20
 1309.79        2971.00           1686       69502.00    305467.20
 1309.82        2971.25           1689       60336.00    264889.50
 1309.86        2971.50           1693       50906.00    223236.00
 1309.89        2971.75           1696       43223.00    189368.60
 1309.93        2972.00           1700       32995.00    144378.60
 1309.96        2972.25           1703       26655.00    116545.80
 1310.00        2972.50           1707       18744.00     81874.78
 1310.03        2972.75           1710       13010.00     56785.34
 1310.07        2973.00           1713        7250.00     31616.35
 1310.10        2973.25           1717        2945.00     12827.46
 1310.14        2973.50           1720        1423.00      6189.35
 1310.17        2973.75           1724         770.00      3342.06
 1310.21        2974.00           1727         707.00      3067.39
 1310.24        2974.25           1730         707.00      3067.39
 1310.28        2974.50           1734         676.00      2932.23
 1310.31        2974.75           1737         670.00      2906.07
 1310.35        2975.00           1741         661.00      2866.83
 1310.38        2975.25           1744         643.00      2788.35
 1310.42        2975.50           1748         606.00      2627.04
 1310.45        2975.75           1751         635.00      2753.47
 1310.49        2976.00           1754         601.00      2605.24
 1310.52        2976.25           1758         614.00      2661.92
 1310.56        2976.50           1761         586.00      2539.84
 1310.59        2976.75           1765         584.00      2531.12
 1310.63        2977.00           1768         582.00      2522.40
 1310.66        2977.25           1772         602.00      2609.60
 1310.70        2977.50           1775         567.00      2457.01
 1310.73        2977.75           1778         570.00      2470.09
 1310.77        2978.00           1782         527.00      2282.62
 1310.80        2978.25           1785         574.00      2487.53
 1310.84        2978.50           1789         537.00      2326.21
 1310.87        2978.75           1792         532.00      2304.42
 1310.91        2979.00           1795         539.00      2334.93
 1310.94        2979.25           1799         557.00      2413.41
 1310.98        2979.50           1802         522.00      2260.82
 1311.01        2979.75           1806         523.00      2265.18
 1311.05        2980.00           1809         524.00      2269.54
 1311.08        2980.25           1813         524.00      2269.54
 1311.12        2980.50           1816         520.00      2252.10
 1311.15        2980.75           1819         487.00      2108.23
 1311.19        2981.00           1823         513.00      2221.58
 1311.22        2981.25           1826         483.00      2090.79
 1311.26        2981.50           1830         477.00      2064.63
 1311.29        2981.75           1833         521.00      2256.46
 1311.33        2982.00           1837         473.00      2047.19
 1311.36        2982.25           1840         478.00      2068.99
 1311.40        2982.50           1843         489.00      2116.95
 1311.43        2982.75           1847         441.00      1907.68
 1311.47        2983.00           1850         459.00      1986.16
 1311.50        2983.25           1854         453.00      1960.00
 1311.54        2983.50           1857         454.00      1964.36
 1311.57        2983.75           1861         450.00      1946.92
 1311.61        2984.00           1864         467.00      2021.03
HS scan finished at 21:51:51
end
