************************************************************
  HS Scan of (1) Internal mercury lamp
************************************************************
Integration time is 0.2294 seconds per sample
dh220619El Arenosillo 37.1 6.73 3.25pr1000
************************************************************
Dead Time -------------------------  2.7E-08 
Number of Cycles Used -------------  4 
Starting Wavelength (Angstroms) ---  2950 
Final Wavelength (Angstoms) -------  2984 
Wavelength Increment (Angstroms) --  .25 
Filter Wheel #1 Position ---------- (1) Ground quartz diffuser (ND=2.32)
Filter Wheel #2 Position ---------- (1) Neutral Density 0.494



************************************************************
HS scan start time = 02:18:52
Dark Count =  4.4 


Time (GMT)  Wavelength (Ang)  Step Number  Raw Counts  Counts/Second

  139.60        2950.00           1399         433.00      1868.45
  139.74        2950.25           1403         419.00      1807.41
  139.78        2950.50           1406         430.00      1855.37
  139.81        2950.75           1410         415.00      1789.97
  139.85        2951.00           1413         434.00      1872.81
  139.88        2951.25           1416         463.00      1999.24
  139.92        2951.50           1420         430.00      1855.37
  139.95        2951.75           1423         460.00      1986.16
  139.99        2952.00           1427         458.00      1977.44
  140.02        2952.25           1430         463.00      1999.24
  140.06        2952.50           1433         457.00      1973.08
  140.09        2952.75           1437         461.00      1990.52
  140.13        2953.00           1440         472.00      2038.47
  140.16        2953.25           1444         514.00      2221.58
  140.20        2953.50           1447         472.00      2038.47
  140.23        2953.75           1450         506.00      2186.70
  140.27        2954.00           1454         481.00      2077.71
  140.30        2954.25           1457         491.00      2121.31
  140.34        2954.50           1461         491.00      2121.31
  140.37        2954.75           1464         519.00      2243.38
  140.41        2955.00           1468         549.00      2374.17
  140.44        2955.25           1471         520.00      2247.74
  140.48        2955.50           1474         538.00      2326.21
  140.51        2955.75           1478         528.00      2282.62
  140.54        2956.00           1481         520.00      2247.74
  140.58        2956.25           1485         526.00      2273.90
  140.62        2956.50           1488         520.00      2247.74
  140.65        2956.75           1491         525.00      2269.54
  140.68        2957.00           1495         534.00      2308.78
  140.72        2957.25           1498         545.00      2356.73
  140.75        2957.50           1502         560.00      2422.13
  140.79        2957.75           1505         583.00      2522.40
  140.82        2958.00           1508         581.00      2513.68
  140.86        2958.25           1512         568.00      2457.01
  140.89        2958.50           1515         606.00      2622.68
  140.93        2958.75           1519         586.00      2535.48
  140.96        2959.00           1522         589.00      2548.56
  141.00        2959.25           1525         628.00      2718.60
  141.03        2959.50           1529         602.00      2605.24
  141.07        2959.75           1532         633.00      2740.39
  141.10        2960.00           1536         619.00      2679.36
  141.14        2960.25           1539         652.00      2823.23
  141.17        2960.50           1543         658.00      2849.39
  141.21        2960.75           1546         686.00      2971.47
  141.24        2961.00           1549         686.00      2971.47
  141.28        2961.25           1553         939.00      4074.55
  141.31        2961.50           1556        2097.00      9124.31
  141.35        2961.75           1560        6935.00     30236.53
  141.38        2962.00           1563       13296.00     58031.57
  141.42        2962.25           1566       21147.00     92394.99
  141.45        2962.50           1570       30739.00    134465.50
  141.49        2962.75           1573       37080.00    162329.80
  141.52        2963.00           1577       45831.00    200853.50
  141.56        2963.25           1580       51554.00    226090.90
  141.59        2963.50           1584       61680.00    270829.40
  141.63        2963.75           1587       69632.00    306038.90
  141.66        2964.00           1590       77997.00    343149.80
  141.70        2964.25           1594       87509.00    385440.30
  141.73        2964.50           1597       94025.00    414466.70
  141.77        2964.75           1601      103114.00    455031.40
  141.80        2965.00           1604      110299.00    487161.90
  141.84        2965.25           1607      117086.00    517564.20
  141.87        2965.50           1611      126851.00    561394.70
  141.91        2965.75           1614      135101.00    598506.80
  141.94        2966.00           1618      143580.00    636727.30
  141.98        2966.25           1621      149627.00    664033.80
  142.01        2966.50           1624      154748.00    687190.60
  142.05        2966.75           1628      159533.00    708854.50
  142.08        2967.00           1631      161778.00    719027.50
  142.12        2967.25           1635      162524.00    722409.10
  142.15        2967.50           1638      162542.00    722490.80
  142.19        2967.75           1642      161530.00    717903.50
  142.22        2968.00           1645      159237.00    707513.70
  142.26        2968.25           1648      154649.00    686742.80
  142.29        2968.50           1652      147074.00    652500.30
  142.33        2968.75           1655      142350.00    631177.90
  142.36        2969.00           1659      134716.00    596773.10
  142.40        2969.25           1662      127877.00    566006.10
  142.43        2969.50           1665      120567.00    533176.80
  142.47        2969.75           1669      111639.00    493160.40
  142.50        2970.00           1672      104820.00    462655.40
  142.54        2970.25           1676       94934.00    418519.60
  142.57        2970.50           1679       87273.00    384389.90
  142.61        2970.75           1683       76698.00    337382.00
  142.64        2971.00           1686       66608.00    292641.50
  142.67        2971.25           1689       57984.00    254487.20
  142.71        2971.50           1693       48123.00    210956.70
  142.75        2971.75           1696       40651.00    178040.40
  142.78        2972.00           1700       31956.00    139810.10
  142.81        2972.25           1703       25556.00    111721.00
  142.85        2972.50           1707       16990.00     74192.07
  142.88        2972.75           1710        9471.00     41312.84
  142.92        2973.00           1713        4615.00     20109.44
  142.95        2973.25           1717        1928.00      8387.25
  142.99        2973.50           1720        1065.00      4623.94
  143.02        2973.75           1724         722.00      3128.42
  143.06        2974.00           1727         743.00      3219.98
  143.09        2974.25           1730         700.00      3032.51
  143.13        2974.50           1734         648.00      2805.79
  143.16        2974.75           1737         646.00      2797.07
  143.20        2975.00           1741         630.00      2727.32
  143.23        2975.25           1744         622.00      2692.44
  143.27        2975.50           1748         648.00      2805.79
  143.30        2975.75           1751         614.00      2657.56
  143.34        2976.00           1754         614.00      2657.56
  143.37        2976.25           1758         592.00      2561.64
  143.41        2976.50           1761         608.00      2631.40
  143.44        2976.75           1765         583.00      2522.40
  143.48        2977.00           1768         574.00      2483.17
  143.51        2977.25           1772         565.00      2443.93
  143.55        2977.50           1775         557.00      2409.05
  143.58        2977.75           1778         571.00      2470.09
  143.62        2978.00           1782         572.00      2474.45
  143.65        2978.25           1785         531.00      2295.70
  143.69        2978.50           1789         535.00      2313.14
  143.72        2978.75           1792         539.00      2330.57
  143.76        2979.00           1795         558.00      2413.41
  143.79        2979.25           1799         537.00      2321.85
  143.83        2979.50           1802         534.00      2308.78
  143.86        2979.75           1806         540.00      2334.93
  143.90        2980.00           1809         522.00      2256.46
  143.93        2980.25           1813         519.00      2243.38
  143.97        2980.50           1816         509.00      2199.78
  144.00        2980.75           1819         500.00      2160.54
  144.04        2981.00           1823         494.00      2134.39
  144.07        2981.25           1826         493.00      2130.03
  144.11        2981.50           1830         503.00      2173.62
  144.14        2981.75           1833         483.00      2086.43
  144.18        2982.00           1837         485.00      2095.15
  144.21        2982.25           1840         469.00      2025.39
  144.25        2982.50           1843         460.00      1986.16
  144.28        2982.75           1847         449.00      1938.20
  144.32        2983.00           1850         441.00      1903.32
  144.35        2983.25           1854         448.00      1933.84
  144.39        2983.50           1857         460.00      1986.16
  144.42        2983.75           1861         443.00      1912.04
  144.46        2984.00           1864         441.00      1903.32
HS scan finished at 02:24:42
end
