************************************************************
  HS Scan of (1) Internal mercury lamp
************************************************************
Integration time is 0.2294 seconds per sample
dh210619El Arenosillo 37.1 6.73 3.25pr1000
************************************************************
Dead Time -------------------------  2.7E-08 
Number of Cycles Used -------------  4 
Starting Wavelength (Angstroms) ---  2950 
Final Wavelength (Angstoms) -------  2984 
Wavelength Increment (Angstroms) --  .25 
Filter Wheel #1 Position ---------- (1) Ground quartz diffuser (ND=2.32)
Filter Wheel #2 Position ---------- (1) Neutral Density 0.494



************************************************************
HS scan start time = 21:45:01
Dark Count =  4.5 


Time (GMT)  Wavelength (Ang)  Step Number  Raw Counts  Counts/Second

 1305.75        2950.00           1399         394.00      1697.99
 1305.89        2950.25           1403         406.00      1750.30
 1305.93        2950.50           1406         445.00      1920.33
 1305.96        2950.75           1410         421.00      1815.70
 1306.00        2951.00           1413         427.00      1841.85
 1306.03        2951.25           1416         401.00      1728.50
 1306.07        2951.50           1420         436.00      1881.09
 1306.10        2951.75           1423         415.00      1789.54
 1306.14        2952.00           1427         432.00      1863.65
 1306.17        2952.25           1430         432.00      1863.65
 1306.21        2952.50           1433         452.00      1950.84
 1306.24        2952.75           1437         466.00      2011.88
 1306.28        2953.00           1440         432.00      1863.65
 1306.31        2953.25           1444         446.00      1924.69
 1306.35        2953.50           1447         446.00      1924.69
 1306.38        2953.75           1450         457.00      1972.64
 1306.42        2954.00           1454         457.00      1972.64
 1306.45        2954.25           1457         457.00      1972.64
 1306.49        2954.50           1461         475.00      2051.12
 1306.52        2954.75           1464         469.00      2024.96
 1306.56        2955.00           1468         470.00      2029.32
 1306.59        2955.25           1471         484.00      2090.35
 1306.63        2955.50           1474         519.00      2242.94
 1306.66        2955.75           1478         481.00      2077.27
 1306.70        2956.00           1481         529.00      2286.54
 1306.73        2956.25           1485         512.00      2212.43
 1306.77        2956.50           1488         536.00      2317.06
 1306.80        2956.75           1491         548.00      2369.38
 1306.84        2957.00           1495         540.00      2334.50
 1306.87        2957.25           1498         559.00      2417.33
 1306.91        2957.50           1502         523.00      2260.38
 1306.94        2957.75           1505         531.00      2295.26
 1306.98        2958.00           1508         569.00      2460.93
 1307.01        2958.25           1512         550.00      2378.10
 1307.05        2958.50           1515         549.00      2373.74
 1307.08        2958.75           1519         553.00      2391.17
 1307.12        2959.00           1522         567.00      2452.21
 1307.15        2959.25           1525         575.00      2487.09
 1307.19        2959.50           1529         584.00      2526.33
 1307.22        2959.75           1532         608.00      2630.96
 1307.26        2960.00           1536         617.00      2670.20
 1307.29        2960.25           1539         619.00      2678.92
 1307.33        2960.50           1543         626.00      2709.44
 1307.36        2960.75           1546         632.00      2735.60
 1307.40        2961.00           1549         669.00      2896.91
 1307.43        2961.25           1553         862.00      3738.39
 1307.47        2961.50           1556        1537.00      6681.68
 1307.50        2961.75           1560        5252.00     22889.04
 1307.53        2962.00           1563       10919.00     47639.71
 1307.57        2962.25           1566       17705.00     77321.24
 1307.61        2962.50           1570       26895.00    117593.80
 1307.64        2962.75           1573       33086.00    144773.60
 1307.67        2963.00           1577       40870.00    179003.90
 1307.71        2963.25           1580       47660.00    208914.90
 1307.74        2963.50           1584       59343.00    260494.00
 1307.78        2963.75           1587       68176.00    299586.60
 1307.81        2964.00           1590       75640.00    332685.10
 1307.85        2964.25           1594       84400.00    371606.50
 1307.88        2964.50           1597       90610.00    399248.00
 1307.92        2964.75           1601       99834.00    440381.80
 1307.95        2965.00           1604      106301.00    469276.00
 1307.99        2965.25           1607      112737.00    498076.70
 1308.02        2965.50           1611      118559.00    524168.60
 1308.06        2965.75           1614      124636.00    551443.00
 1308.09        2966.00           1618      132787.00    588089.40
 1308.13        2966.25           1621      139951.00    620358.80
 1308.16        2966.50           1624      146174.00    648435.70
 1308.20        2966.75           1628      151263.00    671428.10
 1308.23        2967.00           1631      153233.00    680336.50
 1308.27        2967.25           1635      154491.00    686027.40
 1308.30        2967.50           1638      154765.00    687267.20
 1308.34        2967.75           1642      153901.00    683358.10
 1308.37        2968.00           1645      152346.00    676325.00
 1308.41        2968.25           1648      149867.00    665118.00
 1308.44        2968.50           1652      142387.00    631344.40
 1308.48        2968.75           1655      135058.00    598312.70
 1308.51        2969.00           1659      126588.00    560212.40
 1308.55        2969.25           1662      119664.00    529125.00
 1308.58        2969.50           1665      112195.00    495649.50
 1308.62        2969.75           1669      104064.00    459276.10
 1308.65        2970.00           1672       98448.00    434195.20
 1308.69        2970.25           1676       88379.00    389312.70
 1308.72        2970.50           1679       81913.00    360548.20
 1308.76        2970.75           1683       72388.00    318257.00
 1308.79        2971.00           1686       65524.00    287840.80
 1308.83        2971.25           1689       58278.00    255786.20
 1308.86        2971.50           1693       48191.00    211256.10
 1308.90        2971.75           1696       41841.00    183278.30
 1308.93        2972.00           1700       33805.00    147932.80
 1308.97        2972.25           1703       28534.00    124785.50
 1309.00        2972.50           1707       18887.00     82496.11
 1309.04        2972.75           1710       11137.00     48592.49
 1309.07        2973.00           1713        5696.00     24827.01
 1309.11        2973.25           1717        2033.00      8844.75
 1309.14        2973.50           1720        1026.00      4453.46
 1309.18        2973.75           1724         677.00      2931.79
 1309.21        2974.00           1727         674.00      2918.71
 1309.25        2974.25           1730         665.00      2879.47
 1309.28        2974.50           1734         622.00      2692.00
 1309.32        2974.75           1737         612.00      2648.40
 1309.35        2975.00           1741         606.00      2622.24
 1309.39        2975.25           1744         627.00      2713.80
 1309.42        2975.50           1748         621.00      2687.64
 1309.46        2975.75           1751         590.00      2552.49
 1309.49        2976.00           1754         588.00      2543.77
 1309.53        2976.25           1758         564.00      2439.13
 1309.56        2976.50           1761         583.00      2521.97
 1309.60        2976.75           1765         572.00      2474.01
 1309.63        2977.00           1768         560.00      2421.69
 1309.67        2977.25           1772         527.00      2277.82
 1309.70        2977.50           1775         523.00      2260.38
 1309.74        2977.75           1778         528.00      2282.18
 1309.77        2978.00           1782         539.00      2330.14
 1309.81        2978.25           1785         537.00      2321.42
 1309.84        2978.50           1789         517.00      2234.22
 1309.88        2978.75           1792         515.00      2225.50
 1309.91        2979.00           1795         542.00      2343.22
 1309.95        2979.25           1799         525.00      2269.10
 1309.98        2979.50           1802         490.00      2116.51
 1310.01        2979.75           1806         554.00      2395.53
 1310.05        2980.00           1809         495.00      2138.31
 1310.09        2980.25           1813         484.00      2090.35
 1310.12        2980.50           1816         483.00      2085.99
 1310.15        2980.75           1819         463.00      1998.80
 1310.19        2981.00           1823         482.00      2081.63
 1310.22        2981.25           1826         476.00      2055.48
 1310.26        2981.50           1830         491.00      2120.87
 1310.29        2981.75           1833         463.00      1998.80
 1310.33        2982.00           1837         457.00      1972.64
 1310.36        2982.25           1840         460.00      1985.72
 1310.40        2982.50           1843         434.00      1872.37
 1310.43        2982.75           1847         456.00      1968.28
 1310.47        2983.00           1850         438.00      1889.81
 1310.50        2983.25           1854         437.00      1885.45
 1310.54        2983.50           1857         422.00      1820.05
 1310.57        2983.75           1861         430.00      1854.93
 1310.61        2984.00           1864         429.00      1850.57
HS scan finished at 21:50:51
end
