************************************************************
  HS Scan of (1) Internal mercury lamp
************************************************************
Integration time is 0.2294 seconds per sample
dh220619El Arenosillo 37.1 6.73 3.25pr1000
************************************************************
Dead Time -------------------------  2.7E-08 
Number of Cycles Used -------------  4 
Starting Wavelength (Angstroms) ---  2950 
Final Wavelength (Angstoms) -------  2984 
Wavelength Increment (Angstroms) --  .25 
Filter Wheel #1 Position ---------- (1) Ground quartz diffuser (ND=2.32)
Filter Wheel #2 Position ---------- (1) Neutral Density 0.494



************************************************************
HS scan start time = 02:18:52
Dark Count =  4.4 


Time (GMT)  Wavelength (Ang)  Step Number  Raw Counts  Counts/Second

  139.60        2950.00           1399         433.00      1868.45
  139.74        2950.25           1403         419.00      1807.41
  139.78        2950.50           1406         430.00      1855.37
  139.81        2950.75           1410         415.00      1789.97
  139.85        2951.00           1413         434.00      1872.81
  139.88        2951.25           1416         463.00      1999.24
  139.92        2951.50           1420         430.00      1855.37
  139.95        2951.75           1423         460.00      1986.16
  139.99        2952.00           1427         458.00      1977.44
  140.02        2952.25           1430         463.00      1999.24
  140.06        2952.50           1433         457.00      1973.08
  140.09        2952.75           1437         461.00      1990.52
  140.13        2953.00           1440         472.00      2038.47
  140.16        2953.25           1444         514.00      2221.58
  140.20        2953.50           1447         472.00      2038.47
  140.23        2953.75           1450         506.00      2186.70
  140.27        2954.00           1454         481.00      2077.71
  140.30        2954.25           1457         491.00      2121.31
  140.34        2954.50           1461         491.00      2121.31
  140.37        2954.75           1464         519.00      2243.38
  140.41        2955.00           1468         549.00      2374.17
  140.44        2955.25           1471         520.00      2247.74
  140.48        2955.50           1474         538.00      2326.21
  140.51        2955.75           1478         528.00      2282.62
  140.54        2956.00           1481         520.00      2247.74
  140.58        2956.25           1485         526.00      2273.90
  140.62        2956.50           1488         520.00      2247.74
  140.65        2956.75           1491         525.00      2269.54
  140.68        2957.00           1495         534.00      2308.78
  140.72        2957.25           1498         545.00      2356.73
  140.75        2957.50           1502         560.00      2422.13
  140.79        2957.75           1505         583.00      2522.40
  140.82        2958.00           1508         581.00      2513.68
  140.86        2958.25           1512         568.00      2457.01
  140.89        2958.50           1515         606.00      2622.68
  140.93        2958.75           1519         586.00      2535.48
  140.96        2959.00           1522         589.00      2548.56
  141.00        2959.25           1525         628.00      2718.60
  141.03        2959.50           1529         602.00      2605.24
  141.07        2959.75           1532         633.00      2740.39
  141.10        2960.00           1536         619.00      2679.36
  141.14        2960.25           1539         652.00      2823.23
  141.17        2960.50           1543         658.00      2849.39
  141.21        2960.75           1546         686.00      2971.47
  141.24        2961.00           1549         686.00      2971.47
  141.28        2961.25           1553         939.00      4074.55
  141.31        2961.50           1556        2097.00      9124.31
  141.35        2961.75           1560        6935.00     30236.53
  141.38        2962.00           1563       13296.00     58031.57
  141.42        2962.25           1566       21147.00     92394.99
  141.45        2962.50           1570       30739.00    134465.50
  141.49        2962.75           1573       37080.00    162329.80
  141.52        2963.00           1577       45831.00    200853.50
  141.56        2963.25           1580       51554.00    226090.90
  141.59        2963.50           1584       61680.00    270829.40
  141.63        2963.75           1587       69632.00    306038.90
  141.66        2964.00           1590       77997.00    343149.80
  141.70        2964.25           1594       87509.00    385440.30
  141.73        2964.50           1597       94025.00    414466.70
  141.77        2964.75           1601      103114.00    455031.40
  141.80        2965.00           1604      110299.00    487161.90
  141.84        2965.25           1607      117086.00    517564.20
  141.87        2965.50           1611      126851.00    561394.70
  141.91        2965.75           1614      135101.00    598506.80
  141.94        2966.00           1618      143580.00    636727.30
  141.98        2966.25           1621      149627.00    664033.80
  142.01        2966.50           1624      154748.00    687190.60
  142.05        2966.75           1628      159533.00    708854.50
  142.08        2967.00           1631      161778.00    719027.50
  142.12        2967.25           1635      162524.00    722409.10
  142.15        2967.50           1638      162542.00    722490.80
  142.19        2967.75           1642      161530.00    717903.50
  142.22        2968.00           1645      159237.00    707513.70
  142.26        2968.25           1648      154649.00    686742.80
  142.29        2968.50           1652      147074.00    652500.30
  142.33        2968.75           1655      142350.00    631177.90
  142.36        2969.00           1659      134716.00    596773.10
  142.40        2969.25           1662      127877.00    566006.10
  142.43        2969.50           1665      120567.00    533176.80
  142.47        2969.75           1669      111639.00    493160.40
  142.50        2970.00           1672      104820.00    462655.40
  142.54        2970.25           1676       94934.00    418519.60
  142.57        2970.50           1679       87273.00    384389.90
  142.61        2970.75           1683       76698.00    337382.00
  142.64        2971.00           1686       66608.00    292641.50
  142.67        2971.25           1689       57984.00    254487.20
  142.71        2971.50           1693       48123.00    210956.70
  142.75        2971.75           1696       40651.00    178040.40
  142.78        2972.00           1700       31956.00    139810.10
  142.81        2972.25           1703       25556.00    111721.00
  142.85        2972.50           1707       16990.00     74192.07
  142.88        2972.75           1710        9471.00     41312.84
  142.92        2973.00           1713        4615.00     20109.44
  142.95        2973.25           1717        1928.00      8387.25
  142.99        2973.50           1720        1065.00      4623.94
  143.02        2973.75           1724         722.00      3128.42
  143.06        2974.00           1727         743.00      3219.98
  143.09        2974.25           1730         700.00      3032.51
  143.13        2974.50           1734         648.00      2805.79
  143.16        2974.75           1737         646.00      2797.07
  143.20        2975.00           1741         630.00      2727.32
  143.23        2975.25           1744         622.00      2692.44
  143.27        2975.50           1748         648.00      2805.79
  143.30        2975.75           1751         614.00      2657.56
  143.34        2976.00           1754         614.00      2657.56
  143.37        2976.25           1758         592.00      2561.64
  143.41        2976.50           1761         608.00      2631.40
  143.44        2976.75           1765         583.00      2522.40
  143.48        2977.00           1768         574.00      2483.17
  143.51        2977.25           1772         565.00      2443.93
  143.55        2977.50           1775         557.00      2409.05
  143.58        2977.75           1778         571.00      2470.09
  143.62        2978.00           1782         572.00      2474.45
  143.65        2978.25           1785         531.00      2295.70
  143.69        2978.50           1789         535.00      2313.14
  143.72        2978.75           1792         539.00      2330.57
  143.76        2979.00           1795         558.00      2413.41
  143.79        2979.25           1799         537.00      2321.85
  143.83        2979.50           1802         534.00      2308.78
  143.86        2979.75           1806         540.00      2334.93
  143.90        2980.00           1809         522.00      2256.46
  143.93        2980.25           1813         519.00      2243.38
  143.97        2980.50           1816         509.00      2199.78
  144.00        2980.75           1819         500.00      2160.54
  144.04        2981.00           1823         494.00      2134.39
  144.07        2981.25           1826         493.00      2130.03
  144.11        2981.50           1830         503.00      2173.62
  144.14        2981.75           1833         483.00      2086.43
  144.18        2982.00           1837         485.00      2095.15
  144.21        2982.25           1840         469.00      2025.39
  144.25        2982.50           1843         460.00      1986.16
  144.28        2982.75           1847         449.00      1938.20
  144.32        2983.00           1850         441.00      1903.32
  144.35        2983.25           1854         448.00      1933.84
  144.39        2983.50           1857         460.00      1986.16
  144.42        2983.75           1861         443.00      1912.04
  144.46        2984.00           1864         441.00      1903.32
HS scan finished at 02:24:42
end
************************************************************
  HS Scan of (1) Internal mercury lamp
************************************************************
Integration time is 0.2294 seconds per sample
dh220619El Arenosillo 37.1 6.73 3.13pr1000
************************************************************
Dead Time -------------------------  2.7E-08 
Number of Cycles Used -------------  4 
Starting Wavelength (Angstroms) ---  2950 
Final Wavelength (Angstoms) -------  2984 
Wavelength Increment (Angstroms) --  .25 
Filter Wheel #1 Position ---------- (1) Ground quartz diffuser (ND=2.32)
Filter Wheel #2 Position ---------- (1) Neutral Density 0.494



************************************************************
HS scan start time = 21:45:59
Dark Count =  3 


Time (GMT)  Wavelength (Ang)  Step Number  Raw Counts  Counts/Second

 1306.72        2950.00           1399         476.00      2062.02
 1306.86        2950.25           1403         487.00      2109.97
 1306.90        2950.50           1406         485.00      2101.25
 1306.93        2950.75           1410         496.00      2149.21
 1306.97        2951.00           1413         496.00      2149.21
 1307.00        2951.25           1416         513.00      2223.32
 1307.04        2951.50           1420         499.00      2162.29
 1307.07        2951.75           1423         471.00      2040.22
 1307.11        2952.00           1427         507.00      2197.17
 1307.14        2952.25           1430         522.00      2262.56
 1307.18        2952.50           1433         524.00      2271.28
 1307.21        2952.75           1437         534.00      2314.88
 1307.25        2953.00           1440         514.00      2227.68
 1307.28        2953.25           1444         521.00      2258.20
 1307.32        2953.50           1447         547.00      2371.56
 1307.35        2953.75           1450         518.00      2245.12
 1307.39        2954.00           1454         538.00      2332.32
 1307.42        2954.25           1457         549.00      2380.28
 1307.46        2954.50           1461         561.00      2432.59
 1307.49        2954.75           1464         562.00      2436.95
 1307.53        2955.00           1468         561.00      2432.59
 1307.56        2955.25           1471         546.00      2367.20
 1307.60        2955.50           1474         552.00      2393.35
 1307.63        2955.75           1478         586.00      2541.59
 1307.67        2956.00           1481         578.00      2506.71
 1307.70        2956.25           1485         589.00      2554.67
 1307.74        2956.50           1488         594.00      2576.47
 1307.77        2956.75           1491         592.00      2567.75
 1307.81        2957.00           1495         605.00      2624.42
 1307.84        2957.25           1498         617.00      2676.74
 1307.88        2957.50           1502         619.00      2685.46
 1307.91        2957.75           1505         644.00      2794.46
 1307.95        2958.00           1508         612.00      2654.94
 1307.98        2958.25           1512         653.00      2833.70
 1308.02        2958.50           1515         674.00      2925.25
 1308.05        2958.75           1519         626.00      2715.98
 1308.09        2959.00           1522         656.00      2846.78
 1308.12        2959.25           1525         652.00      2829.34
 1308.16        2959.50           1529         674.00      2925.25
 1308.19        2959.75           1532         683.00      2964.49
 1308.23        2960.00           1536         686.00      2977.57
 1308.26        2960.25           1539         705.00      3060.41
 1308.30        2960.50           1543         731.00      3173.77
 1308.33        2960.75           1546         719.00      3121.45
 1308.37        2961.00           1549         743.00      3226.09
 1308.40        2961.25           1553        1069.00      4647.49
 1308.44        2961.50           1556        2556.00     11132.38
 1308.47        2961.75           1560        7790.00     33976.23
 1308.51        2962.00           1563       13373.00     58374.41
 1308.54        2962.25           1566       19546.00     85388.44
 1308.57        2962.50           1570       28679.00    125428.40
 1308.61        2962.75           1573       35398.00    154940.60
 1308.64        2963.00           1577       45320.00    198608.00
 1308.68        2963.25           1580       53078.00    232823.50
 1308.71        2963.50           1584       64231.00    282123.50
 1308.75        2963.75           1587       73451.00    322978.60
 1308.78        2964.00           1590       81365.00    358119.10
 1308.82        2964.25           1594       91346.00    402533.50
 1308.85        2964.50           1597       98786.00    435710.40
 1308.89        2964.75           1601      109470.00    483458.10
 1308.92        2965.00           1604      116858.00    516548.30
 1308.96        2965.25           1607      124451.00    550618.90
 1308.99        2965.50           1611      134915.00    597675.60
 1309.03        2965.75           1614      143806.00    637753.50
 1309.06        2966.00           1618      154762.00    687260.30
 1309.10        2966.25           1621      162231.00    721087.30
 1309.13        2966.50           1624      167385.00    744466.10
 1309.17        2966.75           1628      170873.00    760304.80
 1309.20        2967.00           1631      171581.00    763521.50
 1309.24        2967.25           1635      171869.00    764830.00
 1309.27        2967.50           1638      171935.00    765130.00
 1309.31        2967.75           1642      171022.00    760981.60
 1309.34        2968.00           1645      168970.00    751661.80
 1309.38        2968.25           1648      164535.00    731534.60
 1309.41        2968.50           1652      157841.00    701197.60
 1309.45        2968.75           1655      152226.00    675789.00
 1309.48        2969.00           1659      143342.00    635659.70
 1309.52        2969.25           1662      135453.00    600098.30
 1309.55        2969.50           1665      128158.00    567275.50
 1309.59        2969.75           1669      117790.00    520726.90
 1309.62        2970.00           1672      109302.00    482706.40
 1309.66        2970.25           1676       99510.00    438942.10
 1309.69        2970.50           1679       92310.00    406828.80
 1309.73        2970.75           1683       82663.00    363889.00
 1309.76        2971.00           1686       74159.00    326119.70
 1309.80        2971.25           1689       64569.00    283619.50
 1309.83        2971.50           1693       52555.00    230514.80
 1309.87        2971.75           1696       45482.00    199321.80
 1309.90        2972.00           1700       36800.00    161104.70
 1309.94        2972.25           1703       29153.00    127508.90
 1309.97        2972.50           1707       18338.00     80098.94
 1310.01        2972.75           1710       10743.00     46877.08
 1310.04        2973.00           1713        5570.00     24283.57
 1310.08        2973.25           1717        1978.00      8611.42
 1310.11        2973.50           1720        1143.00      4970.15
 1310.15        2973.75           1724         770.00      3343.81
 1310.18        2974.00           1727         713.00      3095.29
 1310.22        2974.25           1730         702.00      3047.33
 1310.25        2974.50           1734         682.00      2960.13
 1310.29        2974.75           1737         672.00      2916.53
 1310.32        2975.00           1741         662.00      2872.93
 1310.36        2975.25           1744         658.00      2855.49
 1310.39        2975.50           1748         648.00      2811.90
 1310.43        2975.75           1751         638.00      2768.30
 1310.46        2976.00           1754         632.00      2742.14
 1310.50        2976.25           1758         618.00      2681.10
 1310.53        2976.50           1761         594.00      2576.47
 1310.57        2976.75           1765         636.00      2759.58
 1310.60        2977.00           1768         597.00      2589.54
 1310.64        2977.25           1772         616.00      2672.38
 1310.67        2977.50           1775         580.00      2515.43
 1310.71        2977.75           1778         588.00      2550.31
 1310.74        2978.00           1782         559.00      2423.87
 1310.78        2978.25           1785         553.00      2397.71
 1310.81        2978.50           1789         557.00      2415.15
 1310.84        2978.75           1792         540.00      2341.04
 1310.88        2979.00           1795         547.00      2371.56
 1310.92        2979.25           1799         544.00      2358.48
 1310.95        2979.50           1802         539.00      2336.68
 1310.98        2979.75           1806         514.00      2227.68
 1311.02        2980.00           1809         542.00      2349.76
 1311.05        2980.25           1813         518.00      2245.12
 1311.09        2980.50           1816         500.00      2166.65
 1311.13        2980.75           1819         542.00      2349.76
 1311.16        2981.00           1823         526.00      2280.00
 1311.19        2981.25           1826         484.00      2096.89
 1311.23        2981.50           1830         503.00      2179.73
 1311.26        2981.75           1833         474.00      2053.30
 1311.30        2982.00           1837         480.00      2079.45
 1311.33        2982.25           1840         480.00      2079.45
 1311.37        2982.50           1843         492.00      2131.77
 1311.40        2982.75           1847         486.00      2105.61
 1311.44        2983.00           1850         468.00      2027.14
 1311.47        2983.25           1854         472.00      2044.58
 1311.51        2983.50           1857         459.00      1987.90
 1311.54        2983.75           1861         439.00      1900.71
 1311.58        2984.00           1864         462.00      2000.98
HS scan finished at 21:51:49
end
