************************************************************
  HS Scan of (1) Internal mercury lamp
************************************************************
Integration time is 0.2294 seconds per sample
dh240619El Arenosillo 37.1 6.73 3.13pr1000
************************************************************
Dead Time -------------------------  2.7E-08 
Number of Cycles Used -------------  4 
Starting Wavelength (Angstroms) ---  2950 
Final Wavelength (Angstoms) -------  2984 
Wavelength Increment (Angstroms) --  .25 
Filter Wheel #1 Position ---------- (1) Ground quartz diffuser (ND=2.32)
Filter Wheel #2 Position ---------- (1) Neutral Density 0.494



************************************************************
HS scan start time = 02:14:16
Dark Count =  3.2 


Time (GMT)  Wavelength (Ang)  Step Number  Raw Counts  Counts/Second

  135.01        2950.00           1399         437.00      1891.12
  135.15        2950.25           1403         429.00      1856.24
  135.19        2950.50           1406         431.00      1864.96
  135.22        2950.75           1410         426.00      1843.16
  135.26        2951.00           1413         429.00      1856.24
  135.29        2951.25           1416         454.00      1965.23
  135.33        2951.50           1420         432.00      1869.32
  135.36        2951.75           1423         441.00      1908.56
  135.40        2952.00           1427         437.00      1891.12
  135.43        2952.25           1430         461.00      1995.75
  135.47        2952.50           1433         429.00      1856.24
  135.50        2952.75           1437         465.00      2013.19
  135.54        2953.00           1440         475.00      2056.78
  135.57        2953.25           1444         483.00      2091.66
  135.61        2953.50           1447         486.00      2104.74
  135.64        2953.75           1450         481.00      2082.94
  135.67        2954.00           1454         474.00      2052.42
  135.71        2954.25           1457         514.00      2226.81
  135.74        2954.50           1461         474.00      2052.42
  135.78        2954.75           1464         507.00      2196.29
  135.81        2955.00           1468         509.00      2205.01
  135.85        2955.25           1471         545.00      2361.96
  135.88        2955.50           1474         511.00      2213.73
  135.92        2955.75           1478         525.00      2274.77
  135.95        2956.00           1481         516.00      2235.53
  135.99        2956.25           1485         541.00      2344.53
  136.02        2956.50           1488         539.00      2335.81
  136.06        2956.75           1491         534.00      2314.01
  136.09        2957.00           1495         542.00      2348.88
  136.13        2957.25           1498         555.00      2405.56
  136.16        2957.50           1502         576.00      2497.12
  136.20        2957.75           1505         576.00      2497.12
  136.23        2958.00           1508         584.00      2532.00
  136.27        2958.25           1512         628.00      2723.83
  136.30        2958.50           1515         596.00      2584.31
  136.34        2958.75           1519         596.00      2584.31
  136.37        2959.00           1522         598.00      2593.03
  136.41        2959.25           1525         607.00      2632.27
  136.44        2959.50           1529         617.00      2675.87
  136.48        2959.75           1532         647.00      2806.66
  136.51        2960.00           1536         674.00      2924.38
  136.55        2960.25           1539         679.00      2946.18
  136.58        2960.50           1543         653.00      2832.82
  136.62        2960.75           1546         664.00      2880.78
  136.65        2961.00           1549         701.00      3042.10
  136.69        2961.25           1553         949.00      4123.39
  136.72        2961.50           1556        1816.00      7904.04
  136.76        2961.75           1560        4857.00     21170.77
  136.79        2962.00           1563        8956.00     39068.22
  136.83        2962.25           1566       14776.00     64509.83
  136.86        2962.50           1570       24805.00    108433.00
  136.90        2962.75           1573       31730.00    138822.80
  136.93        2963.00           1577       41175.00    180352.10
  136.97        2963.25           1580       48630.00    213197.60
  137.00        2963.50           1584       59961.00    263232.10
  137.04        2963.75           1587       70234.00    308712.50
  137.07        2964.00           1590       79427.00    349506.70
  137.11        2964.25           1594       88866.00    391486.80
  137.14        2964.50           1597       95879.00    422739.30
  137.18        2964.75           1601      105024.00    463572.60
  137.21        2965.00           1604      111034.00    490457.20
  137.25        2965.25           1607      118457.00    523717.10
  137.28        2965.50           1611      127325.00    563530.30
  137.32        2965.75           1614      134026.00    593672.10
  137.35        2966.00           1618      144023.00    638731.80
  137.39        2966.25           1621      151376.00    671944.80
  137.42        2966.50           1624      156086.00    693251.30
  137.46        2966.75           1628      160863.00    714886.10
  137.49        2967.00           1631      161907.00    719617.70
  137.53        2967.25           1635      162239.00    721122.60
  137.56        2967.50           1638      162704.00    723230.70
  137.60        2967.75           1642      162497.00    722292.20
  137.63        2968.00           1645      160436.00    712951.10
  137.67        2968.25           1648      156965.00    697230.30
  137.70        2968.50           1652      148911.00    660803.90
  137.74        2968.75           1655      142490.00    631815.00
  137.77        2969.00           1659      134417.00    595432.50
  137.81        2969.25           1662      127455.00    564114.60
  137.84        2969.50           1665      120936.00    534838.00
  137.88        2969.75           1669      110449.00    487838.70
  137.91        2970.00           1672      102395.00    451824.60
  137.94        2970.25           1676       93522.00    412229.70
  137.98        2970.50           1679       86754.00    382085.40
  138.02        2970.75           1683       76382.00    335984.50
  138.05        2971.00           1686       66951.00    294165.90
  138.08        2971.25           1689       57643.00    252985.50
  138.12        2971.50           1693       48130.00    210992.80
  138.15        2971.75           1696       42041.00    184164.60
  138.19        2972.00           1700       33386.00    146097.40
  138.23        2972.25           1703       27040.00    118235.60
  138.26        2972.50           1707       19240.00     84047.54
  138.29        2972.75           1710       13621.00     59458.07
  138.33        2973.00           1713        7688.00     33529.91
  138.36        2973.25           1717        3116.00     13574.29
  138.40        2973.50           1720        1398.00      6081.21
  138.43        2973.75           1724         817.00      3547.86
  138.47        2974.00           1727         721.00      3129.30
  138.50        2974.25           1730         680.00      2950.54
  138.54        2974.50           1734         669.00      2902.58
  138.57        2974.75           1737         657.00      2850.26
  138.61        2975.00           1741         665.00      2885.14
  138.64        2975.25           1744         641.00      2780.51
  138.68        2975.50           1748         629.00      2728.19
  138.71        2975.75           1751         675.00      2928.74
  138.75        2976.00           1754         608.00      2636.63
  138.78        2976.25           1758         601.00      2606.11
  138.82        2976.50           1761         582.00      2523.28
  138.85        2976.75           1765         587.00      2545.07
  138.89        2977.00           1768         571.00      2475.32
  138.92        2977.25           1772         580.00      2514.56
  138.96        2977.50           1775         583.00      2527.64
  138.99        2977.75           1778         558.00      2418.64
  139.03        2978.00           1782         566.00      2453.52
  139.06        2978.25           1785         557.00      2414.28
  139.10        2978.50           1789         574.00      2488.40
  139.13        2978.75           1792         543.00      2353.24
  139.17        2979.00           1795         538.00      2331.45
  139.20        2979.25           1799         517.00      2239.89
  139.24        2979.50           1802         540.00      2340.17
  139.27        2979.75           1806         525.00      2274.77
  139.31        2980.00           1809         523.00      2266.05
  139.34        2980.25           1813         532.00      2305.29
  139.38        2980.50           1816         505.00      2187.57
  139.41        2980.75           1819         489.00      2117.82
  139.45        2981.00           1823         510.00      2209.37
  139.48        2981.25           1826         497.00      2152.70
  139.52        2981.50           1830         484.00      2096.02
  139.55        2981.75           1833         518.00      2244.25
  139.59        2982.00           1837         469.00      2030.63
  139.62        2982.25           1840         458.00      1982.67
  139.66        2982.50           1843         468.00      2026.27
  139.69        2982.75           1847         462.00      2000.11
  139.73        2983.00           1850         437.00      1891.12
  139.76        2983.25           1854         440.00      1904.20
  139.80        2983.50           1857         451.00      1952.15
  139.83        2983.75           1861         468.00      2026.27
  139.87        2984.00           1864         452.00      1956.51
HS scan finished at 02:20:06
end
