************************************************************
  HS Scan of (1) Internal mercury lamp
************************************************************
Integration time is 0.2294 seconds per sample
dh200619El Arenosillo 37.1 6.73 3.05pr1000
************************************************************
Dead Time -------------------------  2.7E-08 
Number of Cycles Used -------------  4 
Starting Wavelength (Angstroms) ---  2950 
Final Wavelength (Angstoms) -------  2984 
Wavelength Increment (Angstroms) --  .25 
Filter Wheel #1 Position ---------- (1) Ground quartz diffuser (ND=2.32)
Filter Wheel #2 Position ---------- (1) Neutral Density 0.494



************************************************************
HS scan start time = 02:21:21
Dark Count =  1.3 


Time (GMT)  Wavelength (Ang)  Step Number  Raw Counts  Counts/Second

  142.09        2950.00           1399         362.00      1572.43
  142.23        2950.25           1403         359.00      1559.35
  142.26        2950.50           1406         377.00      1637.82
  142.30        2950.75           1410         353.00      1533.19
  142.33        2951.00           1413         377.00      1637.82
  142.37        2951.25           1416         368.00      1598.59
  142.40        2951.50           1420         386.00      1677.06
  142.44        2951.75           1423         401.00      1742.45
  142.47        2952.00           1427         375.00      1629.10
  142.51        2952.25           1430         388.00      1685.78
  142.54        2952.50           1433         393.00      1707.58
  142.58        2952.75           1437         402.00      1746.81
  142.61        2953.00           1440         389.00      1690.14
  142.65        2953.25           1444         400.00      1738.09
  142.68        2953.50           1447         410.00      1781.69
  142.72        2953.75           1450         393.00      1707.58
  142.75        2954.00           1454         421.00      1829.65
  142.79        2954.25           1457         416.00      1807.85
  142.82        2954.50           1461         439.00      1908.12
  142.86        2954.75           1464         431.00      1873.24
  142.89        2955.00           1468         428.00      1860.16
  142.93        2955.25           1471         423.00      1838.37
  142.96        2955.50           1474         471.00      2047.63
  143.00        2955.75           1478         440.00      1912.48
  143.03        2956.00           1481         453.00      1969.15
  143.07        2956.25           1485         443.00      1925.56
  143.10        2956.50           1488         454.00      1973.51
  143.14        2956.75           1491         498.00      2165.34
  143.17        2957.00           1495         473.00      2056.35
  143.21        2957.25           1498         465.00      2021.47
  143.24        2957.50           1502         456.00      1982.23
  143.28        2957.75           1505         512.00      2226.38
  143.31        2958.00           1508         483.00      2099.94
  143.35        2958.25           1512         494.00      2147.90
  143.38        2958.50           1515         498.00      2165.34
  143.42        2958.75           1519         507.00      2204.58
  143.45        2959.00           1522         511.00      2222.02
  143.48        2959.25           1525         522.00      2269.97
  143.52        2959.50           1529         521.00      2265.61
  143.56        2959.75           1532         579.00      2518.48
  143.59        2960.00           1536         541.00      2352.81
  143.63        2960.25           1539         562.00      2444.36
  143.66        2960.50           1543         569.00      2474.88
  143.69        2960.75           1546         584.00      2540.28
  143.73        2961.00           1549         587.00      2553.36
  143.77        2961.25           1553         767.00      3338.14
  143.80        2961.50           1556        1499.00      6529.92
  143.83        2961.75           1560        4904.00     21384.19
  143.87        2962.00           1563        9619.00     41973.00
  143.90        2962.25           1566       15838.00     69164.35
  143.94        2962.50           1570       24480.00    107016.30
  143.97        2962.75           1573       31126.00    136178.50
  144.01        2963.00           1577       40362.00    176782.10
  144.04        2963.25           1580       47128.00    206583.70
  144.08        2963.50           1584       55283.00    242567.30
  144.11        2963.75           1587       60871.00    267264.70
  144.15        2964.00           1590       66590.00    292575.50
  144.18        2964.25           1594       73622.00    323744.80
  144.22        2964.50           1597       79067.00    347916.00
  144.25        2964.75           1601       89067.00    392390.30
  144.29        2965.00           1604       95481.00    420972.70
  144.32        2965.25           1607      101839.00    449349.50
  144.36        2965.50           1611      109838.00    485112.60
  144.39        2965.75           1614      115787.00    511755.30
  144.43        2966.00           1618      123962.00    548430.40
  144.46        2966.25           1621      129348.00    572633.30
  144.50        2966.50           1624      133609.00    591803.60
  144.53        2966.75           1628      137408.00    608912.10
  144.57        2967.00           1631      138027.00    611701.20
  144.60        2967.25           1635      138725.00    614846.80
  144.64        2967.50           1638      138459.00    613648.00
  144.67        2967.75           1642      138042.00    611768.80
  144.71        2968.00           1645      136914.00    606686.50
  144.74        2968.25           1648      132517.00    586888.80
  144.78        2968.50           1652      125453.00    555127.30
  144.81        2968.75           1655      118156.00    522375.70
  144.85        2969.00           1659      109964.00    485676.40
  144.88        2969.25           1662      104182.00    459817.70
  144.92        2969.50           1665       98735.00    435490.40
  144.95        2969.75           1669       90776.00    400001.70
  144.99        2970.00           1672       83277.00    366626.60
  145.02        2970.25           1676       75808.00    333445.00
  145.06        2970.50           1679       70061.00    307954.10
  145.09        2970.75           1683       62150.00    272922.30
  145.13        2971.00           1686       56040.00    245911.10
  145.16        2971.25           1689       50490.00    221409.90
  145.20        2971.50           1693       42908.00    187990.60
  145.23        2971.75           1696       37083.00    162356.60
  145.27        2972.00           1700       28439.00    124382.60
  145.30        2972.25           1703       22366.00     97749.81
  145.34        2972.50           1707       13229.00     57752.15
  145.37        2972.75           1710        6855.00     29900.77
  145.41        2973.00           1713        3590.00     15650.47
  145.44        2973.25           1717        1508.00      6569.17
  145.48        2973.50           1720         907.00      3948.55
  145.51        2973.75           1724         591.00      2570.80
  145.55        2974.00           1727         568.00      2470.52
  145.58        2974.25           1730         573.00      2492.32
  145.62        2974.50           1734         537.00      2335.37
  145.65        2974.75           1737         564.00      2453.08
  145.69        2975.00           1741         547.00      2378.97
  145.72        2975.25           1744         524.00      2278.69
  145.76        2975.50           1748         553.00      2405.13
  145.79        2975.75           1751         539.00      2344.09
  145.83        2976.00           1754         526.00      2287.41
  145.86        2976.25           1758         516.00      2243.82
  145.90        2976.50           1761         518.00      2252.53
  145.93        2976.75           1765         505.00      2195.86
  145.97        2977.00           1768         499.00      2169.70
  146.00        2977.25           1772         473.00      2056.35
  146.04        2977.50           1775         468.00      2034.55
  146.07        2977.75           1778         497.00      2160.98
  146.10        2978.00           1782         460.00      1999.67
  146.14        2978.25           1785         442.00      1921.20
  146.17        2978.50           1789         441.00      1916.84
  146.21        2978.75           1792         450.00      1956.08
  146.24        2979.00           1795         444.00      1929.92
  146.28        2979.25           1799         449.00      1951.72
  146.31        2979.50           1802         445.00      1934.28
  146.35        2979.75           1806         463.00      2012.75
  146.38        2980.00           1809         432.00      1877.60
  146.42        2980.25           1813         433.00      1881.96
  146.45        2980.50           1816         420.00      1825.29
  146.49        2980.75           1819         431.00      1873.24
  146.52        2981.00           1823         427.00      1855.80
  146.56        2981.25           1826         406.00      1764.25
  146.59        2981.50           1830         412.00      1790.41
  146.63        2981.75           1833         402.00      1746.81
  146.66        2982.00           1837         403.00      1751.17
  146.70        2982.25           1840         422.00      1834.01
  146.73        2982.50           1843         405.00      1759.89
  146.77        2982.75           1847         406.00      1764.25
  146.80        2983.00           1850         420.00      1825.29
  146.84        2983.25           1854         366.00      1589.87
  146.87        2983.50           1857         378.00      1642.18
  146.91        2983.75           1861         376.00      1633.46
  146.94        2984.00           1864         369.00      1602.95
HS scan finished at 02:27:11
end
