************************************************************
  HS Scan of (1) Internal mercury lamp
************************************************************
Integration time is 0.2294 seconds per sample
dh240619El Arenosillo 37.1 6.73 3.13pr1000
************************************************************
Dead Time -------------------------  2.7E-08 
Number of Cycles Used -------------  4 
Starting Wavelength (Angstroms) ---  2950 
Final Wavelength (Angstoms) -------  2984 
Wavelength Increment (Angstroms) --  .25 
Filter Wheel #1 Position ---------- (1) Ground quartz diffuser (ND=2.32)
Filter Wheel #2 Position ---------- (1) Neutral Density 0.494



************************************************************
HS scan start time = 02:14:16
Dark Count =  3.2 


Time (GMT)  Wavelength (Ang)  Step Number  Raw Counts  Counts/Second

  135.01        2950.00           1399         437.00      1891.12
  135.15        2950.25           1403         429.00      1856.24
  135.19        2950.50           1406         431.00      1864.96
  135.22        2950.75           1410         426.00      1843.16
  135.26        2951.00           1413         429.00      1856.24
  135.29        2951.25           1416         454.00      1965.23
  135.33        2951.50           1420         432.00      1869.32
  135.36        2951.75           1423         441.00      1908.56
  135.40        2952.00           1427         437.00      1891.12
  135.43        2952.25           1430         461.00      1995.75
  135.47        2952.50           1433         429.00      1856.24
  135.50        2952.75           1437         465.00      2013.19
  135.54        2953.00           1440         475.00      2056.78
  135.57        2953.25           1444         483.00      2091.66
  135.61        2953.50           1447         486.00      2104.74
  135.64        2953.75           1450         481.00      2082.94
  135.67        2954.00           1454         474.00      2052.42
  135.71        2954.25           1457         514.00      2226.81
  135.74        2954.50           1461         474.00      2052.42
  135.78        2954.75           1464         507.00      2196.29
  135.81        2955.00           1468         509.00      2205.01
  135.85        2955.25           1471         545.00      2361.96
  135.88        2955.50           1474         511.00      2213.73
  135.92        2955.75           1478         525.00      2274.77
  135.95        2956.00           1481         516.00      2235.53
  135.99        2956.25           1485         541.00      2344.53
  136.02        2956.50           1488         539.00      2335.81
  136.06        2956.75           1491         534.00      2314.01
  136.09        2957.00           1495         542.00      2348.88
  136.13        2957.25           1498         555.00      2405.56
  136.16        2957.50           1502         576.00      2497.12
  136.20        2957.75           1505         576.00      2497.12
  136.23        2958.00           1508         584.00      2532.00
  136.27        2958.25           1512         628.00      2723.83
  136.30        2958.50           1515         596.00      2584.31
  136.34        2958.75           1519         596.00      2584.31
  136.37        2959.00           1522         598.00      2593.03
  136.41        2959.25           1525         607.00      2632.27
  136.44        2959.50           1529         617.00      2675.87
  136.48        2959.75           1532         647.00      2806.66
  136.51        2960.00           1536         674.00      2924.38
  136.55        2960.25           1539         679.00      2946.18
  136.58        2960.50           1543         653.00      2832.82
  136.62        2960.75           1546         664.00      2880.78
  136.65        2961.00           1549         701.00      3042.10
  136.69        2961.25           1553         949.00      4123.39
  136.72        2961.50           1556        1816.00      7904.04
  136.76        2961.75           1560        4857.00     21170.77
  136.79        2962.00           1563        8956.00     39068.22
  136.83        2962.25           1566       14776.00     64509.83
  136.86        2962.50           1570       24805.00    108433.00
  136.90        2962.75           1573       31730.00    138822.80
  136.93        2963.00           1577       41175.00    180352.10
  136.97        2963.25           1580       48630.00    213197.60
  137.00        2963.50           1584       59961.00    263232.10
  137.04        2963.75           1587       70234.00    308712.50
  137.07        2964.00           1590       79427.00    349506.70
  137.11        2964.25           1594       88866.00    391486.80
  137.14        2964.50           1597       95879.00    422739.30
  137.18        2964.75           1601      105024.00    463572.60
  137.21        2965.00           1604      111034.00    490457.20
  137.25        2965.25           1607      118457.00    523717.10
  137.28        2965.50           1611      127325.00    563530.30
  137.32        2965.75           1614      134026.00    593672.10
  137.35        2966.00           1618      144023.00    638731.80
  137.39        2966.25           1621      151376.00    671944.80
  137.42        2966.50           1624      156086.00    693251.30
  137.46        2966.75           1628      160863.00    714886.10
  137.49        2967.00           1631      161907.00    719617.70
  137.53        2967.25           1635      162239.00    721122.60
  137.56        2967.50           1638      162704.00    723230.70
  137.60        2967.75           1642      162497.00    722292.20
  137.63        2968.00           1645      160436.00    712951.10
  137.67        2968.25           1648      156965.00    697230.30
  137.70        2968.50           1652      148911.00    660803.90
  137.74        2968.75           1655      142490.00    631815.00
  137.77        2969.00           1659      134417.00    595432.50
  137.81        2969.25           1662      127455.00    564114.60
  137.84        2969.50           1665      120936.00    534838.00
  137.88        2969.75           1669      110449.00    487838.70
  137.91        2970.00           1672      102395.00    451824.60
  137.94        2970.25           1676       93522.00    412229.70
  137.98        2970.50           1679       86754.00    382085.40
  138.02        2970.75           1683       76382.00    335984.50
  138.05        2971.00           1686       66951.00    294165.90
  138.08        2971.25           1689       57643.00    252985.50
  138.12        2971.50           1693       48130.00    210992.80
  138.15        2971.75           1696       42041.00    184164.60
  138.19        2972.00           1700       33386.00    146097.40
  138.23        2972.25           1703       27040.00    118235.60
  138.26        2972.50           1707       19240.00     84047.54
  138.29        2972.75           1710       13621.00     59458.07
  138.33        2973.00           1713        7688.00     33529.91
  138.36        2973.25           1717        3116.00     13574.29
  138.40        2973.50           1720        1398.00      6081.21
  138.43        2973.75           1724         817.00      3547.86
  138.47        2974.00           1727         721.00      3129.30
  138.50        2974.25           1730         680.00      2950.54
  138.54        2974.50           1734         669.00      2902.58
  138.57        2974.75           1737         657.00      2850.26
  138.61        2975.00           1741         665.00      2885.14
  138.64        2975.25           1744         641.00      2780.51
  138.68        2975.50           1748         629.00      2728.19
  138.71        2975.75           1751         675.00      2928.74
  138.75        2976.00           1754         608.00      2636.63
  138.78        2976.25           1758         601.00      2606.11
  138.82        2976.50           1761         582.00      2523.28
  138.85        2976.75           1765         587.00      2545.07
  138.89        2977.00           1768         571.00      2475.32
  138.92        2977.25           1772         580.00      2514.56
  138.96        2977.50           1775         583.00      2527.64
  138.99        2977.75           1778         558.00      2418.64
  139.03        2978.00           1782         566.00      2453.52
  139.06        2978.25           1785         557.00      2414.28
  139.10        2978.50           1789         574.00      2488.40
  139.13        2978.75           1792         543.00      2353.24
  139.17        2979.00           1795         538.00      2331.45
  139.20        2979.25           1799         517.00      2239.89
  139.24        2979.50           1802         540.00      2340.17
  139.27        2979.75           1806         525.00      2274.77
  139.31        2980.00           1809         523.00      2266.05
  139.34        2980.25           1813         532.00      2305.29
  139.38        2980.50           1816         505.00      2187.57
  139.41        2980.75           1819         489.00      2117.82
  139.45        2981.00           1823         510.00      2209.37
  139.48        2981.25           1826         497.00      2152.70
  139.52        2981.50           1830         484.00      2096.02
  139.55        2981.75           1833         518.00      2244.25
  139.59        2982.00           1837         469.00      2030.63
  139.62        2982.25           1840         458.00      1982.67
  139.66        2982.50           1843         468.00      2026.27
  139.69        2982.75           1847         462.00      2000.11
  139.73        2983.00           1850         437.00      1891.12
  139.76        2983.25           1854         440.00      1904.20
  139.80        2983.50           1857         451.00      1952.15
  139.83        2983.75           1861         468.00      2026.27
  139.87        2984.00           1864         452.00      1956.51
HS scan finished at 02:20:06
end
************************************************************
  HS Scan of (1) Internal mercury lamp
************************************************************
Integration time is 0.2294 seconds per sample
dh240619El Arenosillo 37.1 6.73 3.29pr1000
************************************************************
Dead Time -------------------------  2.7E-08 
Number of Cycles Used -------------  4 
Starting Wavelength (Angstroms) ---  2950 
Final Wavelength (Angstoms) -------  2984 
Wavelength Increment (Angstroms) --  .25 
Filter Wheel #1 Position ---------- (1) Ground quartz diffuser (ND=2.32)
Filter Wheel #2 Position ---------- (1) Neutral Density 0.494



************************************************************
HS scan start time = 21:02:33
Dark Count =  5.3 


Time (GMT)  Wavelength (Ang)  Step Number  Raw Counts  Counts/Second

 1263.29        2950.00           1399         410.00      1764.25
 1263.43        2950.25           1403         428.00      1842.72
 1263.46        2950.50           1406         444.00      1912.48
 1263.50        2950.75           1410         423.00      1820.93
 1263.53        2951.00           1413         444.00      1912.48
 1263.57        2951.25           1416         441.00      1899.40
 1263.60        2951.50           1420         428.00      1842.72
 1263.64        2951.75           1423         432.00      1860.16
 1263.67        2952.00           1427         428.00      1842.72
 1263.71        2952.25           1430         441.00      1899.40
 1263.74        2952.50           1433         448.00      1929.92
 1263.78        2952.75           1437         466.00      2008.39
 1263.81        2953.00           1440         455.00      1960.44
 1263.85        2953.25           1444         461.00      1986.59
 1263.88        2953.50           1447         471.00      2030.19
 1263.92        2953.75           1450         469.00      2021.47
 1263.95        2954.00           1454         504.00      2174.06
 1263.99        2954.25           1457         478.00      2060.71
 1264.02        2954.50           1461         493.00      2126.10
 1264.06        2954.75           1464         484.00      2086.87
 1264.09        2955.00           1468         496.00      2139.18
 1264.13        2955.25           1471         522.00      2252.53
 1264.16        2955.50           1474         496.00      2139.18
 1264.20        2955.75           1478         496.00      2139.18
 1264.23        2956.00           1481         518.00      2235.10
 1264.27        2956.25           1485         517.00      2230.74
 1264.30        2956.50           1488         534.00      2304.85
 1264.34        2956.75           1491         516.00      2226.38
 1264.37        2957.00           1495         512.00      2208.94
 1264.41        2957.25           1498         537.00      2317.93
 1264.44        2957.50           1502         569.00      2457.44
 1264.48        2957.75           1505         561.00      2422.57
 1264.51        2958.00           1508         562.00      2426.92
 1264.55        2958.25           1512         555.00      2396.41
 1264.58        2958.50           1515         557.00      2405.13
 1264.62        2958.75           1519         578.00      2496.68
 1264.65        2959.00           1522         591.00      2553.36
 1264.69        2959.25           1525         601.00      2596.96
 1264.72        2959.50           1529         591.00      2553.36
 1264.76        2959.75           1532         619.00      2675.43
 1264.79        2960.00           1536         624.00      2697.23
 1264.83        2960.25           1539         633.00      2736.47
 1264.86        2960.50           1543         647.00      2797.51
 1264.90        2960.75           1546         652.00      2819.31
 1264.93        2961.00           1549         674.00      2915.23
 1264.97        2961.25           1553         802.00      3473.30
 1265.00        2961.50           1556        1441.00      6259.56
 1265.03        2961.75           1560        4672.00     20354.25
 1265.07        2962.00           1563        9973.00     43502.25
 1265.10        2962.25           1566       16808.00     73391.58
 1265.14        2962.50           1570       24712.00    108016.00
 1265.17        2962.75           1573       31455.00    137605.80
 1265.21        2963.00           1577       40731.00    178388.50
 1265.24        2963.25           1580       46765.00    204966.00
 1265.28        2963.50           1584       55065.00    241586.80
 1265.31        2963.75           1587       63921.00    280741.20
 1265.35        2964.00           1590       74744.00    328705.20
 1265.38        2964.25           1594       87263.00    384341.40
 1265.42        2964.50           1597       94563.00    416861.30
 1265.45        2964.75           1601      102841.00    453807.70
 1265.49        2965.00           1604      109815.00    484991.70
 1265.52        2965.25           1607      115742.00    511535.70
 1265.56        2965.50           1611      124344.00    550128.00
 1265.59        2965.75           1614      129605.00    573771.00
 1265.63        2966.00           1618      137511.00    609358.10
 1265.66        2966.25           1621      144382.00    640342.50
 1265.70        2966.50           1624      150786.00    669268.10
 1265.73        2966.75           1628      155714.00    691558.10
 1265.77        2967.00           1631      157503.00    699656.60
 1265.80        2967.25           1635      158707.00    705109.00
 1265.84        2967.50           1638      158512.00    704225.90
 1265.87        2967.75           1642      158343.00    703460.40
 1265.91        2968.00           1645      156876.00    696817.90
 1265.94        2968.25           1648      153896.00    683331.90
 1265.98        2968.50           1652      146453.00    649691.80
 1266.01        2968.75           1655      140008.00    620612.10
 1266.05        2969.00           1659      131835.00    583801.90
 1266.08        2969.25           1662      126418.00    559445.00
 1266.12        2969.50           1665      119254.00    527282.30
 1266.15        2969.75           1669      108037.00    477036.40
 1266.19        2970.00           1672       99985.00    441052.40
 1266.22        2970.25           1676       89316.00    393481.30
 1266.26        2970.50           1679       80766.00    355446.90
 1266.29        2970.75           1683       71851.00    315872.20
 1266.33        2971.00           1686       65180.00    286314.20
 1266.36        2971.25           1689       58776.00    257983.90
 1266.40        2971.50           1693       50487.00    221379.00
 1266.43        2971.75           1696       44993.00    197157.00
 1266.47        2972.00           1700       36942.00    161719.00
 1266.50        2972.25           1703       29632.00    129601.40
 1266.54        2972.50           1707       20084.00     87734.61
 1266.57        2972.75           1710       13775.00     60122.37
 1266.61        2973.00           1713        7395.00     32241.22
 1266.64        2973.25           1717        2831.00     12321.88
 1266.68        2973.50           1720        1340.00      5819.14
 1266.71        2973.75           1724         737.00      3189.90
 1266.75        2974.00           1727         683.00      2954.46
 1266.78        2974.25           1730         683.00      2954.46
 1266.82        2974.50           1734         689.00      2980.62
 1266.85        2974.75           1737         630.00      2723.39
 1266.89        2975.00           1741         627.00      2710.31
 1266.92        2975.25           1744         637.00      2753.91
 1266.96        2975.50           1748         624.00      2697.23
 1266.99        2975.75           1751         610.00      2636.19
 1267.03        2976.00           1754         622.00      2688.51
 1267.06        2976.25           1758         583.00      2518.48
 1267.10        2976.50           1761         628.00      2714.67
 1267.13        2976.75           1765         582.00      2514.12
 1267.17        2977.00           1768         582.00      2514.12
 1267.20        2977.25           1772         585.00      2527.20
 1267.24        2977.50           1775         582.00      2514.12
 1267.27        2977.75           1778         537.00      2317.93
 1267.30        2978.00           1782         556.00      2400.77
 1267.34        2978.25           1785         555.00      2396.41
 1267.37        2978.50           1789         518.00      2235.10
 1267.41        2978.75           1792         550.00      2374.61
 1267.44        2979.00           1795         516.00      2226.38
 1267.48        2979.25           1799         546.00      2357.17
 1267.51        2979.50           1802         497.00      2143.54
 1267.55        2979.75           1806         511.00      2204.58
 1267.58        2980.00           1809         534.00      2304.85
 1267.62        2980.25           1813         514.00      2217.66
 1267.65        2980.50           1816         498.00      2147.90
 1267.69        2980.75           1819         502.00      2165.34
 1267.72        2981.00           1823         487.00      2099.94
 1267.76        2981.25           1826         479.00      2065.07
 1267.79        2981.50           1830         502.00      2165.34
 1267.83        2981.75           1833         472.00      2034.55
 1267.86        2982.00           1837         457.00      1969.15
 1267.90        2982.25           1840         456.00      1964.79
 1267.93        2982.50           1843         472.00      2034.55
 1267.97        2982.75           1847         482.00      2078.15
 1268.00        2983.00           1850         486.00      2095.59
 1268.04        2983.25           1854         453.00      1951.72
 1268.07        2983.50           1857         434.00      1868.88
 1268.11        2983.75           1861         439.00      1890.68
 1268.14        2984.00           1864         447.00      1925.56
HS scan finished at 21:08:23
end
