************************************************************
  HS Scan of (1) Internal mercury lamp
************************************************************
Integration time is 0.2294 seconds per sample
dh250619El Arenosillo 37.1 6.73 3.19pr1000
************************************************************
Dead Time -------------------------  2.7E-08 
Number of Cycles Used -------------  4 
Starting Wavelength (Angstroms) ---  2950 
Final Wavelength (Angstoms) -------  2984 
Wavelength Increment (Angstroms) --  .25 
Filter Wheel #1 Position ---------- (1) Ground quartz diffuser (ND=2.32)
Filter Wheel #2 Position ---------- (1) Neutral Density 0.494



************************************************************
HS scan start time = 02:36:03
Dark Count =  3.7 


Time (GMT)  Wavelength (Ang)  Step Number  Raw Counts  Counts/Second

  156.79        2950.00           1399         394.00      1701.47
  156.93        2950.25           1403         424.00      1832.26
  156.97        2950.50           1406         398.00      1718.91
  157.00        2950.75           1410         417.00      1801.74
  157.04        2951.00           1413         419.00      1810.46
  157.07        2951.25           1416         393.00      1697.11
  157.11        2951.50           1420         404.00      1745.07
  157.14        2951.75           1423         410.00      1771.23
  157.18        2952.00           1427         429.00      1854.06
  157.21        2952.25           1430         435.00      1880.22
  157.25        2952.50           1433         419.00      1810.46
  157.28        2952.75           1437         455.00      1967.41
  157.32        2953.00           1440         425.00      1836.62
  157.35        2953.25           1444         420.00      1814.82
  157.39        2953.50           1447         447.00      1932.53
  157.42        2953.75           1450         431.00      1862.78
  157.46        2954.00           1454         441.00      1906.38
  157.49        2954.25           1457         442.00      1910.74
  157.53        2954.50           1461         446.00      1928.17
  157.56        2954.75           1464         452.00      1954.33
  157.60        2955.00           1468         470.00      2032.81
  157.63        2955.25           1471         463.00      2002.29
  157.67        2955.50           1474         452.00      1954.33
  157.70        2955.75           1478         488.00      2111.28
  157.74        2956.00           1481         486.00      2102.56
  157.77        2956.25           1485         511.00      2211.55
  157.81        2956.50           1488         491.00      2124.36
  157.84        2956.75           1491         480.00      2076.40
  157.88        2957.00           1495         489.00      2115.64
  157.91        2957.25           1498         506.00      2189.75
  157.95        2957.50           1502         506.00      2189.75
  157.98        2957.75           1505         570.00      2468.78
  158.02        2958.00           1508         519.00      2246.43
  158.05        2958.25           1512         559.00      2420.82
  158.09        2958.50           1515         520.00      2250.79
  158.12        2958.75           1519         571.00      2473.14
  158.15        2959.00           1522         530.00      2294.39
  158.19        2959.25           1525         553.00      2394.66
  158.22        2959.50           1529         560.00      2425.18
  158.26        2959.75           1532         561.00      2429.54
  158.29        2960.00           1536         602.00      2608.29
  158.33        2960.25           1539         585.00      2534.18
  158.36        2960.50           1543         624.00      2704.21
  158.40        2960.75           1546         616.00      2669.33
  158.43        2961.00           1549         635.00      2752.17
  158.47        2961.25           1553         954.00      4143.01
  158.50        2961.50           1556        2016.00      8774.09
  158.54        2961.75           1560        5155.00     22469.17
  158.57        2962.00           1563        9627.00     41997.47
  158.61        2962.25           1566       15578.00     68016.25
  158.64        2962.50           1570       24589.00    107483.70
  158.68        2962.75           1573       31774.00    139013.80
  158.71        2963.00           1577       39086.00    171156.60
  158.75        2963.25           1580       44792.00    196278.50
  158.78        2963.50           1584       53449.00    234458.20
  158.82        2963.75           1587       60281.00    264645.00
  158.85        2964.00           1590       66396.00    291705.60
  158.89        2964.25           1594       73985.00    325344.50
  158.92        2964.50           1597       81242.00    357569.30
  158.96        2964.75           1601       91663.00    403942.70
  158.99        2965.00           1604       98420.00    434073.80
  159.03        2965.25           1607      104459.00    461045.00
  159.06        2965.50           1611      114153.00    504422.70
  159.10        2965.75           1614      121243.00    536213.40
  159.13        2966.00           1618      129315.00    572474.10
  159.17        2966.25           1621      135412.00    599910.50
  159.20        2966.50           1624      141020.00    625182.40
  159.24        2966.75           1628      145062.00    643419.00
  159.27        2967.00           1631      146337.00    649175.20
  159.31        2967.25           1635      147016.00    652241.50
  159.34        2967.50           1638      146957.00    651975.00
  159.38        2967.75           1642      146573.00    650240.90
  159.41        2968.00           1645      145205.00    644064.50
  159.45        2968.25           1648      142296.00    630937.50
  159.48        2968.50           1652      135965.00    602400.90
  159.52        2968.75           1655      129621.00    573850.10
  159.55        2969.00           1659      121969.00    539471.70
  159.59        2969.25           1662      116066.00    512995.00
  159.62        2969.50           1665      109451.00    483369.90
  159.66        2969.75           1669      101440.00    447556.70
  159.69        2970.00           1672       94776.00    417818.20
  159.73        2970.25           1676       86080.00    379083.90
  159.76        2970.50           1679       79085.00    347985.20
  159.80        2970.75           1683       68890.00    302753.70
  159.83        2971.00           1686       60702.00    266506.70
  159.87        2971.25           1689       53502.00    234692.20
  159.90        2971.50           1693       45604.00    199856.30
  159.94        2971.75           1696       39718.00    173937.40
  159.97        2972.00           1700       31248.00    136703.80
  160.01        2972.25           1703       24021.00    104993.40
  160.04        2972.50           1707       16481.00     71967.53
  160.08        2972.75           1710       10163.00     44339.45
  160.11        2973.00           1713        5268.00     22962.36
  160.15        2973.25           1717        2240.00      9751.04
  160.18        2973.50           1720        1254.00      5451.11
  160.22        2973.75           1724         737.00      3196.88
  160.25        2974.00           1727         644.00      2791.40
  160.28        2974.25           1730         626.00      2712.93
  160.32        2974.50           1734         587.00      2542.89
  160.36        2974.75           1737         599.00      2595.21
  160.39        2975.00           1741         584.00      2529.82
  160.42        2975.25           1744         568.00      2460.06
  160.46        2975.50           1748         575.00      2490.58
  160.49        2975.75           1751         556.00      2407.74
  160.53        2976.00           1754         567.00      2455.70
  160.57        2976.25           1758         543.00      2351.07
  160.60        2976.50           1761         547.00      2368.50
  160.63        2976.75           1765         525.00      2272.59
  160.67        2977.00           1768         492.00      2128.72
  160.70        2977.25           1772         560.00      2425.18
  160.74        2977.50           1775         503.00      2176.68
  160.77        2977.75           1778         506.00      2189.75
  160.81        2978.00           1782         521.00      2255.15
  160.84        2978.25           1785         469.00      2028.45
  160.88        2978.50           1789         510.00      2207.19
  160.91        2978.75           1792         504.00      2181.04
  160.95        2979.00           1795         485.00      2098.20
  160.98        2979.25           1799         470.00      2032.81
  161.02        2979.50           1802         488.00      2111.28
  161.05        2979.75           1806         478.00      2067.68
  161.09        2980.00           1809         471.00      2037.17
  161.12        2980.25           1813         455.00      1967.41
  161.16        2980.50           1816         449.00      1941.25
  161.19        2980.75           1819         436.00      1884.58
  161.23        2981.00           1823         437.00      1888.94
  161.26        2981.25           1826         451.00      1949.97
  161.30        2981.50           1830         448.00      1936.89
  161.33        2981.75           1833         433.00      1871.50
  161.37        2982.00           1837         417.00      1801.74
  161.40        2982.25           1840         439.00      1897.66
  161.44        2982.50           1843         444.00      1919.45
  161.47        2982.75           1847         437.00      1888.94
  161.51        2983.00           1850         416.00      1797.38
  161.54        2983.25           1854         410.00      1771.23
  161.58        2983.50           1857         405.00      1749.43
  161.61        2983.75           1861         401.00      1731.99
  161.65        2984.00           1864         398.00      1718.91
HS scan finished at 02:41:53
end
