************************************************************
  HS Scan of (1) Internal mercury lamp
************************************************************
Integration time is 0.2294 seconds per sample
dh230619El Arenosillo 37.1 6.73 3pr1000
************************************************************
Dead Time -------------------------  2.7E-08 
Number of Cycles Used -------------  4 
Starting Wavelength (Angstroms) ---  2950 
Final Wavelength (Angstoms) -------  2984 
Wavelength Increment (Angstroms) --  .25 
Filter Wheel #1 Position ---------- (1) Ground quartz diffuser (ND=2.32)
Filter Wheel #2 Position ---------- (1) Neutral Density 0.494



************************************************************
HS scan start time = 01:15:50
Dark Count =  2 


Time (GMT)  Wavelength (Ang)  Step Number  Raw Counts  Counts/Second

   76.57        2950.00           1399         395.00      1713.24
   76.71        2950.25           1403         430.00      1865.83
   76.75        2950.50           1406         414.00      1796.08
   76.78        2950.75           1410         435.00      1887.63
   76.82        2951.00           1413         404.00      1752.48
   76.85        2951.25           1416         434.00      1883.27
   76.89        2951.50           1420         409.00      1774.28
   76.92        2951.75           1423         411.00      1783.00
   76.96        2952.00           1427         412.00      1787.36
   76.99        2952.25           1430         435.00      1887.63
   77.03        2952.50           1433         422.00      1830.95
   77.06        2952.75           1437         442.00      1918.15
   77.10        2953.00           1440         437.00      1896.35
   77.13        2953.25           1444         455.00      1974.82
   77.17        2953.50           1447         453.00      1966.10
   77.20        2953.75           1450         449.00      1948.66
   77.24        2954.00           1454         474.00      2057.66
   77.27        2954.25           1457         448.00      1944.30
   77.31        2954.50           1461         474.00      2057.66
   77.34        2954.75           1464         462.00      2005.34
   77.38        2955.00           1468         467.00      2027.14
   77.41        2955.25           1471         535.00      2323.60
   77.45        2955.50           1474         477.00      2070.73
   77.48        2955.75           1478         521.00      2262.56
   77.52        2956.00           1481         482.00      2092.53
   77.55        2956.25           1485         517.00      2245.12
   77.59        2956.50           1488         504.00      2188.45
   77.62        2956.75           1491         542.00      2354.12
   77.66        2957.00           1495         509.00      2210.25
   77.69        2957.25           1498         522.00      2266.92
   77.73        2957.50           1502         558.00      2423.87
   77.76        2957.75           1505         523.00      2271.28
   77.80        2958.00           1508         555.00      2410.79
   77.83        2958.25           1512         533.00      2314.88
   77.87        2958.50           1515         549.00      2384.63
   77.90        2958.75           1519         575.00      2497.99
   77.94        2959.00           1522         589.00      2559.03
   77.97        2959.25           1525         568.00      2467.47
   78.01        2959.50           1529         577.00      2506.71
   78.04        2959.75           1532         578.00      2511.07
   78.08        2960.00           1536         600.00      2606.98
   78.11        2960.25           1539         612.00      2659.30
   78.15        2960.50           1543         644.00      2798.82
   78.18        2960.75           1546         650.00      2824.98
   78.22        2961.00           1549         658.00      2859.85
   78.25        2961.25           1553         768.00      3339.45
   78.29        2961.50           1556        1449.00      6308.83
   78.32        2961.75           1560        4510.00     19661.70
   78.36        2962.00           1563        7931.00     34596.38
   78.39        2962.25           1566       13789.00     60198.02
   78.43        2962.50           1570       22462.00     98167.44
   78.46        2962.75           1573       28786.00    125902.40
   78.49        2963.00           1577       37177.00    162766.90
   78.53        2963.25           1580       43968.00    192656.10
   78.56        2963.50           1584       52519.00    230360.30
   78.60        2963.75           1587       59834.00    262675.90
   78.63        2964.00           1590       67311.00    295765.80
   78.67        2964.25           1594       79380.00    349303.30
   78.70        2964.50           1597       87622.00    385954.00
   78.74        2964.75           1601       96398.00    425059.60
   78.77        2965.00           1604      102734.00    453344.40
   78.81        2965.25           1607      108622.00    479668.30
   78.84        2965.50           1611      116594.00    515369.30
   78.88        2965.75           1614      123712.00    547304.60
   78.91        2966.00           1618      133884.00    593038.30
   78.95        2966.25           1621      140620.00    623386.40
   78.98        2966.50           1624      146062.00    647941.20
   79.02        2966.75           1628      150698.00    668885.30
   79.05        2967.00           1631      151921.00    674414.40
   79.09        2967.25           1635      152829.00    678520.50
   79.12        2967.50           1638      152661.00    677760.80
   79.16        2967.75           1642      152716.00    678009.50
   79.19        2968.00           1645      151935.00    674477.80
   79.23        2968.25           1648      148955.00    661008.10
   79.26        2968.50           1652      142624.00    632424.80
   79.30        2968.75           1655      136305.00    603940.00
   79.33        2969.00           1659      128415.00    568435.30
   79.37        2969.25           1662      122123.00    540170.60
   79.40        2969.50           1665      113697.00    502387.70
   79.44        2969.75           1669      105363.00    465093.40
   79.47        2970.00           1672       98431.00    434130.50
   79.51        2970.25           1676       87505.00    385433.20
   79.54        2970.50           1679       80930.00    356190.30
   79.58        2970.75           1683       72550.00    318986.60
   79.61        2971.00           1686       67465.00    296447.90
   79.65        2971.25           1689       59912.00    263020.80
   79.68        2971.50           1693       49267.00    216012.10
   79.72        2971.75           1696       42412.00    185803.40
   79.75        2972.00           1700       34506.00    151024.40
   79.79        2972.25           1703       27516.00    120329.30
   79.82        2972.50           1707       18402.00     80383.52
   79.86        2972.75           1710       12375.00     54015.08
   79.89        2973.00           1713        7041.00     30709.85
   79.93        2973.25           1717        3001.00     13077.85
   79.96        2973.50           1720        1640.00      7141.74
   80.00        2973.75           1724         839.00      3649.01
   80.03        2974.00           1727         687.00      2986.29
   80.07        2974.25           1730         669.00      2907.81
   80.10        2974.50           1734         640.00      2781.38
   80.14        2974.75           1737         614.00      2668.02
   80.17        2975.00           1741         630.00      2737.78
   80.21        2975.25           1744         613.00      2663.66
   80.24        2975.50           1748         580.00      2519.79
   80.28        2975.75           1751         582.00      2528.51
   80.31        2976.00           1754         595.00      2585.19
   80.35        2976.25           1758         582.00      2528.51
   80.38        2976.50           1761         579.00      2515.43
   80.42        2976.75           1765         566.00      2458.75
   80.45        2977.00           1768         553.00      2402.07
   80.49        2977.25           1772         528.00      2293.08
   80.52        2977.50           1775         539.00      2341.04
   80.56        2977.75           1778         527.00      2288.72
   80.59        2978.00           1782         532.00      2310.52
   80.63        2978.25           1785         556.00      2415.15
   80.66        2978.50           1789         518.00      2249.48
   80.69        2978.75           1792         504.00      2188.45
   80.73        2979.00           1795         525.00      2280.00
   80.76        2979.25           1799         494.00      2144.85
   80.80        2979.50           1802         522.00      2266.92
   80.83        2979.75           1806         529.00      2297.44
   80.87        2980.00           1809         481.00      2088.17
   80.90        2980.25           1813         477.00      2070.73
   80.94        2980.50           1816         479.00      2079.45
   80.97        2980.75           1819         525.00      2280.00
   81.01        2981.00           1823         463.00      2009.70
   81.04        2981.25           1826         462.00      2005.34
   81.08        2981.50           1830         467.00      2027.14
   81.11        2981.75           1833         457.00      1983.54
   81.15        2982.00           1837         429.00      1861.47
   81.18        2982.25           1840         455.00      1974.82
   81.22        2982.50           1843         451.00      1957.38
   81.25        2982.75           1847         449.00      1948.66
   81.29        2983.00           1850         422.00      1830.95
   81.32        2983.25           1854         429.00      1861.47
   81.36        2983.50           1857         447.00      1939.94
   81.39        2983.75           1861         418.00      1813.52
   81.43        2984.00           1864         430.00      1865.83
HS scan finished at 01:21:40
end
