************************************************************
  HL Scan of (1) Internal mercury lamp
************************************************************
Integration time is 0.2294 seconds per sample
dh050119Tamanrasset 22.79-5.529 4.974364pr865
************************************************************
Dead Time -------------------------  2.8E-08 
Number of Cycles Used -------------  4 
Starting Wavelength (Angstroms) ---  3331 
Final Wavelength (Angstoms) -------  3351 
Wavelength Increment (Angstroms) --  .25 
Filter Wheel #1 Position ---------- (1) Ground quartz diffuser (ND=2.32)
Filter Wheel #2 Position ---------- (0) Clear Aperture



************************************************************
HL scan start time = 04:47:21
Dark Count =  2.2 


Time (GMT)  Wavelength (Ang)  Step Number  Raw Counts  Counts/Second

  287.87        3331.00           6581          24.00        95.03
  288.08        3331.25           6585          23.00        90.67
  288.11        3331.50           6589          24.00        95.03
  288.14        3331.75           6593          25.00        99.39
  288.17        3332.00           6596          26.00       103.75
  288.19        3332.25           6600          27.00       108.11
  288.22        3332.50           6604          23.00        90.67
  288.25        3332.75           6608          30.00       121.19
  288.27        3333.00           6611          26.00       103.75
  288.30        3333.25           6615          29.00       116.83
  288.33        3333.50           6619          23.00        90.67
  288.36        3333.75           6623          26.00       103.75
  288.38        3334.00           6626          30.00       121.19
  288.41        3334.25           6630          27.00       108.11
  288.44        3334.50           6634          26.00       103.75
  288.47        3334.75           6638          27.00       108.11
  288.49        3335.00           6641          21.00        81.95
  288.52        3335.25           6645          36.00       147.34
  288.55        3335.50           6649          30.00       121.19
  288.57        3335.75           6653          33.00       134.26
  288.60        3336.00           6656          40.00       164.78
  288.63        3336.25           6660         109.00       465.57
  288.66        3336.50           6664         348.00      1507.47
  288.68        3336.75           6668         638.00      2771.79
  288.71        3337.00           6671        1023.00      4450.42
  288.74        3337.25           6675        2039.00      8881.02
  288.76        3337.50           6679        3294.00     14355.38
  288.79        3337.75           6683        4557.00     19866.32
  288.82        3338.00           6686        5632.00     24558.29
  288.85        3338.25           6690        6966.00     30382.42
  288.87        3338.50           6694        8375.00     36536.05
  288.90        3338.75           6698        9686.00     42263.59
  288.93        3339.00           6701       10707.00     46725.44
  288.96        3339.25           6705       12049.00     52591.78
  288.98        3339.50           6709       13479.00     58844.92
  289.01        3339.75           6713       14865.00     64907.74
  289.04        3340.00           6716       15877.00     69335.88
  289.06        3340.25           6720       17239.00     75297.21
  289.09        3340.50           6724       18677.00     81593.36
  289.12        3340.75           6728       19908.00     86984.93
  289.15        3341.00           6731       20883.00     91256.43
  289.17        3341.25           6735       22114.00     96650.92
  289.20        3341.50           6739       23136.00    101130.80
  289.23        3341.75           6743       23774.00    103928.00
  289.26        3342.00           6746       23806.00    104068.30
  289.28        3342.25           6750       23671.00    103476.40
  289.31        3342.50           6754       23168.00    101271.10
  289.34        3342.75           6758       22000.00     96151.29
  289.37        3343.00           6761       21059.00     92027.59
  289.39        3343.25           6765       19599.00     85631.41
  289.42        3343.50           6769       18480.00     80730.68
  289.45        3343.75           6773       16953.00     74045.26
  289.48        3344.00           6776       15977.00     69773.49
  289.50        3344.25           6780       14735.00     64339.00
  289.53        3344.50           6784       13282.00     57983.34
  289.56        3344.75           6788       11799.00     51498.80
  289.58        3345.00           6791       10779.00     47040.12
  289.61        3345.25           6795        9478.00     41354.75
  289.64        3345.50           6799        7615.00     33216.59
  289.67        3345.75           6803        5932.00     25867.90
  289.69        3346.00           6806        4826.00     21040.29
  289.72        3346.25           6810        3659.00     15947.84
  289.75        3346.50           6814        2754.00     11999.67
  289.78        3346.75           6818        1833.00      7982.60
  289.80        3347.00           6821        1189.00      5174.25
  289.83        3347.25           6825         456.00      1978.31
  289.86        3347.50           6829         113.00       483.01
  289.88        3347.75           6833          32.00       129.90
  289.91        3348.00           6836          38.00       156.06
  289.94        3348.25           6840          30.00       121.19
  289.97        3348.50           6844          29.00       116.83
  289.99        3348.75           6848          27.00       108.11
  290.02        3349.00           6851          33.00       134.26
  290.05        3349.25           6855          30.00       121.19
  290.07        3349.50           6859          27.00       108.11
  290.10        3349.75           6863          33.00       134.26
  290.13        3350.00           6867          33.00       134.26
  290.16        3350.25           6870          30.00       121.19
  290.18        3350.50           6874          27.00       108.11
  290.21        3350.75           6878          32.00       129.90
  290.24        3351.00           6882          30.00       121.19
HL scan finished at 04:50:52
end
