************************************************************
  HL Scan of (1) Internal mercury lamp
************************************************************
Integration time is 0.2294 seconds per sample
dh070119Tamanrasset 22.79-5.529 4.974364pr865
************************************************************
Dead Time -------------------------  2.8E-08 
Number of Cycles Used -------------  4 
Starting Wavelength (Angstroms) ---  3331 
Final Wavelength (Angstoms) -------  3351 
Wavelength Increment (Angstroms) --  .25 
Filter Wheel #1 Position ---------- (1) Ground quartz diffuser (ND=2.32)
Filter Wheel #2 Position ---------- (0) Clear Aperture



************************************************************
HL scan start time = 04:47:22
Dark Count =  3.5 


Time (GMT)  Wavelength (Ang)  Step Number  Raw Counts  Counts/Second

  287.88        3331.00           6581          27.00       102.44
  288.10        3331.25           6585          23.00        85.00
  288.13        3331.50           6589          27.00       102.44
  288.15        3331.75           6593          26.00        98.08
  288.18        3332.00           6596          25.00        93.72
  288.21        3332.25           6600          29.00       111.16
  288.24        3332.50           6604          26.00        98.08
  288.26        3332.75           6608          27.00       102.44
  288.29        3333.00           6611          24.00        89.36
  288.32        3333.25           6615          27.00       102.44
  288.34        3333.50           6619          33.00       128.60
  288.37        3333.75           6623          28.00       106.80
  288.40        3334.00           6626          25.00        93.72
  288.43        3334.25           6630          29.00       111.16
  288.45        3334.50           6634          27.00       102.44
  288.48        3334.75           6638          26.00        98.08
  288.51        3335.00           6641          31.00       119.88
  288.53        3335.25           6645          32.00       124.24
  288.56        3335.50           6649          31.00       119.88
  288.59        3335.75           6653          34.00       132.96
  288.62        3336.00           6656          43.00       172.19
  288.64        3336.25           6660         122.00       516.57
  288.67        3336.50           6664         376.00      1623.88
  288.70        3336.75           6668         619.00      2683.29
  288.73        3337.00           6671        1096.00      4763.06
  288.75        3337.25           6675        2173.00      9459.79
  288.78        3337.50           6679        3384.00     14742.35
  288.81        3337.75           6683        4635.00     20201.05
  288.83        3338.00           6686        5813.00     25342.74
  288.86        3338.25           6690        7165.00     31245.72
  288.89        3338.50           6694        8525.00     37185.61
  288.92        3338.75           6698        9876.00     43088.14
  288.94        3339.00           6701       10926.00     47676.95
  288.97        3339.25           6705       12265.00     53530.48
  289.00        3339.50           6709       13666.00     59657.11
  289.03        3339.75           6713       14999.00     65488.33
  289.05        3340.00           6716       16096.00     70288.60
  289.08        3340.25           6720       17479.00     76342.18
  289.11        3340.50           6724       18907.00     82594.90
  289.14        3340.75           6728       20065.00     87666.99
  289.16        3341.00           6731       21035.00     91916.74
  289.19        3341.25           6735       22155.00     96824.91
  289.22        3341.50           6739       23086.00    100905.90
  289.24        3341.75           6743       23774.00    103922.30
  289.27        3342.00           6746       23874.00    104360.70
  289.30        3342.25           6750       23776.00    103931.00
  289.33        3342.50           6754       23000.00    100528.90
  289.35        3342.75           6758       22102.00     96592.62
  289.38        3343.00           6761       20980.00     91675.75
  289.41        3343.25           6765       19688.00     86015.55
  289.44        3343.50           6769       18319.00     80019.98
  289.46        3343.75           6773       17135.00     74836.25
  289.49        3344.00           6776       15861.00     69260.18
  289.52        3344.25           6780       14521.00     63397.10
  289.54        3344.50           6784       13174.00     57505.34
  289.57        3344.75           6788       11767.00     51353.22
  289.60        3345.00           6791       10648.00     46461.89
  289.63        3345.25           6795        9315.00     40636.88
  289.65        3345.50           6799        7633.00     33289.52
  289.68        3345.75           6803        5777.00     25185.59
  289.71        3346.00           6806        4634.00     20196.68
  289.74        3346.25           6810        3509.00     15287.71
  289.76        3346.50           6814        2874.00     12517.47
  289.79        3346.75           6818        1847.00      8037.99
  289.82        3347.00           6821        1141.00      4959.28
  289.85        3347.25           6825         440.00      1902.89
  289.87        3347.50           6829         112.00       472.98
  289.90        3347.75           6833          36.00       141.67
  289.93        3348.00           6836          32.00       124.24
  289.95        3348.25           6840          39.00       154.75
  289.98        3348.50           6844          32.00       124.24
  290.01        3348.75           6848          32.00       124.24
  290.04        3349.00           6851          33.00       128.60
  290.06        3349.25           6855          28.00       106.80
  290.09        3349.50           6859          34.00       132.96
  290.12        3349.75           6863          31.00       119.88
  290.14        3350.00           6867          32.00       124.24
  290.17        3350.25           6870          28.00       106.80
  290.20        3350.50           6874          30.00       115.52
  290.23        3350.75           6878          28.00       106.80
  290.25        3351.00           6882          31.00       119.88
HL scan finished at 04:50:52
end
