************************************************************
  HL Scan of (1) Internal mercury lamp
************************************************************
Integration time is 0.2294 seconds per sample
dh030119Tamanrasset 22.79-5.529 4.974364pr865
************************************************************
Dead Time -------------------------  2.8E-08 
Number of Cycles Used -------------  4 
Starting Wavelength (Angstroms) ---  3331 
Final Wavelength (Angstoms) -------  3351 
Wavelength Increment (Angstroms) --  .25 
Filter Wheel #1 Position ---------- (1) Ground quartz diffuser (ND=2.32)
Filter Wheel #2 Position ---------- (0) Clear Aperture



************************************************************
HL scan start time = 04:46:21
Dark Count =  5.8 


Time (GMT)  Wavelength (Ang)  Step Number  Raw Counts  Counts/Second

  286.85        3331.00           6581          28.00        96.77
  287.07        3331.25           6585          29.00       101.13
  287.10        3331.50           6589          26.00        88.06
  287.13        3331.75           6593          34.00       122.93
  287.15        3332.00           6596          27.00        92.42
  287.18        3332.25           6600          29.00       101.13
  287.21        3332.50           6604          23.00        74.98
  287.24        3332.75           6608          27.00        92.42
  287.26        3333.00           6611          28.00        96.77
  287.29        3333.25           6615          26.00        88.06
  287.32        3333.50           6619          27.00        92.42
  287.34        3333.75           6623          29.00       101.13
  287.37        3334.00           6626          27.00        92.42
  287.40        3334.25           6630          24.00        79.34
  287.43        3334.50           6634          25.00        83.70
  287.45        3334.75           6638          25.00        83.70
  287.48        3335.00           6641          26.00        88.06
  287.51        3335.25           6645          29.00       101.13
  287.53        3335.50           6649          31.00       109.85
  287.56        3335.75           6653          36.00       131.65
  287.59        3336.00           6656          42.00       157.80
  287.62        3336.25           6660         143.00       598.09
  287.64        3336.50           6664         433.00      1862.35
  287.67        3336.75           6668         770.00      3331.61
  287.70        3337.00           6671        1298.00      5633.84
  287.72        3337.25           6675        2362.00     10274.10
  287.75        3337.50           6679        3671.00     15984.49
  287.78        3337.75           6683        4917.00     21421.74
  287.81        3338.00           6686        5929.00     25839.09
  287.83        3338.25           6690        7368.00     32122.17
  287.86        3338.50           6694        8714.00     38001.18
  287.89        3338.75           6698       10032.00     43759.78
  287.92        3339.00           6701       11084.00     48357.51
  287.94        3339.25           6705       12501.00     54552.32
  287.97        3339.50           6709       13736.00     59953.22
  288.00        3339.75           6713       15256.00     66602.73
  288.03        3340.00           6716       16168.00     70593.65
  288.05        3340.25           6720       17668.00     77159.55
  288.08        3340.50           6724       18986.00     82930.80
  288.11        3340.75           6728       20268.00     88546.21
  288.13        3341.00           6731       21260.00     92892.56
  288.16        3341.25           6735       22439.00     98059.62
  288.19        3341.50           6739       23273.00    101715.60
  288.22        3341.75           6743       23696.00    103570.20
  288.24        3342.00           6746       23708.00    103622.80
  288.27        3342.25           6750       23468.00    102570.50
  288.30        3342.50           6754       22805.00     99663.96
  288.33        3342.75           6758       21319.00     93151.09
  288.35        3343.00           6761       20682.00     90359.98
  288.38        3343.25           6765       19020.00     83079.70
  288.41        3343.50           6769       17983.00     78538.71
  288.44        3343.75           6773       16571.00     72357.44
  288.46        3344.00           6776       15493.00     67639.75
  288.49        3344.25           6780       14157.00     61794.71
  288.52        3344.50           6784       12817.00     55934.09
  288.54        3344.75           6788       11515.00     50241.51
  288.57        3345.00           6791       10426.00     45481.60
  288.60        3345.25           6795        9069.00     39552.06
  288.63        3345.50           6799        7319.00     31908.18
  288.65        3345.75           6803        5502.00     23975.11
  288.68        3346.00           6806        4298.00     18720.36
  288.71        3346.25           6810        3326.00     14479.28
  288.74        3346.50           6814        2486.00     10814.96
  288.76        3346.75           6818        1642.00      7133.94
  288.79        3347.00           6821         984.00      4264.68
  288.82        3347.25           6825         346.00      1483.06
  288.84        3347.50           6829          75.00       301.66
  288.87        3347.75           6833          37.00       136.01
  288.90        3348.00           6836          34.00       122.93
  288.92        3348.25           6840          32.00       114.21
  288.95        3348.50           6844          26.00        88.06
  288.98        3348.75           6848          29.00       101.13
  289.01        3349.00           6851          27.00        92.42
  289.03        3349.25           6855          33.00       118.57
  289.06        3349.50           6859          29.00       101.13
  289.09        3349.75           6863          34.00       122.93
  289.12        3350.00           6867          34.00       122.93
  289.14        3350.25           6870          33.00       118.57
  289.17        3350.50           6874          30.00       105.49
  289.20        3350.75           6878          31.00       109.85
  289.22        3351.00           6882          31.00       109.85
HL scan finished at 04:49:51
end
