************************************************************
  HL Scan of (1) Internal mercury lamp
************************************************************
Integration time is 0.2294 seconds per sample
dh090119Tamanrasset 22.79-5.529 4.974364pr865
************************************************************
Dead Time -------------------------  2.8E-08 
Number of Cycles Used -------------  4 
Starting Wavelength (Angstroms) ---  3331 
Final Wavelength (Angstoms) -------  3351 
Wavelength Increment (Angstroms) --  .25 
Filter Wheel #1 Position ---------- (1) Ground quartz diffuser (ND=2.32)
Filter Wheel #2 Position ---------- (0) Clear Aperture



************************************************************
HL scan start time = 04:49:18
Dark Count =  3.5 


Time (GMT)  Wavelength (Ang)  Step Number  Raw Counts  Counts/Second

  289.82        3331.00           6581          29.00       111.16
  290.03        3331.25           6585          26.00        98.08
  290.06        3331.50           6589          30.00       115.52
  290.09        3331.75           6593          30.00       115.52
  290.11        3332.00           6596          28.00       106.80
  290.14        3332.25           6600          29.00       111.16
  290.17        3332.50           6604          27.00       102.44
  290.20        3332.75           6608          29.00       111.16
  290.22        3333.00           6611          29.00       111.16
  290.25        3333.25           6615          26.00        98.08
  290.28        3333.50           6619          27.00       102.44
  290.31        3333.75           6623          28.00       106.80
  290.33        3334.00           6626          27.00       102.44
  290.36        3334.25           6630          25.00        93.72
  290.39        3334.50           6634          29.00       111.16
  290.41        3334.75           6638          23.00        85.00
  290.44        3335.00           6641          34.00       132.96
  290.47        3335.25           6645          30.00       115.52
  290.50        3335.50           6649          37.00       146.03
  290.52        3335.75           6653          36.00       141.67
  290.55        3336.00           6656          44.00       176.55
  290.58        3336.25           6660         185.00       791.21
  290.61        3336.50           6664         598.00      2591.73
  290.63        3336.75           6668         938.00      4074.14
  290.66        3337.00           6671        1491.00      6485.48
  290.69        3337.25           6675        2636.00     11479.28
  290.71        3337.50           6679        3938.00     17159.51
  290.74        3337.75           6683        5218.00     22745.52
  290.77        3338.00           6686        6237.00     27193.76
  290.80        3338.25           6690        7745.00     33778.67
  290.82        3338.50           6694        9051.00     39483.47
  290.85        3338.75           6698       10463.00     45653.35
  290.88        3339.00           6701       11636.00     50780.53
  290.91        3339.25           6705       12892.00     56272.12
  290.93        3339.50           6709       14212.00     62045.36
  290.96        3339.75           6713       15688.00     68503.12
  290.99        3340.00           6716       16716.00     73002.16
  291.01        3340.25           6720       18135.00     79214.31
  291.04        3340.50           6724       19447.00     84959.94
  291.07        3340.75           6728       20695.00     90427.01
  291.10        3341.00           6731       21687.00     94773.84
  291.12        3341.25           6735       22802.00     99660.89
  291.15        3341.50           6739       23675.00    103488.20
  291.18        3341.75           6743       23967.00    104768.50
  291.21        3342.00           6746       24026.00    105027.20
  291.23        3342.25           6750       23465.00    102567.50
  291.26        3342.50           6754       22841.00     99831.85
  291.29        3342.75           6758       21439.00     93687.02
  291.32        3343.00           6761       20474.00     89458.77
  291.34        3343.25           6765       19221.00     83970.09
  291.37        3343.50           6769       17982.00     78544.40
  291.40        3343.75           6773       16376.00     71514.03
  291.42        3344.00           6776       15379.00     67151.00
  291.45        3344.25           6780       14045.00     61314.86
  291.48        3344.50           6784       12596.00     54977.77
  291.51        3344.75           6788       11222.00     48970.77
  291.53        3345.00           6791       10098.00     44058.25
  291.56        3345.25           6795        8667.00     37805.91
  291.59        3345.50           6799        7015.00     30590.71
  291.62        3345.75           6803        5308.00     23138.35
  291.64        3346.00           6806        4028.00     17552.22
  291.67        3346.25           6810        2901.00     12635.25
  291.70        3346.50           6814        1962.00      8539.53
  291.73        3346.75           6818        1328.00      5774.69
  291.75        3347.00           6821         763.00      3311.12
  291.78        3347.25           6825         217.00       930.71
  291.81        3347.50           6829          46.00       185.27
  291.83        3347.75           6833          37.00       146.03
  291.86        3348.00           6836          34.00       132.96
  291.89        3348.25           6840          32.00       124.24
  291.92        3348.50           6844          37.00       146.03
  291.94        3348.75           6848          29.00       111.16
  291.97        3349.00           6851          32.00       124.24
  292.00        3349.25           6855          33.00       128.60
  292.02        3349.50           6859          31.00       119.88
  292.05        3349.75           6863          32.00       124.24
  292.08        3350.00           6867          29.00       111.16
  292.11        3350.25           6870          32.00       124.24
  292.13        3350.50           6874          33.00       128.60
  292.16        3350.75           6878          29.00       111.16
  292.19        3351.00           6882          33.00       128.60
HL scan finished at 04:52:49
end
