************************************************************
  HL Scan of (1) Internal mercury lamp
************************************************************
Integration time is 0.2294 seconds per sample
dh060119Tamanrasset 22.79-5.529 4.974364pr865
************************************************************
Dead Time -------------------------  2.8E-08 
Number of Cycles Used -------------  4 
Starting Wavelength (Angstroms) ---  3331 
Final Wavelength (Angstoms) -------  3351 
Wavelength Increment (Angstroms) --  .25 
Filter Wheel #1 Position ---------- (1) Ground quartz diffuser (ND=2.32)
Filter Wheel #2 Position ---------- (0) Clear Aperture



************************************************************
HL scan start time = 04:47:51
Dark Count =  3.6 


Time (GMT)  Wavelength (Ang)  Step Number  Raw Counts  Counts/Second

  288.37        3331.00           6581          23.00        84.57
  288.59        3331.25           6585          31.00       119.44
  288.61        3331.50           6589          29.00       110.72
  288.64        3331.75           6593          29.00       110.72
  288.67        3332.00           6596          28.00       106.36
  288.70        3332.25           6600          29.00       110.72
  288.72        3332.50           6604          30.00       115.08
  288.75        3332.75           6608          29.00       110.72
  288.78        3333.00           6611          27.00       102.01
  288.80        3333.25           6615          27.00       102.01
  288.83        3333.50           6619          27.00       102.01
  288.86        3333.75           6623          20.00        71.49
  288.89        3334.00           6626          28.00       106.36
  288.91        3334.25           6630          27.00       102.01
  288.94        3334.50           6634          30.00       115.08
  288.97        3334.75           6638          29.00       110.72
  288.99        3335.00           6641          30.00       115.08
  289.02        3335.25           6645          35.00       136.88
  289.05        3335.50           6649          28.00       106.36
  289.08        3335.75           6653          38.00       149.96
  289.10        3336.00           6656          41.00       163.03
  289.13        3336.25           6660         173.00       738.46
  289.16        3336.50           6664         498.00      2155.32
  289.18        3336.75           6668         725.00      3145.00
  289.21        3337.00           6671        1248.00      5425.41
  289.24        3337.25           6675        2299.00     10008.91
  289.27        3337.50           6679        3619.00     15767.20
  289.29        3337.75           6683        4830.00     21051.64
  289.32        3338.00           6686        5796.00     25268.09
  289.35        3338.25           6690        7248.00     31607.73
  289.38        3338.50           6694        8618.00     37591.43
  289.40        3338.75           6698       10045.00     43826.20
  289.43        3339.00           6701       10960.00     47825.12
  289.46        3339.25           6705       12279.00     53591.26
  289.49        3339.50           6709       13660.00     59630.44
  289.51        3339.75           6713       15023.00     65592.90
  289.54        3340.00           6716       16159.00     70563.86
  289.57        3340.25           6720       17557.00     76683.23
  289.59        3340.50           6724       18825.00     82235.35
  289.62        3340.75           6728       19943.00     87132.12
  289.65        3341.00           6731       21040.00     91938.21
  289.68        3341.25           6735       22112.00     96636.02
  289.70        3341.50           6739       23128.00    101089.60
  289.73        3341.75           6743       23707.00    103628.10
  289.76        3342.00           6746       23660.00    103422.00
  289.79        3342.25           6750       23460.00    102545.10
  289.81        3342.50           6754       22829.00     99778.81
  289.84        3342.75           6758       21587.00     94335.16
  289.87        3343.00           6761       20619.00     90093.59
  289.89        3343.25           6765       19279.00     84223.68
  289.92        3343.50           6769       17984.00     78552.71
  289.95        3343.75           6773       16741.00     73111.16
  289.98        3344.00           6776       15488.00     67627.50
  290.00        3344.25           6780       14382.00     62788.59
  290.03        3344.50           6784       12911.00     56354.77
  290.06        3344.75           6788       11603.00     50635.83
  290.09        3345.00           6791       10452.00     45604.85
  290.11        3345.25           6795        9153.00     39928.67
  290.14        3345.50           6799        7479.00     32616.52
  290.17        3345.75           6803        5709.00     24888.31
  290.20        3346.00           6806        4506.00     19637.65
  290.22        3346.25           6810        3229.00     14065.70
  290.25        3346.50           6814        2411.00     10497.42
  290.28        3346.75           6818        1625.00      7069.40
  290.30        3347.00           6821        1007.00      4374.56
  290.33        3347.25           6825         362.00      1562.40
  290.36        3347.50           6829          81.00       337.41
  290.39        3347.75           6833          34.00       132.52
  290.41        3348.00           6836          26.00        97.65
  290.44        3348.25           6840          34.00       132.52
  290.47        3348.50           6844          34.00       132.52
  290.50        3348.75           6848          30.00       115.08
  290.52        3349.00           6851          34.00       132.52
  290.55        3349.25           6855          29.00       110.72
  290.58        3349.50           6859          29.00       110.72
  290.60        3349.75           6863          31.00       119.44
  290.63        3350.00           6867          26.00        97.65
  290.66        3350.25           6870          33.00       128.16
  290.69        3350.50           6874          33.00       128.16
  290.71        3350.75           6878          32.00       123.80
  290.74        3351.00           6882          34.00       132.52
HL scan finished at 04:51:22
end
