************************************************************
  HL Scan of (1) Internal mercury lamp
************************************************************
Integration time is 0.2294 seconds per sample
dh080119Tamanrasset 22.79-5.529 4.974364pr865
************************************************************
Dead Time -------------------------  2.8E-08 
Number of Cycles Used -------------  4 
Starting Wavelength (Angstroms) ---  3331 
Final Wavelength (Angstoms) -------  3351 
Wavelength Increment (Angstroms) --  .25 
Filter Wheel #1 Position ---------- (1) Ground quartz diffuser (ND=2.32)
Filter Wheel #2 Position ---------- (0) Clear Aperture



************************************************************
HL scan start time = 04:48:32
Dark Count =  1.7 


Time (GMT)  Wavelength (Ang)  Step Number  Raw Counts  Counts/Second

  289.04        3331.00           6581          25.00       101.57
  289.26        3331.25           6585          26.00       105.93
  289.28        3331.50           6589          27.00       110.29
  289.31        3331.75           6593          28.00       114.65
  289.34        3332.00           6596          28.00       114.65
  289.36        3332.25           6600          25.00       101.57
  289.39        3332.50           6604          27.00       110.29
  289.42        3332.75           6608          28.00       114.65
  289.45        3333.00           6611          33.00       136.44
  289.47        3333.25           6615          27.00       110.29
  289.50        3333.50           6619          26.00       105.93
  289.53        3333.75           6623          26.00       105.93
  289.55        3334.00           6626          32.00       132.08
  289.58        3334.25           6630          29.00       119.01
  289.61        3334.50           6634          27.00       110.29
  289.64        3334.75           6638          29.00       119.01
  289.66        3335.00           6641          28.00       114.65
  289.69        3335.25           6645          31.00       127.72
  289.72        3335.50           6649          35.00       145.16
  289.74        3335.75           6653          35.00       145.16
  289.77        3336.00           6656          43.00       180.04
  289.80        3336.25           6660         113.00       485.19
  289.83        3336.50           6664         359.00      1557.61
  289.85        3336.75           6668         659.00      2865.53
  289.88        3337.00           6671        1207.00      5254.91
  289.91        3337.25           6675        2264.00      9864.54
  289.93        3337.50           6679        3610.00     15736.23
  289.96        3337.75           6683        4905.00     21387.26
  289.99        3338.00           6686        5898.00     25721.66
  290.02        3338.25           6690        7305.00     31864.95
  290.04        3338.50           6694        8618.00     37599.72
  290.07        3338.75           6698        9930.00     43331.97
  290.10        3339.00           6701       11058.00     48261.78
  290.13        3339.25           6705       12530.00     54697.05
  290.15        3339.50           6709       13837.00     60412.92
  290.18        3339.75           6713       15300.00     66813.20
  290.21        3340.00           6716       16337.00     71351.21
  290.23        3340.25           6720       17746.00     77519.00
  290.26        3340.50           6724       19203.00     83899.13
  290.29        3340.75           6728       20477.00     89479.79
  290.32        3341.00           6731       21229.00     92774.69
  290.34        3341.25           6735       22427.00     98025.01
  290.37        3341.50           6739       23289.00    101803.70
  290.40        3341.75           6743       24101.00    105364.00
  290.43        3342.00           6746       24147.00    105565.70
  290.45        3342.25           6750       23843.00    104232.70
  290.48        3342.50           6754       23122.00    101071.60
  290.51        3342.75           6758       21950.00     95934.34
  290.54        3343.00           6761       21076.00     92104.27
  290.56        3343.25           6765       19706.00     86102.28
  290.59        3343.50           6769       18354.00     80181.13
  290.62        3343.75           6773       17048.00     74463.30
  290.64        3344.00           6776       15843.00     69189.27
  290.67        3344.25           6780       14471.00     63186.23
  290.70        3344.50           6784       13159.00     57447.61
  290.73        3344.75           6788       11625.00     50740.30
  290.75        3345.00           6791       10552.00     46050.19
  290.78        3345.25           6795        9234.00     40290.85
  290.81        3345.50           6799        7516.00     32786.40
  290.84        3345.75           6803        5583.00     24346.58
  290.86        3346.00           6806        4485.00     19554.30
  290.89        3346.25           6810        3637.00     15854.03
  290.92        3346.50           6814        2721.00     11857.90
  290.94        3346.75           6818        1708.00      7439.65
  290.97        3347.00           6821        1074.00      4674.98
  291.00        3347.25           6825         396.00      1718.91
  291.03        3347.50           6829          92.00       393.64
  291.05        3347.75           6833          41.00       171.32
  291.08        3348.00           6836          29.00       119.01
  291.11        3348.25           6840          28.00       114.65
  291.14        3348.50           6844          36.00       149.52
  291.16        3348.75           6848          28.00       114.65
  291.19        3349.00           6851          31.00       127.72
  291.22        3349.25           6855          29.00       119.01
  291.24        3349.50           6859          28.00       114.65
  291.27        3349.75           6863          34.00       140.80
  291.30        3350.00           6867          33.00       136.44
  291.33        3350.25           6870          26.00       105.93
  291.35        3350.50           6874          27.00       110.29
  291.38        3350.75           6878          29.00       119.01
  291.41        3351.00           6882          30.00       123.37
HL scan finished at 04:52:02
end
