************************************************************
  HL Scan of (1) Internal mercury lamp
************************************************************
Integration time is 0.2294 seconds per sample
dh020119Tamanrasset 22.79-5.529 4.974364pr865
************************************************************
Dead Time -------------------------  2.8E-08 
Number of Cycles Used -------------  4 
Starting Wavelength (Angstroms) ---  3331 
Final Wavelength (Angstoms) -------  3351 
Wavelength Increment (Angstroms) --  .25 
Filter Wheel #1 Position ---------- (1) Ground quartz diffuser (ND=2.32)
Filter Wheel #2 Position ---------- (0) Clear Aperture



************************************************************
HL scan start time = 04:46:40
Dark Count =  5.5 


Time (GMT)  Wavelength (Ang)  Step Number  Raw Counts  Counts/Second

  287.18        3331.00           6581          30.00       106.80
  287.40        3331.25           6585          31.00       111.16
  287.43        3331.50           6589          29.00       102.44
  287.45        3331.75           6593          33.00       119.88
  287.48        3332.00           6596          27.00        93.72
  287.51        3332.25           6600          30.00       106.80
  287.54        3332.50           6604          27.00        93.72
  287.56        3332.75           6608          21.00        67.57
  287.59        3333.00           6611          27.00        93.72
  287.62        3333.25           6615          29.00       102.44
  287.64        3333.50           6619          24.00        80.65
  287.67        3333.75           6623          28.00        98.08
  287.70        3334.00           6626          28.00        98.08
  287.73        3334.25           6630          36.00       132.96
  287.75        3334.50           6634          31.00       111.16
  287.78        3334.75           6638          26.00        89.36
  287.81        3335.00           6641          33.00       119.88
  287.83        3335.25           6645          26.00        89.36
  287.86        3335.50           6649          34.00       124.24
  287.89        3335.75           6653          30.00       106.80
  287.92        3336.00           6656          46.00       176.55
  287.94        3336.25           6660         141.00       590.68
  287.97        3336.50           6664         398.00      1711.07
  288.00        3336.75           6668         718.00      3106.20
  288.03        3337.00           6671        1177.00      5107.53
  288.05        3337.25           6675        2220.00      9656.06
  288.08        3337.50           6679        3522.00     15335.70
  288.11        3337.75           6683        4805.00     20934.24
  288.14        3338.00           6686        5839.00     25447.51
  288.16        3338.25           6690        7261.00     31656.21
  288.19        3338.50           6694        8703.00     37954.44
  288.22        3338.75           6698        9988.00     43568.82
  288.25        3339.00           6701       10965.00     47838.67
  288.27        3339.25           6705       12318.00     53753.47
  288.30        3339.50           6709       13840.00     60409.42
  288.33        3339.75           6713       15107.00     65952.11
  288.35        3340.00           6716       16020.00     69947.24
  288.38        3340.25           6720       17474.00     76311.53
  288.41        3340.50           6724       18733.00     81824.13
  288.44        3340.75           6728       20344.00     88880.46
  288.46        3341.00           6731       21079.00     92100.78
  288.49        3341.25           6735       22266.00     97302.68
  288.52        3341.50           6739       23074.00    100844.50
  288.55        3341.75           6743       23680.00    103501.40
  288.57        3342.00           6746       23895.00    104444.10
  288.60        3342.25           6750       23551.00    102935.80
  288.63        3342.50           6754       22775.00     99533.77
  288.65        3342.75           6758       21494.00     93919.28
  288.68        3343.00           6761       20576.00     89896.88
  288.71        3343.25           6765       19199.00     83864.96
  288.74        3343.50           6769       17905.00     78198.50
  288.76        3343.75           6773       16593.00     72455.04
  288.79        3344.00           6776       15619.00     68192.41
  288.82        3344.25           6780       14159.00     61804.77
  288.85        3344.50           6784       12787.00     55804.22
  288.87        3344.75           6788       11381.00     49657.06
  288.90        3345.00           6791       10416.00     45439.21
  288.93        3345.25           6795        9023.00     39352.40
  288.96        3345.50           6799        7236.00     31547.04
  288.98        3345.75           6803        5679.00     24749.06
  289.01        3346.00           6806        4482.00     19524.62
  289.04        3346.25           6810        3320.00     14454.41
  289.06        3346.50           6814        2401.00     10445.51
  289.09        3346.75           6818        1606.00      6978.26
  289.12        3347.00           6821        1036.00      4492.72
  289.15        3347.25           6825         340.00      1458.21
  289.17        3347.50           6829          80.00       324.76
  289.20        3347.75           6833          31.00       111.16
  289.23        3348.00           6836          31.00       111.16
  289.25        3348.25           6840          29.00       102.44
  289.28        3348.50           6844          29.00       102.44
  289.31        3348.75           6848          29.00       102.44
  289.34        3349.00           6851          31.00       111.16
  289.36        3349.25           6855          29.00       102.44
  289.39        3349.50           6859          29.00       102.44
  289.42        3349.75           6863          31.00       111.16
  289.44        3350.00           6867          31.00       111.16
  289.47        3350.25           6870          29.00       102.44
  289.50        3350.50           6874          32.00       115.52
  289.53        3350.75           6878          28.00        98.08
  289.55        3351.00           6882          31.00       111.16
HL scan finished at 04:50:11
end
