************************************************************
  HL Scan of (1) Internal mercury lamp
************************************************************
Integration time is 0.2294 seconds per sample
dh190119Tamanrasset 22.79-5.529 4.974364pr865
************************************************************
Dead Time -------------------------  2.8E-08 
Number of Cycles Used -------------  4 
Starting Wavelength (Angstroms) ---  3331 
Final Wavelength (Angstoms) -------  3351 
Wavelength Increment (Angstroms) --  .25 
Filter Wheel #1 Position ---------- (1) Ground quartz diffuser (ND=2.32)
Filter Wheel #2 Position ---------- (0) Clear Aperture



************************************************************
HL scan start time = 04:48:31
Dark Count =  5.4 


Time (GMT)  Wavelength (Ang)  Step Number  Raw Counts  Counts/Second

  289.03        3331.00           6581          25.00        85.44
  289.25        3331.25           6585          25.00        85.44
  289.27        3331.50           6589          26.00        89.80
  289.30        3331.75           6593          29.00       102.88
  289.33        3332.00           6596          27.00        94.16
  289.36        3332.25           6600          30.00       107.24
  289.38        3332.50           6604          27.00        94.16
  289.41        3332.75           6608          28.00        98.52
  289.44        3333.00           6611          29.00       102.88
  289.47        3333.25           6615          30.00       107.24
  289.49        3333.50           6619          29.00       102.88
  289.52        3333.75           6623          29.00       102.88
  289.55        3334.00           6626          33.00       120.31
  289.57        3334.25           6630          32.00       115.96
  289.60        3334.50           6634          30.00       107.24
  289.63        3334.75           6638          25.00        85.44
  289.66        3335.00           6641          37.00       137.75
  289.68        3335.25           6645          34.00       124.67
  289.71        3335.50           6649          32.00       115.96
  289.74        3335.75           6653          36.00       133.39
  289.76        3336.00           6656          48.00       185.70
  289.79        3336.25           6660         170.00       717.54
  289.82        3336.50           6664         502.00      2164.91
  289.85        3336.75           6668         698.00      3019.44
  289.87        3337.00           6671        1231.00      5343.43
  289.90        3337.25           6675        2282.00      9926.91
  289.93        3337.50           6679        3631.00     15811.71
  289.96        3337.75           6683        5026.00     21899.21
  289.98        3338.00           6686        6140.00     26761.98
  290.01        3338.25           6690        7628.00     33259.38
  290.04        3338.50           6694        9092.00     39654.29
  290.06        3338.75           6698       10530.00     45937.87
  290.09        3339.00           6701       11555.00     50418.12
  290.12        3339.25           6705       13073.00     57055.33
  290.15        3339.50           6709       14541.00     63476.28
  290.17        3339.75           6713       16043.00     70048.32
  290.20        3340.00           6716       17114.00     74736.00
  290.23        3340.25           6720       18562.00     81075.74
  290.26        3340.50           6724       20095.00     87790.08
  290.28        3340.75           6728       21382.00     93428.91
  290.31        3341.00           6731       22409.00     97929.88
  290.34        3341.25           6735       23665.00    103436.00
  290.36        3341.50           6739       24610.00    107579.90
  290.39        3341.75           6743       25236.00    110325.50
  290.42        3342.00           6746       25219.00    110250.90
  290.45        3342.25           6750       24962.00    109123.70
  290.47        3342.50           6754       24155.00    105584.60
  290.50        3342.75           6758       22720.00     99293.12
  290.53        3343.00           6761       21899.00     95694.60
  290.56        3343.25           6765       20448.00     89336.53
  290.58        3343.50           6769       19038.00     83160.28
  290.61        3343.75           6773       17746.00     77502.80
  290.64        3344.00           6776       16429.00     71737.68
  290.67        3344.25           6780       15015.00     65550.02
  290.69        3344.50           6784       13576.00     59255.16
  290.72        3344.75           6788       12071.00     52673.97
  290.75        3345.00           6791       10949.00     47769.17
  290.78        3345.25           6795        9480.00     41349.51
  290.80        3345.50           6799        7747.00     33779.10
  290.83        3345.75           6803        5724.00     24945.93
  290.86        3346.00           6806        4532.00     19743.26
  290.88        3346.25           6810        3271.00     14241.08
  290.91        3346.50           6814        2544.00     11069.69
  290.94        3346.75           6818        1742.00      7571.79
  290.97        3347.00           6821        1104.00      4789.66
  290.99        3347.25           6825         396.00      1702.78
  291.02        3347.50           6829          97.00       399.31
  291.05        3347.75           6833          42.00       159.55
  291.07        3348.00           6836          31.00       111.60
  291.10        3348.25           6840          34.00       124.67
  291.13        3348.50           6844          29.00       102.88
  291.16        3348.75           6848          33.00       120.31
  291.18        3349.00           6851          32.00       115.96
  291.21        3349.25           6855          32.00       115.96
  291.24        3349.50           6859          25.00        85.44
  291.26        3349.75           6863          33.00       120.31
  291.29        3350.00           6867          31.00       111.60
  291.32        3350.25           6870          23.00        76.72
  291.35        3350.50           6874          36.00       133.39
  291.37        3350.75           6878          31.00       111.60
  291.40        3351.00           6882          29.00       102.88
HL scan finished at 04:52:01
end
