************************************************************
  HL Scan of (1) Internal mercury lamp
************************************************************
Integration time is 0.2294 seconds per sample
dh180119Tamanrasset 22.79-5.529 4.974364pr865
************************************************************
Dead Time -------------------------  2.8E-08 
Number of Cycles Used -------------  4 
Starting Wavelength (Angstroms) ---  3331 
Final Wavelength (Angstoms) -------  3351 
Wavelength Increment (Angstroms) --  .25 
Filter Wheel #1 Position ---------- (1) Ground quartz diffuser (ND=2.32)
Filter Wheel #2 Position ---------- (0) Clear Aperture



************************************************************
HL scan start time = 04:48:30
Dark Count =  6.3 


Time (GMT)  Wavelength (Ang)  Step Number  Raw Counts  Counts/Second

  289.02        3331.00           6581          28.00        94.59
  289.23        3331.25           6585          32.00       112.03
  289.26        3331.50           6589          26.00        85.88
  289.29        3331.75           6593          28.00        94.59
  289.32        3332.00           6596          30.00       103.31
  289.34        3332.25           6600          26.00        85.88
  289.37        3332.50           6604          25.00        81.52
  289.40        3332.75           6608          23.00        72.80
  289.42        3333.00           6611          27.00        90.24
  289.45        3333.25           6615          32.00       112.03
  289.48        3333.50           6619          29.00        98.95
  289.51        3333.75           6623          29.00        98.95
  289.53        3334.00           6626          24.00        77.16
  289.56        3334.25           6630          27.00        90.24
  289.59        3334.50           6634          26.00        85.88
  289.61        3334.75           6638          31.00       107.67
  289.64        3335.00           6641          25.00        81.52
  289.67        3335.25           6645          29.00        98.95
  289.70        3335.50           6649          34.00       120.75
  289.72        3335.75           6653          29.00        98.95
  289.75        3336.00           6656          36.00       129.47
  289.78        3336.25           6660         126.00       521.80
  289.81        3336.50           6664         426.00      1829.65
  289.83        3336.75           6668         689.00      2976.27
  289.86        3337.00           6671        1127.00      4886.02
  289.89        3337.25           6675        2281.00      9918.62
  289.91        3337.50           6679        3436.00     14957.00
  289.94        3337.75           6683        4795.00     20887.10
  289.97        3338.00           6686        5775.00     25164.63
  290.00        3338.25           6690        7260.00     31648.35
  290.02        3338.50           6694        8567.00     37356.85
  290.05        3338.75           6698        9947.00     43386.16
  290.08        3339.00           6701       10889.00     47502.99
  290.11        3339.25           6705       12269.00     53535.73
  290.13        3339.50           6709       13587.00     59299.34
  290.16        3339.75           6713       15032.00     65620.46
  290.19        3340.00           6716       16109.00     70333.24
  290.22        3340.25           6720       17418.00     76062.88
  290.24        3340.50           6724       18793.00     82083.38
  290.27        3340.75           6728       20157.00     88057.74
  290.30        3341.00           6731       21172.00     92504.77
  290.32        3341.25           6735       22189.00     96961.66
  290.35        3341.50           6739       23105.00    100976.90
  290.38        3341.75           6743       23550.00    102927.90
  290.41        3342.00           6746       23644.00    103340.00
  290.43        3342.25           6750       23488.00    102656.00
  290.46        3342.50           6754       22863.00     99916.01
  290.49        3342.75           6758       21679.00     94726.50
  290.52        3343.00           6761       20752.00     90664.48
  290.54        3343.25           6765       19244.00     84058.55
  290.57        3343.50           6769       18033.00     78755.43
  290.60        3343.75           6773       16562.00     72315.85
  290.62        3344.00           6776       15714.00     68604.63
  290.65        3344.25           6780       14299.00     62413.69
  290.68        3344.50           6784       12990.00     56688.43
  290.71        3344.75           6788       11446.00     49937.70
  290.73        3345.00           6791       10519.00     45885.86
  290.76        3345.25           6795        9169.00     39986.77
  290.79        3345.50           6799        7427.00     32377.64
  290.82        3345.75           6803        5638.00     24566.59
  290.84        3346.00           6806        4588.00     19983.72
  290.87        3346.25           6810        3464.00     15079.17
  290.90        3346.50           6814        2479.00     10782.24
  290.93        3346.75           6818        1641.00      7127.40
  290.95        3347.00           6821        1053.00      4563.36
  290.98        3347.25           6825         382.00      1637.83
  291.01        3347.50           6829          98.00       399.74
  291.03        3347.75           6833          40.00       146.91
  291.06        3348.00           6836          35.00       125.11
  291.09        3348.25           6840          26.00        85.88
  291.12        3348.50           6844          32.00       112.03
  291.14        3348.75           6848          33.00       116.39
  291.17        3349.00           6851          27.00        90.24
  291.20        3349.25           6855          27.00        90.24
  291.22        3349.50           6859          28.00        94.59
  291.25        3349.75           6863          35.00       125.11
  291.28        3350.00           6867          30.00       103.31
  291.31        3350.25           6870          30.00       103.31
  291.33        3350.50           6874          28.00        94.59
  291.36        3350.75           6878          31.00       107.67
  291.39        3351.00           6882          28.00        94.59
HL scan finished at 04:52:01
end
