************************************************************
  HL Scan of (1) Internal mercury lamp
************************************************************
Integration time is 0.2294 seconds per sample
dh150119Tamanrasset 22.79-5.529 4.974364pr865
************************************************************
Dead Time -------------------------  2.8E-08 
Number of Cycles Used -------------  4 
Starting Wavelength (Angstroms) ---  3331 
Final Wavelength (Angstoms) -------  3351 
Wavelength Increment (Angstroms) --  .25 
Filter Wheel #1 Position ---------- (1) Ground quartz diffuser (ND=2.32)
Filter Wheel #2 Position ---------- (0) Clear Aperture



************************************************************
HL scan start time = 04:48:31
Dark Count =  5.3 


Time (GMT)  Wavelength (Ang)  Step Number  Raw Counts  Counts/Second

  289.04        3331.00           6581          30.00       107.67
  289.25        3331.25           6585          30.00       107.67
  289.28        3331.50           6589          25.00        85.88
  289.31        3331.75           6593          25.00        85.88
  289.34        3332.00           6596          26.00        90.24
  289.36        3332.25           6600          24.00        81.52
  289.39        3332.50           6604          30.00       107.67
  289.42        3332.75           6608          29.00       103.31
  289.44        3333.00           6611          27.00        94.59
  289.47        3333.25           6615          28.00        98.95
  289.50        3333.50           6619          27.00        94.59
  289.53        3333.75           6623          29.00       103.31
  289.55        3334.00           6626          24.00        81.52
  289.58        3334.25           6630          23.00        77.16
  289.61        3334.50           6634          30.00       107.67
  289.63        3334.75           6638          23.00        77.16
  289.66        3335.00           6641          24.00        81.52
  289.69        3335.25           6645          28.00        98.95
  289.72        3335.50           6649          36.00       133.83
  289.74        3335.75           6653          31.00       112.03
  289.77        3336.00           6656          44.00       168.70
  289.80        3336.25           6660         139.00       582.83
  289.82        3336.50           6664         409.00      1759.90
  289.85        3336.75           6668         730.00      3159.39
  289.88        3337.00           6671        1286.00      5583.70
  289.91        3337.25           6675        2417.00     10516.17
  289.93        3337.50           6679        3704.00     16130.65
  289.96        3337.75           6683        4923.00     21450.11
  289.99        3338.00           6686        6062.00     26421.90
  290.01        3338.25           6690        7480.00     32613.47
  290.04        3338.50           6694        8852.00     38606.23
  290.07        3338.75           6698       10133.00     44203.33
  290.10        3339.00           6701       11179.00     48774.94
  290.12        3339.25           6705       12454.00     54348.99
  290.15        3339.50           6709       13984.00     61040.16
  290.18        3339.75           6713       15430.00     67366.28
  290.21        3340.00           6716       16304.00     71191.03
  290.23        3340.25           6720       17773.00     77621.45
  290.26        3340.50           6724       19006.00     83020.58
  290.29        3340.75           6728       20336.00     88846.29
  290.31        3341.00           6731       21414.00     93569.59
  290.34        3341.25           6735       22304.00     97470.09
  290.37        3341.50           6739       23322.00    101932.60
  290.40        3341.75           6743       23761.00    103857.40
  290.42        3342.00           6746       23708.00    103625.00
  290.45        3342.25           6750       23487.00    102656.00
  290.48        3342.50           6754       22715.00     99271.62
  290.51        3342.75           6758       21421.00     93600.27
  290.53        3343.00           6761       20497.00     89551.63
  290.56        3343.25           6765       19061.00     83261.44
  290.59        3343.50           6769       17647.00     77069.80
  290.62        3343.75           6773       16380.00     71523.66
  290.64        3344.00           6776       15443.00     67423.16
  290.67        3344.25           6780       13987.00     61053.29
  290.70        3344.50           6784       12605.00     55009.26
  290.72        3344.75           6788       11237.00     49028.47
  290.75        3345.00           6791       10122.00     44155.26
  290.78        3345.25           6795        8823.00     38479.54
  290.81        3345.50           6799        7010.00     30561.01
  290.83        3345.75           6803        5125.00     22331.75
  290.86        3346.00           6806        4076.00     17753.81
  290.89        3346.25           6810        3198.00     13923.04
  290.92        3346.50           6814        2344.00     10197.77
  290.94        3346.75           6818        1374.00      5967.43
  290.97        3347.00           6821         780.00      3377.39
  291.00        3347.25           6825         257.00      1097.24
  291.02        3347.50           6829          55.00       216.65
  291.05        3347.75           6833          41.00       155.62
  291.08        3348.00           6836          30.00       107.67
  291.11        3348.25           6840          31.00       112.03
  291.13        3348.50           6844          30.00       107.67
  291.16        3348.75           6848          31.00       112.03
  291.19        3349.00           6851          31.00       112.03
  291.21        3349.25           6855          28.00        98.95
  291.24        3349.50           6859          27.00        94.59
  291.27        3349.75           6863          34.00       125.11
  291.30        3350.00           6867          32.00       116.39
  291.32        3350.25           6870          33.00       120.75
  291.35        3350.50           6874          29.00       103.31
  291.38        3350.75           6878          31.00       112.03
  291.40        3351.00           6882          30.00       107.67
HL scan finished at 04:52:02
end
