************************************************************
  HL Scan of (1) Internal mercury lamp
************************************************************
Integration time is 0.2294 seconds per sample
dh140119Tamanrasset 22.79-5.529 4.974364pr865
************************************************************
Dead Time -------------------------  2.8E-08 
Number of Cycles Used -------------  4 
Starting Wavelength (Angstroms) ---  3331 
Final Wavelength (Angstoms) -------  3351 
Wavelength Increment (Angstroms) --  .25 
Filter Wheel #1 Position ---------- (1) Ground quartz diffuser (ND=2.32)
Filter Wheel #2 Position ---------- (0) Clear Aperture



************************************************************
HL scan start time = 04:48:53
Dark Count =  2.5 


Time (GMT)  Wavelength (Ang)  Step Number  Raw Counts  Counts/Second

  289.40        3331.00           6581          33.00       132.96
  289.62        3331.25           6585          23.00        89.36
  289.65        3331.50           6589          29.00       115.52
  289.67        3331.75           6593          22.00        85.00
  289.70        3332.00           6596          28.00       111.16
  289.73        3332.25           6600          30.00       119.88
  289.76        3332.50           6604          27.00       106.80
  289.78        3332.75           6608          24.00        93.72
  289.81        3333.00           6611          31.00       124.24
  289.84        3333.25           6615          27.00       106.80
  289.86        3333.50           6619          27.00       106.80
  289.89        3333.75           6623          30.00       119.88
  289.92        3334.00           6626          24.00        93.72
  289.95        3334.25           6630          27.00       106.80
  289.97        3334.50           6634          24.00        93.72
  290.00        3334.75           6638          29.00       115.52
  290.03        3335.00           6641          29.00       115.52
  290.06        3335.25           6645          28.00       111.16
  290.08        3335.50           6649          28.00       111.16
  290.11        3335.75           6653          34.00       137.32
  290.14        3336.00           6656          43.00       176.55
  290.16        3336.25           6660         130.00       555.81
  290.19        3336.50           6664         347.00      1501.81
  290.22        3336.75           6668         635.00      2757.41
  290.25        3337.00           6671        1099.00      4780.50
  290.27        3337.25           6675        2218.00      9660.42
  290.30        3337.50           6679        3449.00     15030.30
  290.33        3337.75           6683        4744.00     20681.11
  290.35        3338.00           6686        5769.00     25155.03
  290.38        3338.25           6690        7191.00     31363.63
  290.41        3338.50           6694        8492.00     37045.82
  290.44        3338.75           6698        9835.00     42913.35
  290.46        3339.00           6701       10780.00     47043.19
  290.49        3339.25           6705       12177.00     53150.10
  290.52        3339.50           6709       13618.00     59451.55
  290.55        3339.75           6713       15075.00     65825.23
  290.57        3340.00           6716       15989.00     69824.71
  290.60        3340.25           6720       17343.00     75751.18
  290.63        3340.50           6724       18832.00     82270.81
  290.65        3340.75           6728       20105.00     87846.59
  290.68        3341.00           6731       21094.00     92179.63
  290.71        3341.25           6735       22058.00     96404.16
  290.74        3341.50           6739       23165.00    101256.60
  290.76        3341.75           6743       23738.00    103768.80
  290.79        3342.00           6746       23849.00    104255.50
  290.82        3342.25           6750       23577.00    103062.90
  290.85        3342.50           6754       22742.00     99402.26
  290.87        3342.75           6758       21762.00     95106.91
  290.90        3343.00           6761       20603.00     90028.31
  290.93        3343.25           6765       19257.00     84132.13
  290.95        3343.50           6769       18120.00     79153.00
  290.98        3343.75           6773       16698.00     72927.76
  291.01        3344.00           6776       15611.00     68170.53
  291.04        3344.25           6780       14333.00     62579.05
  291.06        3344.50           6784       13076.00     57081.14
  291.09        3344.75           6788       11638.00     50793.64
  291.12        3345.00           6791       10644.00     46448.78
  291.15        3345.25           6795        9110.00     39745.60
  291.17        3345.50           6799        7662.00     33420.54
  291.20        3345.75           6803        5840.00     25464.97
  291.23        3346.00           6806        4677.00     20388.71
  291.26        3346.25           6810        3495.00     15230.99
  291.28        3346.50           6814        2513.00     10947.12
  291.31        3346.75           6818        1781.00      7754.52
  291.34        3347.00           6821        1073.00      4667.13
  291.36        3347.25           6825         400.00      1732.87
  291.39        3347.50           6829         100.00       425.03
  291.42        3347.75           6833          39.00       159.11
  291.45        3348.00           6836          31.00       124.24
  291.47        3348.25           6840          33.00       132.96
  291.50        3348.50           6844          24.00        93.72
  291.53        3348.75           6848          37.00       150.39
  291.55        3349.00           6851          24.00        93.72
  291.58        3349.25           6855          29.00       115.52
  291.61        3349.50           6859          33.00       132.96
  291.64        3349.75           6863          29.00       115.52
  291.66        3350.00           6867          27.00       106.80
  291.69        3350.25           6870          36.00       146.03
  291.72        3350.50           6874          30.00       119.88
  291.74        3350.75           6878          30.00       119.88
  291.77        3351.00           6882          39.00       159.11
HL scan finished at 04:52:24
end
