************************************************************
  HL Scan of (1) Internal mercury lamp
************************************************************
Integration time is 0.2294 seconds per sample
dh130119Tamanrasset 22.79-5.529 4.974364pr865
************************************************************
Dead Time -------------------------  2.8E-08 
Number of Cycles Used -------------  4 
Starting Wavelength (Angstroms) ---  3331 
Final Wavelength (Angstoms) -------  3351 
Wavelength Increment (Angstroms) --  .25 
Filter Wheel #1 Position ---------- (1) Ground quartz diffuser (ND=2.32)
Filter Wheel #2 Position ---------- (0) Clear Aperture



************************************************************
HL scan start time = 04:48:13
Dark Count =  2.8 


Time (GMT)  Wavelength (Ang)  Step Number  Raw Counts  Counts/Second

  288.74        3331.00           6581          26.00       101.13
  288.95        3331.25           6585          22.00        83.70
  288.98        3331.50           6589          23.00        88.06
  289.01        3331.75           6593          30.00       118.57
  289.04        3332.00           6596          24.00        92.42
  289.06        3332.25           6600          27.00       105.49
  289.09        3332.50           6604          27.00       105.49
  289.12        3332.75           6608          26.00       101.13
  289.14        3333.00           6611          29.00       114.21
  289.17        3333.25           6615          30.00       118.57
  289.20        3333.50           6619          26.00       101.13
  289.23        3333.75           6623          29.00       114.21
  289.25        3334.00           6626          26.00       101.13
  289.28        3334.25           6630          27.00       105.49
  289.31        3334.50           6634          24.00        92.42
  289.33        3334.75           6638          26.00       101.13
  289.36        3335.00           6641          27.00       105.49
  289.39        3335.25           6645          27.00       105.49
  289.42        3335.50           6649          31.00       122.93
  289.44        3335.75           6653          33.00       131.65
  289.47        3336.00           6656          44.00       179.60
  289.50        3336.25           6660         145.00       619.89
  289.52        3336.50           6664         407.00      1762.07
  289.55        3336.75           6668         809.00      3514.73
  289.58        3337.00           6671        1301.00      5660.01
  289.61        3337.25           6675        2403.00     10466.01
  289.63        3337.50           6679        3695.00     16102.29
  289.66        3337.75           6683        5023.00     21897.47
  289.69        3338.00           6686        6079.00     26507.02
  289.72        3338.25           6690        7382.00     32196.41
  289.74        3338.50           6694        8809.00     38429.30
  289.77        3338.75           6698       10194.00     44480.83
  289.80        3339.00           6701       11071.00     48313.80
  289.82        3339.25           6705       12403.00     54136.93
  289.85        3339.50           6709       13968.00     60981.12
  289.88        3339.75           6713       15279.00     66716.50
  289.91        3340.00           6716       16271.00     71057.55
  289.93        3340.25           6720       17972.00     78503.66
  289.96        3340.50           6724       19118.00     83522.04
  289.99        3340.75           6728       20349.00     88914.19
  290.02        3341.00           6731       21358.00     93335.14
  290.04        3341.25           6735       22608.00     98813.56
  290.07        3341.50           6739       23404.00    102303.10
  290.10        3341.75           6743       23842.00    104223.50
  290.13        3342.00           6746       23811.00    104087.60
  290.15        3342.25           6750       23422.00    102382.00
  290.18        3342.50           6754       22637.00     98940.68
  290.21        3342.75           6758       21390.00     93475.37
  290.23        3343.00           6761       20438.00     89304.10
  290.26        3343.25           6765       19024.00     83110.35
  290.29        3343.50           6769       17749.00     77527.31
  290.32        3343.75           6773       16358.00     71438.31
  290.34        3344.00           6776       15438.00     67412.22
  290.37        3344.25           6780       14065.00     61405.40
  290.40        3344.50           6784       12451.00     54346.81
  290.43        3344.75           6788       11190.00     48833.95
  290.45        3345.00           6791       10085.00     44004.49
  290.48        3345.25           6795        8793.00     38359.40
  290.51        3345.50           6799        6915.00     30157.10
  290.54        3345.75           6803        5139.00     22403.76
  290.56        3346.00           6806        4180.00     18218.53
  290.59        3346.25           6810        3263.00     14217.52
  290.62        3346.50           6814        2258.00      9833.57
  290.65        3346.75           6818        1360.00      5917.28
  290.67        3347.00           6821         817.00      3549.61
  290.70        3347.25           6825         261.00      1125.58
  290.73        3347.50           6829          63.00       262.43
  290.75        3347.75           6833          34.00       136.01
  290.78        3348.00           6836          32.00       127.29
  290.81        3348.25           6840          36.00       144.73
  290.84        3348.50           6844          30.00       118.57
  290.86        3348.75           6848          34.00       136.01
  290.89        3349.00           6851          30.00       118.57
  290.92        3349.25           6855          27.00       105.49
  290.94        3349.50           6859          31.00       122.93
  290.97        3349.75           6863          32.00       127.29
  291.00        3350.00           6867          30.00       118.57
  291.03        3350.25           6870          30.00       118.57
  291.05        3350.50           6874          32.00       127.29
  291.08        3350.75           6878          28.00       109.85
  291.11        3351.00           6882          31.00       122.93
HL scan finished at 04:51:44
end
