************************************************************
  HL Scan of (1) Internal mercury lamp
************************************************************
Integration time is 0.2294 seconds per sample
dh100119Tamanrasset 22.79-5.529 4.974364pr865
************************************************************
Dead Time -------------------------  2.8E-08 
Number of Cycles Used -------------  4 
Starting Wavelength (Angstroms) ---  3331 
Final Wavelength (Angstoms) -------  3351 
Wavelength Increment (Angstroms) --  .25 
Filter Wheel #1 Position ---------- (1) Ground quartz diffuser (ND=2.32)
Filter Wheel #2 Position ---------- (0) Clear Aperture



************************************************************
HL scan start time = 04:48:24
Dark Count =  2 


Time (GMT)  Wavelength (Ang)  Step Number  Raw Counts  Counts/Second

  288.92        3331.00           6581          29.00       117.70
  289.14        3331.25           6585          28.00       113.34
  289.16        3331.50           6589          31.00       126.42
  289.19        3331.75           6593          28.00       113.34
  289.22        3332.00           6596          22.00        87.18
  289.24        3332.25           6600          30.00       122.06
  289.27        3332.50           6604          28.00       113.34
  289.30        3332.75           6608          30.00       122.06
  289.33        3333.00           6611          31.00       126.42
  289.35        3333.25           6615          29.00       117.70
  289.38        3333.50           6619          31.00       126.42
  289.41        3333.75           6623          29.00       117.70
  289.43        3334.00           6626          29.00       117.70
  289.46        3334.25           6630          31.00       126.42
  289.49        3334.50           6634          35.00       143.85
  289.51        3334.75           6638          27.00       108.98
  289.54        3335.00           6641          34.00       139.49
  289.57        3335.25           6645          29.00       117.70
  289.60        3335.50           6649          36.00       148.21
  289.62        3335.75           6653          32.00       130.78
  289.65        3336.00           6656          40.00       165.65
  289.68        3336.25           6660         129.00       553.63
  289.70        3336.50           6664         375.00      1626.05
  289.73        3336.75           6668         638.00      2772.67
  289.76        3337.00           6671        1153.00      5018.14
  289.79        3337.25           6675        2207.00      9614.62
  289.81        3337.50           6679        3447.00     15023.76
  289.84        3337.75           6683        4763.00     20766.21
  289.87        3338.00           6686        5782.00     25213.96
  289.90        3338.25           6690        7214.00     31466.25
  289.92        3338.50           6694        8530.00     37214.00
  289.95        3338.75           6698        9883.00     43125.28
  289.98        3339.00           6701       11007.00     48037.55
  290.01        3339.25           6705       12277.00     53589.51
  290.03        3339.50           6709       13709.00     59851.75
  290.06        3339.75           6713       15138.00     66103.06
  290.09        3340.00           6716       16080.00     70225.15
  290.12        3340.25           6720       17510.00     76484.46
  290.14        3340.50           6724       18940.00     82745.99
  290.17        3340.75           6728       20082.00     87748.02
  290.20        3341.00           6731       21072.00     92085.43
  290.22        3341.25           6735       22231.00     97164.59
  290.25        3341.50           6739       23268.00    101710.40
  290.28        3341.75           6743       23939.00    104652.30
  290.31        3342.00           6746       23843.00    104231.40
  290.33        3342.25           6750       23775.00    103933.20
  290.36        3342.50           6754       23180.00    101324.60
  290.39        3342.75           6758       21953.00     95946.16
  290.42        3343.00           6761       20970.00     91638.50
  290.44        3343.25           6765       19534.00     85347.57
  290.47        3343.50           6769       18257.00     79755.06
  290.50        3343.75           6773       16745.00     73135.68
  290.53        3344.00           6776       15880.00     69349.88
  290.55        3344.25           6780       14396.00     62856.83
  290.58        3344.50           6784       12956.00     56558.55
  290.61        3344.75           6788       11645.00     50826.43
  290.64        3345.00           6791       10666.00     46547.12
  290.66        3345.25           6795        9220.00     40228.37
  290.69        3345.50           6799        7447.00     32483.76
  290.72        3345.75           6803        5626.00     24532.98
  290.74        3346.00           6806        4424.00     19286.79
  290.77        3346.25           6810        3424.00     14923.41
  290.80        3346.50           6814        2541.00     11071.44
  290.83        3346.75           6818        1569.00      6832.17
  290.85        3347.00           6821         983.00      4276.89
  290.88        3347.25           6825         355.00      1538.86
  290.91        3347.50           6829          89.00       379.25
  290.94        3347.75           6833          41.00       170.01
  290.96        3348.00           6836          32.00       130.78
  290.99        3348.25           6840          33.00       135.14
  291.02        3348.50           6844          35.00       143.85
  291.04        3348.75           6848          25.00       100.26
  291.07        3349.00           6851          31.00       126.42
  291.10        3349.25           6855          30.00       122.06
  291.12        3349.50           6859          33.00       135.14
  291.15        3349.75           6863          27.00       108.98
  291.18        3350.00           6867          33.00       135.14
  291.21        3350.25           6870          30.00       122.06
  291.23        3350.50           6874          34.00       139.49
  291.26        3350.75           6878          28.00       113.34
  291.29        3351.00           6882          30.00       122.06
HL scan finished at 04:51:55
end
