************************************************************
  HL Scan of (1) Internal mercury lamp
************************************************************
Integration time is 0.2294 seconds per sample
dh110119Tamanrasset 22.79-5.529 4.974364pr865
************************************************************
Dead Time -------------------------  2.8E-08 
Number of Cycles Used -------------  4 
Starting Wavelength (Angstroms) ---  3331 
Final Wavelength (Angstoms) -------  3351 
Wavelength Increment (Angstroms) --  .25 
Filter Wheel #1 Position ---------- (1) Ground quartz diffuser (ND=2.32)
Filter Wheel #2 Position ---------- (0) Clear Aperture



************************************************************
HL scan start time = 04:48:23
Dark Count =  3 


Time (GMT)  Wavelength (Ang)  Step Number  Raw Counts  Counts/Second

  288.90        3331.00           6581          23.00        87.18
  289.12        3331.25           6585          27.00       104.62
  289.14        3331.50           6589          23.00        87.18
  289.17        3331.75           6593          28.00       108.98
  289.20        3332.00           6596          29.00       113.34
  289.23        3332.25           6600          27.00       104.62
  289.25        3332.50           6604          30.00       117.70
  289.28        3332.75           6608          27.00       104.62
  289.31        3333.00           6611          25.00        95.90
  289.34        3333.25           6615          26.00       100.26
  289.36        3333.50           6619          26.00       100.26
  289.39        3333.75           6623          28.00       108.98
  289.42        3334.00           6626          34.00       135.14
  289.44        3334.25           6630          29.00       113.34
  289.47        3334.50           6634          34.00       135.14
  289.50        3334.75           6638          25.00        95.90
  289.53        3335.00           6641          30.00       117.70
  289.55        3335.25           6645          32.00       126.42
  289.58        3335.50           6649          29.00       113.34
  289.61        3335.75           6653          28.00       108.98
  289.63        3336.00           6656          31.00       122.06
  289.66        3336.25           6660         132.00       562.35
  289.69        3336.50           6664         390.00      1687.09
  289.72        3336.75           6668         699.00      3034.26
  289.74        3337.00           6671        1116.00      4852.45
  289.77        3337.25           6675        2241.00      9758.55
  289.80        3337.50           6679        3438.00     14980.13
  289.82        3337.75           6683        4730.00     20617.83
  289.85        3338.00           6686        5802.00     25296.90
  289.88        3338.25           6690        7204.00     31418.21
  289.91        3338.50           6694        8627.00     37633.36
  289.93        3338.75           6698        9853.00     42989.82
  289.96        3339.00           6701       11056.00     48247.35
  289.99        3339.25           6705       12458.00     54376.55
  290.02        3339.50           6709       13719.00     59891.11
  290.04        3339.75           6713       15019.00     65578.02
  290.07        3340.00           6716       16186.00     70684.66
  290.10        3340.25           6720       17544.00     76628.94
  290.12        3340.50           6724       18853.00     82360.60
  290.15        3340.75           6728       20145.00     88019.63
  290.18        3341.00           6731       21103.00     92216.88
  290.21        3341.25           6735       22264.00     97304.86
  290.23        3341.50           6739       23264.00    101688.40
  290.26        3341.75           6743       23765.00    103885.00
  290.29        3342.00           6746       23770.00    103906.90
  290.32        3342.25           6750       23634.00    103310.60
  290.34        3342.50           6754       23075.00    100859.90
  290.37        3342.75           6758       21725.00     94942.56
  290.40        3343.00           6761       20816.00     90959.36
  290.43        3343.25           6765       19489.00     85146.09
  290.45        3343.50           6769       18155.00     79304.06
  290.48        3343.75           6773       16844.00     73564.63
  290.51        3344.00           6776       15720.00     68645.33
  290.53        3344.25           6780       14345.00     62629.35
  290.56        3344.50           6784       12987.00     56689.74
  290.59        3344.75           6788       11459.00     50008.95
  290.62        3345.00           6791       10566.00     46105.69
  290.64        3345.25           6795        9146.00     39900.70
  290.67        3345.50           6799        7483.00     32636.61
  290.70        3345.75           6803        5695.00     24829.81
  290.73        3346.00           6806        4469.00     19478.80
  290.75        3346.25           6810        3317.00     14452.23
  290.78        3346.50           6814        2486.00     10827.17
  290.81        3346.75           6818        1664.00      7242.10
  290.83        3347.00           6821        1053.00      4577.74
  290.86        3347.25           6825         390.00      1687.09
  290.89        3347.50           6829          80.00       335.66
  290.92        3347.75           6833          38.00       152.57
  290.94        3348.00           6836          25.00        95.90
  290.97        3348.25           6840          31.00       122.06
  291.00        3348.50           6844          26.00       100.26
  291.03        3348.75           6848          30.00       117.70
  291.05        3349.00           6851          30.00       117.70
  291.08        3349.25           6855          29.00       113.34
  291.11        3349.50           6859          31.00       122.06
  291.13        3349.75           6863          31.00       122.06
  291.16        3350.00           6867          27.00       104.62
  291.19        3350.25           6870          29.00       113.34
  291.22        3350.50           6874          30.00       117.70
  291.24        3350.75           6878          27.00       104.62
  291.27        3351.00           6882          31.00       122.06
HL scan finished at 04:51:54
end
