************************************************************
  HL Scan of (1) Internal mercury lamp
************************************************************
Integration time is 0.2294 seconds per sample
dh170119Tamanrasset 22.79-5.529 4.974364pr865
************************************************************
Dead Time -------------------------  2.8E-08 
Number of Cycles Used -------------  4 
Starting Wavelength (Angstroms) ---  3331 
Final Wavelength (Angstoms) -------  3351 
Wavelength Increment (Angstroms) --  .25 
Filter Wheel #1 Position ---------- (1) Ground quartz diffuser (ND=2.32)
Filter Wheel #2 Position ---------- (0) Clear Aperture



************************************************************
HL scan start time = 04:48:48
Dark Count =  4.2 


Time (GMT)  Wavelength (Ang)  Step Number  Raw Counts  Counts/Second

  289.31        3331.00           6581          29.00       108.11
  289.53        3331.25           6585          30.00       112.47
  289.56        3331.50           6589          28.00       103.75
  289.58        3331.75           6593          26.00        95.03
  289.61        3332.00           6596          32.00       121.19
  289.64        3332.25           6600          24.00        86.31
  289.67        3332.50           6604          25.00        90.67
  289.69        3332.75           6608          26.00        95.03
  289.72        3333.00           6611          24.00        86.31
  289.75        3333.25           6615          29.00       108.11
  289.77        3333.50           6619          25.00        90.67
  289.80        3333.75           6623          24.00        86.31
  289.83        3334.00           6626          31.00       116.83
  289.86        3334.25           6630          28.00       103.75
  289.88        3334.50           6634          30.00       112.47
  289.91        3334.75           6638          23.00        81.95
  289.94        3335.00           6641          29.00       108.11
  289.96        3335.25           6645          34.00       129.90
  289.99        3335.50           6649          31.00       116.83
  290.02        3335.75           6653          36.00       138.62
  290.05        3336.00           6656          46.00       182.22
  290.07        3336.25           6660         146.00       618.14
  290.10        3336.50           6664         411.00      1773.41
  290.13        3336.75           6668         671.00      2906.95
  290.16        3337.00           6671        1182.00      5135.00
  290.18        3337.25           6675        2231.00      9709.70
  290.21        3337.50           6679        3564.00     15524.62
  290.24        3337.75           6683        4740.00     20656.23
  290.26        3338.00           6686        5778.00     25186.89
  290.29        3338.25           6690        7236.00     31552.71
  290.32        3338.50           6694        8612.00     37562.59
  290.35        3338.75           6698        9990.00     43583.23
  290.37        3339.00           6701       10943.00     47748.19
  290.40        3339.25           6705       12334.00     53829.11
  290.43        3339.50           6709       13616.00     59435.36
  290.46        3339.75           6713       14983.00     65415.26
  290.48        3340.00           6716       15964.00     69707.85
  290.51        3340.25           6720       17440.00     76168.38
  290.54        3340.50           6724       18772.00     82000.63
  290.57        3340.75           6728       20070.00     87685.82
  290.59        3341.00           6731       20971.00     91633.25
  290.62        3341.25           6735       22078.00     96484.38
  290.65        3341.50           6739       23154.00    101200.90
  290.67        3341.75           6743       23730.00    103726.30
  290.70        3342.00           6746       23676.00    103489.50
  290.73        3342.25           6750       23640.00    103331.70
  290.76        3342.50           6754       23063.00    100802.00
  290.78        3342.75           6758       21902.00     95713.02
  290.81        3343.00           6761       20845.00     91081.18
  290.84        3343.25           6765       19506.00     85215.29
  290.87        3343.50           6769       18278.00     79837.40
  290.89        3343.75           6773       16955.00     74045.26
  290.92        3344.00           6776       15782.00     68911.40
  290.95        3344.25           6780       14470.00     63170.92
  290.97        3344.50           6784       13091.00     57139.30
  291.00        3344.75           6788       11585.00     50554.51
  291.03        3345.00           6791       10721.00     46777.88
  291.06        3345.25           6795        9396.00     40987.73
  291.08        3345.50           6799        7540.00     32880.30
  291.11        3345.75           6803        5548.00     24182.89
  291.14        3346.00           6806        4457.00     19421.20
  291.17        3346.25           6810        3504.00     15262.84
  291.19        3346.50           6814        2728.00     11877.53
  291.22        3346.75           6818        1764.00      7672.97
  291.25        3347.00           6821        1179.00      5121.92
  291.27        3347.25           6825         415.00      1790.85
  291.30        3347.50           6829         105.00       439.41
  291.33        3347.75           6833          41.00       160.42
  291.36        3348.00           6836          31.00       116.83
  291.38        3348.25           6840          28.00       103.75
  291.41        3348.50           6844          30.00       112.47
  291.44        3348.75           6848          29.00       108.11
  291.46        3349.00           6851          31.00       116.83
  291.49        3349.25           6855          31.00       116.83
  291.52        3349.50           6859          27.00        99.39
  291.55        3349.75           6863          30.00       112.47
  291.57        3350.00           6867          33.00       125.55
  291.60        3350.25           6870          32.00       121.19
  291.63        3350.50           6874          31.00       116.83
  291.66        3350.75           6878          33.00       125.55
  291.68        3351.00           6882          31.00       116.83
HL scan finished at 04:52:18
end
