************************************************************
  HL Scan of (1) Internal mercury lamp
************************************************************
Integration time is 0.2294 seconds per sample
dh120119Tamanrasset 22.79-5.529 4.974364pr865
************************************************************
Dead Time -------------------------  2.8E-08 
Number of Cycles Used -------------  4 
Starting Wavelength (Angstroms) ---  3331 
Final Wavelength (Angstoms) -------  3351 
Wavelength Increment (Angstroms) --  .25 
Filter Wheel #1 Position ---------- (1) Ground quartz diffuser (ND=2.32)
Filter Wheel #2 Position ---------- (0) Clear Aperture



************************************************************
HL scan start time = 04:48:24
Dark Count =  2.7 


Time (GMT)  Wavelength (Ang)  Step Number  Raw Counts  Counts/Second

  288.91        3331.00           6581          28.00       110.29
  289.13        3331.25           6585          26.00       101.57
  289.16        3331.50           6589          25.00        97.21
  289.18        3331.75           6593          27.00       105.93
  289.21        3332.00           6596          29.00       114.65
  289.24        3332.25           6600          30.00       119.01
  289.27        3332.50           6604          32.00       127.72
  289.29        3332.75           6608          28.00       110.29
  289.32        3333.00           6611          33.00       132.08
  289.35        3333.25           6615          26.00       101.57
  289.37        3333.50           6619          28.00       110.29
  289.40        3333.75           6623          33.00       132.08
  289.43        3334.00           6626          28.00       110.29
  289.46        3334.25           6630          25.00        97.21
  289.48        3334.50           6634          31.00       123.37
  289.51        3334.75           6638          30.00       119.01
  289.54        3335.00           6641          25.00        97.21
  289.56        3335.25           6645          34.00       136.44
  289.59        3335.50           6649          27.00       105.93
  289.62        3335.75           6653          37.00       149.52
  289.65        3336.00           6656          42.00       171.32
  289.67        3336.25           6660         158.00       677.00
  289.70        3336.50           6664         500.00      2167.96
  289.73        3336.75           6668         816.00      3545.69
  289.76        3337.00           6671        1262.00      5490.38
  289.78        3337.25           6675        2403.00     10466.45
  289.81        3337.50           6679        3620.00     15775.49
  289.84        3337.75           6683        4950.00     21579.30
  289.87        3338.00           6686        5924.00     25830.79
  289.89        3338.25           6690        7390.00     32231.78
  289.92        3338.50           6694        8747.00     38158.88
  289.95        3338.75           6698       10001.00     43637.86
  289.97        3339.00           6701       11050.00     48222.44
  290.00        3339.25           6705       12405.00     54146.12
  290.03        3339.50           6709       13936.00     60841.58
  290.06        3339.75           6713       15219.00     66454.40
  290.08        3340.00           6716       16237.00     70909.18
  290.11        3340.25           6720       17575.00     76765.97
  290.14        3340.50           6724       18930.00     82699.13
  290.17        3340.75           6728       20315.00     88765.69
  290.19        3341.00           6731       21201.00     92647.62
  290.22        3341.25           6735       22368.00     97762.02
  290.25        3341.50           6739       23287.00    101790.60
  290.28        3341.75           6743       23917.00    104552.80
  290.30        3342.00           6746       23936.00    104636.10
  290.33        3342.25           6750       23596.00    103145.30
  290.36        3342.50           6754       23075.00    100861.20
  290.38        3342.75           6758       21668.00     94694.08
  290.41        3343.00           6761       20824.00     90995.72
  290.44        3343.25           6765       19512.00     85248.15
  290.47        3343.50           6769       18153.00     79296.63
  290.49        3343.75           6773       16851.00     73596.58
  290.52        3344.00           6776       15747.00     68764.80
  290.55        3344.25           6780       14280.00     62346.33
  290.58        3344.50           6784       13017.00     56822.24
  290.60        3344.75           6788       11617.00     50700.96
  290.63        3345.00           6791       10470.00     45687.44
  290.66        3345.25           6795        9148.00     39910.75
  290.68        3345.50           6799        7452.00     32502.54
  290.71        3345.75           6803        5713.00     24909.70
  290.74        3346.00           6806        4572.00     19929.60
  290.77        3346.25           6810        3348.00     14588.78
  290.79        3346.50           6814        2426.00     10566.77
  290.82        3346.75           6818        1659.00      7221.60
  290.85        3347.00           6821        1013.00      4404.64
  290.88        3347.25           6825         369.00      1596.85
  290.90        3347.50           6829          78.00       328.25
  290.93        3347.75           6833          39.00       158.24
  290.96        3348.00           6836          34.00       136.44
  290.98        3348.25           6840          33.00       132.08
  291.01        3348.50           6844          29.00       114.65
  291.04        3348.75           6848          31.00       123.37
  291.07        3349.00           6851          35.00       140.80
  291.09        3349.25           6855          30.00       119.01
  291.12        3349.50           6859          29.00       114.65
  291.15        3349.75           6863          34.00       136.44
  291.17        3350.00           6867          30.00       119.01
  291.20        3350.25           6870          32.00       127.72
  291.23        3350.50           6874          29.00       114.65
  291.26        3350.75           6878          27.00       105.93
  291.28        3351.00           6882          32.00       127.72
HL scan finished at 04:51:54
end
