************************************************************
  HL Scan of (1) Internal mercury lamp
************************************************************
Integration time is 0.2294 seconds per sample
dh160119Tamanrasset 22.79-5.529 4.974364pr865
************************************************************
Dead Time -------------------------  2.8E-08 
Number of Cycles Used -------------  4 
Starting Wavelength (Angstroms) ---  3331 
Final Wavelength (Angstoms) -------  3351 
Wavelength Increment (Angstroms) --  .25 
Filter Wheel #1 Position ---------- (1) Ground quartz diffuser (ND=2.32)
Filter Wheel #2 Position ---------- (0) Clear Aperture



************************************************************
HL scan start time = 04:48:54
Dark Count =  3.6 


Time (GMT)  Wavelength (Ang)  Step Number  Raw Counts  Counts/Second

  289.42        3331.00           6581          26.00        97.65
  289.64        3331.25           6585          22.00        80.21
  289.66        3331.50           6589          29.00       110.72
  289.69        3331.75           6593          28.00       106.36
  289.72        3332.00           6596          23.00        84.57
  289.75        3332.25           6600          28.00       106.36
  289.77        3332.50           6604          28.00       106.36
  289.80        3332.75           6608          28.00       106.36
  289.83        3333.00           6611          30.00       115.08
  289.85        3333.25           6615          27.00       102.01
  289.88        3333.50           6619          27.00       102.01
  289.91        3333.75           6623          27.00       102.01
  289.94        3334.00           6626          31.00       119.44
  289.96        3334.25           6630          27.00       102.01
  289.99        3334.50           6634          29.00       110.72
  290.02        3334.75           6638          31.00       119.44
  290.04        3335.00           6641          26.00        97.65
  290.07        3335.25           6645          30.00       115.08
  290.10        3335.50           6649          29.00       110.72
  290.13        3335.75           6653          38.00       149.96
  290.15        3336.00           6656          42.00       167.39
  290.18        3336.25           6660         147.00       625.12
  290.21        3336.50           6664         428.00      1850.14
  290.23        3336.75           6668         701.00      3040.36
  290.26        3337.00           6671        1178.00      5120.18
  290.29        3337.25           6675        2404.00     10466.89
  290.32        3337.50           6679        3635.00     15837.01
  290.34        3337.75           6683        4971.00     21667.02
  290.37        3338.00           6686        5950.00     25940.37
  290.40        3338.25           6690        7384.00     32201.65
  290.43        3338.50           6694        8714.00     38010.79
  290.45        3338.75           6698       10083.00     43992.26
  290.48        3339.00           6701       11026.00     48113.60
  290.51        3339.25           6705       12462.00     54391.40
  290.54        3339.50           6709       13730.00     59936.60
  290.56        3339.75           6713       15244.00     66559.85
  290.59        3340.00           6716       16144.00     70498.23
  290.62        3340.25           6720       17583.00     76797.05
  290.65        3340.50           6724       18954.00     82800.29
  290.67        3340.75           6728       20217.00     88332.42
  290.70        3341.00           6731       21233.00     92783.91
  290.73        3341.25           6735       22217.00     97096.22
  290.75        3341.50           6739       23318.00    101922.50
  290.78        3341.75           6743       23869.00    104338.40
  290.81        3342.00           6746       23888.00    104421.70
  290.84        3342.25           6750       23582.00    103080.00
  290.86        3342.50           6754       22926.00    100204.00
  290.89        3342.75           6758       21758.00     95084.56
  290.92        3343.00           6761       20678.00     90352.09
  290.95        3343.25           6765       19204.00     83895.19
  290.97        3343.50           6769       18106.00     79086.90
  291.00        3343.75           6773       16741.00     73111.16
  291.03        3344.00           6776       15812.00     69045.30
  291.05        3344.25           6780       14370.00     62736.09
  291.08        3344.50           6784       12955.00     56547.18
  291.11        3344.75           6788       11644.00     50815.06
  291.14        3345.00           6791       10516.00     45884.55
  291.16        3345.25           6795        9148.00     39906.82
  291.19        3345.50           6799        7403.00     32284.62
  291.22        3345.75           6803        5651.00     24635.12
  291.25        3346.00           6806        4429.00     19301.63
  291.27        3346.25           6810        3375.00     14702.65
  291.30        3346.50           6814        2483.00     10811.47
  291.33        3346.75           6818        1611.00      7008.35
  291.36        3347.00           6821         962.00      4178.34
  291.38        3347.25           6825         352.00      1518.81
  291.41        3347.50           6829          74.00       306.89
  291.44        3347.75           6833          39.00       154.32
  291.46        3348.00           6836          29.00       110.72
  291.49        3348.25           6840          30.00       115.08
  291.52        3348.50           6844          32.00       123.80
  291.55        3348.75           6848          31.00       119.44
  291.57        3349.00           6851          31.00       119.44
  291.60        3349.25           6855          33.00       128.16
  291.63        3349.50           6859          27.00       102.01
  291.65        3349.75           6863          31.00       119.44
  291.68        3350.00           6867          34.00       132.52
  291.71        3350.25           6870          35.00       136.88
  291.74        3350.50           6874          33.00       128.16
  291.76        3350.75           6878          35.00       136.88
  291.79        3351.00           6882          36.00       141.24
HL scan finished at 04:52:25
end
