************************************************************
  HL Scan of (1) Internal mercury lamp
************************************************************
Integration time is 0.2294 seconds per sample
dh280119Tamanrasset 22.79-5.529 4.974364pr865
************************************************************
Dead Time -------------------------  2.8E-08 
Number of Cycles Used -------------  4 
Starting Wavelength (Angstroms) ---  3331 
Final Wavelength (Angstoms) -------  3351 
Wavelength Increment (Angstroms) --  .25 
Filter Wheel #1 Position ---------- (1) Ground quartz diffuser (ND=2.32)
Filter Wheel #2 Position ---------- (0) Clear Aperture



************************************************************
HL scan start time = 04:47:37
Dark Count =  5.6 


Time (GMT)  Wavelength (Ang)  Step Number  Raw Counts  Counts/Second

  288.13        3331.00           6581          28.00        97.65
  288.35        3331.25           6585          26.00        88.93
  288.37        3331.50           6589          22.00        71.49
  288.40        3331.75           6593          32.00       115.08
  288.43        3332.00           6596          24.00        80.21
  288.45        3332.25           6600          24.00        80.21
  288.48        3332.50           6604          28.00        97.65
  288.51        3332.75           6608          31.00       110.72
  288.54        3333.00           6611          27.00        93.29
  288.56        3333.25           6615          30.00       106.36
  288.59        3333.50           6619          27.00        93.29
  288.62        3333.75           6623          28.00        97.65
  288.64        3334.00           6626          33.00       119.44
  288.67        3334.25           6630          30.00       106.36
  288.70        3334.50           6634          29.00       102.01
  288.73        3334.75           6638          27.00        93.29
  288.75        3335.00           6641          28.00        97.65
  288.78        3335.25           6645          33.00       119.44
  288.81        3335.50           6649          39.00       145.60
  288.83        3335.75           6653          36.00       132.52
  288.86        3336.00           6656          37.00       136.88
  288.89        3336.25           6660         107.00       442.03
  288.92        3336.50           6664         414.00      1780.39
  288.94        3336.75           6668         696.00      3009.84
  288.97        3337.00           6671        1120.00      4858.55
  289.00        3337.25           6675        2247.00      9773.38
  289.03        3337.50           6679        3474.00     15125.85
  289.05        3337.75           6683        4808.00     20946.89
  289.08        3338.00           6686        5809.00     25316.11
  289.11        3338.25           6690        7194.00     31363.19
  289.13        3338.50           6694        8607.00     37534.63
  289.16        3338.75           6698        9892.00     43148.88
  289.19        3339.00           6701       10811.00     47165.13
  289.22        3339.25           6705       12258.00     53490.70
  289.24        3339.50           6709       13746.00     59997.83
  289.27        3339.75           6713       15169.00     66222.95
  289.30        3340.00           6716       16194.00     70708.30
  289.33        3340.25           6720       17574.00     76748.88
  289.35        3340.50           6724       18993.00     82962.33
  289.38        3340.75           6728       20195.00     88227.28
  289.41        3341.00           6731       21221.00     92722.55
  289.43        3341.25           6735       22445.00     98086.81
  289.46        3341.50           6739       23401.00    102277.70
  289.49        3341.75           6743       23847.00    104233.10
  289.52        3342.00           6746       24046.00    105105.70
  289.54        3342.25           6750       23812.00    104079.70
  289.57        3342.50           6754       23142.00    101142.20
  289.60        3342.75           6758       21981.00     96053.11
  289.63        3343.00           6761       20939.00     91486.89
  289.65        3343.25           6765       19649.00     85835.52
  289.68        3343.50           6769       18362.00     80199.08
  289.71        3343.75           6773       16978.00     74139.81
  289.74        3344.00           6776       15991.00     69819.88
  289.76        3344.25           6780       14629.00     63860.39
  289.79        3344.50           6784       13183.00     57535.52
  289.82        3344.75           6788       11771.00     51361.53
  289.85        3345.00           6791       10650.00     46461.46
  289.87        3345.25           6795        9252.00     40352.46
  289.90        3345.50           6799        7546.00     32900.39
  289.93        3345.75           6803        5919.00     25796.31
  289.95        3346.00           6806        4872.00     21226.21
  289.98        3346.25           6810        3557.00     15487.97
  290.01        3346.50           6814        2478.00     10780.94
  290.04        3346.75           6818        1676.00      7283.09
  290.06        3347.00           6821        1092.00      4736.46
  290.09        3347.25           6825         393.00      1688.83
  290.12        3347.50           6829          86.00       350.48
  290.14        3347.75           6833          43.00       163.03
  290.17        3348.00           6836          33.00       119.44
  290.20        3348.25           6840          27.00        93.29
  290.23        3348.50           6844          33.00       119.44
  290.25        3348.75           6848          35.00       128.16
  290.28        3349.00           6851          34.00       123.80
  290.31        3349.25           6855          30.00       106.36
  290.33        3349.50           6859          36.00       132.52
  290.36        3349.75           6863          31.00       110.72
  290.39        3350.00           6867          29.00       102.01
  290.42        3350.25           6870          31.00       110.72
  290.44        3350.50           6874          32.00       115.08
  290.47        3350.75           6878          34.00       123.80
  290.50        3351.00           6882          34.00       123.80
HL scan finished at 04:51:07
end
