************************************************************
  HL Scan of (1) Internal mercury lamp
************************************************************
Integration time is 0.2294 seconds per sample
dh260119Tamanrasset 22.79-5.529 4.974364pr865
************************************************************
Dead Time -------------------------  2.8E-08 
Number of Cycles Used -------------  4 
Starting Wavelength (Angstroms) ---  3331 
Final Wavelength (Angstoms) -------  3351 
Wavelength Increment (Angstroms) --  .25 
Filter Wheel #1 Position ---------- (1) Ground quartz diffuser (ND=2.32)
Filter Wheel #2 Position ---------- (0) Clear Aperture



************************************************************
HL scan start time = 04:47:36
Dark Count =  3.8 


Time (GMT)  Wavelength (Ang)  Step Number  Raw Counts  Counts/Second

  288.12        3331.00           6581          30.00       114.21
  288.33        3331.25           6585          30.00       114.21
  288.36        3331.50           6589          25.00        92.42
  288.39        3331.75           6593          26.00        96.77
  288.42        3332.00           6596          28.00       105.49
  288.44        3332.25           6600          30.00       114.21
  288.47        3332.50           6604          24.00        88.06
  288.50        3332.75           6608          26.00        96.77
  288.52        3333.00           6611          31.00       118.57
  288.55        3333.25           6615          26.00        96.77
  288.58        3333.50           6619          34.00       131.65
  288.61        3333.75           6623          25.00        92.42
  288.63        3334.00           6626          30.00       114.21
  288.66        3334.25           6630          22.00        79.34
  288.69        3334.50           6634          26.00        96.77
  288.71        3334.75           6638          26.00        96.77
  288.74        3335.00           6641          22.00        79.34
  288.77        3335.25           6645          34.00       131.65
  288.80        3335.50           6649          32.00       122.93
  288.82        3335.75           6653          36.00       140.37
  288.85        3336.00           6656          57.00       231.91
  288.88        3336.25           6660         198.00       846.58
  288.90        3336.50           6664         505.00      2184.96
  288.93        3336.75           6668         896.00      3889.70
  288.96        3337.00           6671        1474.00      6410.04
  288.99        3337.25           6675        2626.00     11434.35
  289.01        3337.50           6679        3911.00     17040.39
  289.04        3337.75           6683        5188.00     22613.27
  289.07        3338.00           6686        6174.00     26917.41
  289.10        3338.25           6690        7602.00     33152.82
  289.12        3338.50           6694        8905.00     38844.32
  289.15        3338.75           6698       10241.00     44681.85
  289.18        3339.00           6701       11311.00     49358.49
  289.20        3339.25           6705       12667.00     55286.92
  289.23        3339.50           6709       14029.00     61243.56
  289.26        3339.75           6713       15387.00     67184.68
  289.29        3340.00           6716       16514.00     72116.71
  289.31        3340.25           6720       17740.00     77483.53
  289.34        3340.50           6724       19279.00     84222.80
  289.37        3340.75           6728       20365.00     88979.91
  289.40        3341.00           6731       21311.00     93124.81
  289.42        3341.25           6735       22323.00     97559.94
  289.45        3341.50           6739       23335.00    101996.20
  289.48        3341.75           6743       23719.00    103679.80
  289.51        3342.00           6746       23567.00    103013.40
  289.53        3342.25           6750       23368.00    102140.90
  289.56        3342.50           6754       22592.00     98739.03
  289.59        3342.75           6758       21139.00     92371.11
  289.61        3343.00           6761       20162.00     88090.59
  289.64        3343.25           6765       18988.00     82948.31
  289.67        3343.50           6769       17660.00     77133.28
  289.70        3343.75           6773       16279.00     71088.18
  289.72        3344.00           6776       15278.00     66707.75
  289.75        3344.25           6780       13949.00     60893.63
  289.78        3344.50           6784       12614.00     55055.16
  289.81        3344.75           6788       11173.00     48755.27
  289.83        3345.00           6791       10145.00     44262.33
  289.86        3345.25           6795        8569.00     37376.50
  289.89        3345.50           6799        6895.00     30065.41
  289.92        3345.75           6803        5297.00     23089.03
  289.94        3346.00           6806        4164.00     18144.35
  289.97        3346.25           6810        3006.00     13091.98
  290.00        3346.50           6814        2119.00      9222.96
  290.02        3346.75           6818        1396.00      6069.91
  290.05        3347.00           6821         803.00      3484.21
  290.08        3347.25           6825         247.00      1060.19
  290.11        3347.50           6829          56.00       227.55
  290.13        3347.75           6833          35.00       136.01
  290.16        3348.00           6836          33.00       127.29
  290.19        3348.25           6840          31.00       118.57
  290.21        3348.50           6844          29.00       109.85
  290.24        3348.75           6848          29.00       109.85
  290.27        3349.00           6851          30.00       114.21
  290.30        3349.25           6855          34.00       131.65
  290.32        3349.50           6859          26.00        96.77
  290.35        3349.75           6863          32.00       122.93
  290.38        3350.00           6867          35.00       136.01
  290.41        3350.25           6870          31.00       118.57
  290.43        3350.50           6874          30.00       114.21
  290.46        3350.75           6878          28.00       105.49
  290.49        3351.00           6882          29.00       109.85
HL scan finished at 04:51:06
end
