************************************************************
  HL Scan of (1) Internal mercury lamp
************************************************************
Integration time is 0.2294 seconds per sample
dh200119Tamanrasset 22.79-5.529 4.974364pr865
************************************************************
Dead Time -------------------------  2.8E-08 
Number of Cycles Used -------------  4 
Starting Wavelength (Angstroms) ---  3331 
Final Wavelength (Angstoms) -------  3351 
Wavelength Increment (Angstroms) --  .25 
Filter Wheel #1 Position ---------- (1) Ground quartz diffuser (ND=2.32)
Filter Wheel #2 Position ---------- (0) Clear Aperture



************************************************************
HL scan start time = 04:49:05
Dark Count =  2.6 


Time (GMT)  Wavelength (Ang)  Step Number  Raw Counts  Counts/Second

  289.59        3331.00           6581          27.00       106.36
  289.81        3331.25           6585          31.00       123.80
  289.84        3331.50           6589          27.00       106.36
  289.87        3331.75           6593          27.00       106.36
  289.89        3332.00           6596          24.00        93.29
  289.92        3332.25           6600          28.00       110.72
  289.95        3332.50           6604          26.00       102.01
  289.97        3332.75           6608          30.00       119.44
  290.00        3333.00           6611          29.00       115.08
  290.03        3333.25           6615          25.00        97.65
  290.06        3333.50           6619          30.00       119.44
  290.08        3333.75           6623          29.00       115.08
  290.11        3334.00           6626          24.00        93.29
  290.14        3334.25           6630          32.00       128.16
  290.16        3334.50           6634          25.00        97.65
  290.19        3334.75           6638          29.00       115.08
  290.22        3335.00           6641          32.00       128.16
  290.25        3335.25           6645          29.00       115.08
  290.27        3335.50           6649          32.00       128.16
  290.30        3335.75           6653          38.00       154.32
  290.33        3336.00           6656          44.00       180.47
  290.35        3336.25           6660         146.00       625.12
  290.38        3336.50           6664         418.00      1810.90
  290.41        3336.75           6668         766.00      3328.12
  290.44        3337.00           6671        1272.00      5534.42
  290.46        3337.25           6675        2396.00     10436.35
  290.49        3337.50           6679        3670.00     15994.09
  290.52        3337.75           6683        5009.00     21837.24
  290.54        3338.00           6686        5986.00     26101.90
  290.57        3338.25           6690        7409.00     32315.19
  290.60        3338.50           6694        8817.00     38465.12
  290.63        3338.75           6698       10133.00     44215.13
  290.65        3339.00           6701       11134.00     48590.05
  290.68        3339.25           6705       12590.00     54955.47
  290.71        3339.50           6709       13910.00     60728.29
  290.74        3339.75           6713       15360.00     67071.80
  290.76        3340.00           6716       16349.00     71399.79
  290.79        3340.25           6720       17812.00     77804.02
  290.82        3340.50           6724       19015.00     83071.83
  290.85        3340.75           6728       20382.00     89059.66
  290.87        3341.00           6731       21200.00     92643.66
  290.90        3341.25           6735       22459.00     98161.33
  290.93        3341.50           6739       23307.00    101878.70
  290.96        3341.75           6743       23871.00    104351.50
  290.98        3342.00           6746       23991.00    104877.70
  291.01        3342.25           6750       23702.00    103610.50
  291.04        3342.50           6754       22849.00     99870.88
  291.07        3342.75           6758       21698.00     94825.99
  291.09        3343.00           6761       20813.00     90947.96
  291.12        3343.25           6765       19388.00     84705.46
  291.15        3343.50           6769       18088.00     79012.46
  291.17        3343.75           6773       16791.00     73334.40
  291.20        3344.00           6776       15750.00     68778.36
  291.23        3344.25           6780       14412.00     62924.20
  291.26        3344.50           6784       13011.00     56796.44
  291.28        3344.75           6788       11442.00     49936.39
  291.31        3345.00           6791       10437.00     45543.66
  291.34        3345.25           6795        9077.00     39601.00
  291.37        3345.50           6799        7347.00     32044.43
  291.39        3345.75           6803        5518.00     24058.92
  291.42        3346.00           6806        4421.00     19271.08
  291.45        3346.25           6810        3363.00     14654.66
  291.47        3346.50           6814        2488.00     10837.64
  291.50        3346.75           6818        1541.00      6707.45
  291.53        3347.00           6821         905.00      3934.17
  291.56        3347.25           6825         317.00      1370.58
  291.58        3347.50           6829          74.00       311.25
  291.61        3347.75           6833          37.00       149.96
  291.64        3348.00           6836          33.00       132.52
  291.66        3348.25           6840          31.00       123.80
  291.69        3348.50           6844          35.00       141.24
  291.72        3348.75           6848          31.00       123.80
  291.75        3349.00           6851          28.00       110.72
  291.77        3349.25           6855          30.00       119.44
  291.80        3349.50           6859          26.00       102.01
  291.83        3349.75           6863          28.00       110.72
  291.85        3350.00           6867          34.00       136.88
  291.88        3350.25           6870          32.00       128.16
  291.91        3350.50           6874          31.00       123.80
  291.94        3350.75           6878          32.00       128.16
  291.96        3351.00           6882          30.00       119.44
HL scan finished at 04:52:35
end
