************************************************************
  HL Scan of (1) Internal mercury lamp
************************************************************
Integration time is 0.2294 seconds per sample
dh230119Tamanrasset 22.79-5.529 4.974364pr865
************************************************************
Dead Time -------------------------  2.8E-08 
Number of Cycles Used -------------  4 
Starting Wavelength (Angstroms) ---  3331 
Final Wavelength (Angstoms) -------  3351 
Wavelength Increment (Angstroms) --  .25 
Filter Wheel #1 Position ---------- (1) Ground quartz diffuser (ND=2.32)
Filter Wheel #2 Position ---------- (0) Clear Aperture



************************************************************
HL scan start time = 04:49:04
Dark Count =  4.9 


Time (GMT)  Wavelength (Ang)  Step Number  Raw Counts  Counts/Second

  289.57        3331.00           6581          26.00        91.98
  289.79        3331.25           6585          32.00       118.13
  289.82        3331.50           6589          30.00       109.42
  289.85        3331.75           6593          27.00        96.34
  289.87        3332.00           6596          27.00        96.34
  289.90        3332.25           6600          29.00       105.06
  289.93        3332.50           6604          24.00        83.26
  289.95        3332.75           6608          26.00        91.98
  289.98        3333.00           6611          31.00       113.78
  290.01        3333.25           6615          24.00        83.26
  290.04        3333.50           6619          28.00       100.70
  290.06        3333.75           6623          33.00       122.49
  290.09        3334.00           6626          24.00        83.26
  290.12        3334.25           6630          31.00       113.78
  290.14        3334.50           6634          28.00       100.70
  290.17        3334.75           6638          25.00        87.62
  290.20        3335.00           6641          31.00       113.78
  290.23        3335.25           6645          30.00       109.42
  290.25        3335.50           6649          30.00       109.42
  290.28        3335.75           6653          34.00       126.85
  290.31        3336.00           6656          44.00       170.45
  290.33        3336.25           6660         110.00       458.16
  290.36        3336.50           6664         363.00      1561.10
  290.39        3336.75           6668         714.00      3091.37
  290.42        3337.00           6671        1066.00      4626.14
  290.44        3337.25           6675        2178.00      9475.49
  290.47        3337.50           6679        3413.00     14862.77
  290.50        3337.75           6683        4725.00     20587.72
  290.53        3338.00           6686        5810.00     25323.53
  290.55        3338.25           6690        7192.00     31357.51
  290.58        3338.50           6694        8554.00     37306.17
  290.61        3338.75           6698        9935.00     43339.83
  290.63        3339.00           6701       10972.00     47871.89
  290.66        3339.25           6705       12520.00     54639.33
  290.69        3339.50           6709       13693.00     59769.08
  290.72        3339.75           6713       15060.00     65749.10
  290.74        3340.00           6716       16174.00     70623.83
  290.77        3340.25           6720       17299.00     75548.05
  290.80        3340.50           6724       19017.00     83070.50
  290.83        3340.75           6728       20154.00     88050.72
  290.85        3341.00           6731       21198.00     92624.83
  290.88        3341.25           6735       22407.00     97923.31
  290.91        3341.50           6739       23279.00    101745.90
  290.93        3341.75           6743       23725.00    103701.30
  290.96        3342.00           6746       23998.00    104898.30
  290.99        3342.25           6750       23693.00    103561.00
  291.02        3342.50           6754       23062.00    100794.50
  291.04        3342.75           6758       21819.00     95346.18
  291.07        3343.00           6761       20695.00     90420.88
  291.10        3343.25           6765       19339.00     84480.77
  291.13        3343.50           6769       18195.00     79470.90
  291.15        3343.75           6773       16868.00     73661.37
  291.18        3344.00           6776       15827.00     69105.25
  291.21        3344.25           6780       14558.00     63552.84
  291.23        3344.50           6784       12954.00     56537.12
  291.26        3344.75           6788       11771.00     51364.58
  291.29        3345.00           6791       10644.00     46438.29
  291.32        3345.25           6795        9181.00     40045.31
  291.34        3345.50           6799        7551.00     32925.29
  291.37        3345.75           6803        5920.00     25803.73
  291.40        3346.00           6806        4850.00     21133.25
  291.43        3346.25           6810        3444.00     14998.02
  291.45        3346.50           6814        2418.00     10522.28
  291.48        3346.75           6818        1713.00      7447.50
  291.51        3347.00           6821        1071.00      4647.95
  291.53        3347.25           6825         370.00      1591.61
  291.56        3347.50           6829          92.00       379.69
  291.59        3347.75           6833          36.00       135.57
  291.62        3348.00           6836          32.00       118.13
  291.64        3348.25           6840          29.00       105.06
  291.67        3348.50           6844          33.00       122.49
  291.70        3348.75           6848          29.00       105.06
  291.73        3349.00           6851          31.00       113.78
  291.75        3349.25           6855          31.00       113.78
  291.78        3349.50           6859          24.00        83.26
  291.81        3349.75           6863          25.00        87.62
  291.83        3350.00           6867          35.00       131.21
  291.86        3350.25           6870          26.00        91.98
  291.89        3350.50           6874          23.00        78.90
  291.91        3350.75           6878          31.00       113.78
  291.94        3351.00           6882          29.00       105.06
HL scan finished at 04:52:34
end
