************************************************************
  HL Scan of (1) Internal mercury lamp
************************************************************
Integration time is 0.2294 seconds per sample
dh220119Tamanrasset 22.79-5.529 4.974364pr865
************************************************************
Dead Time -------------------------  2.8E-08 
Number of Cycles Used -------------  4 
Starting Wavelength (Angstroms) ---  3331 
Final Wavelength (Angstoms) -------  3351 
Wavelength Increment (Angstroms) --  .25 
Filter Wheel #1 Position ---------- (1) Ground quartz diffuser (ND=2.32)
Filter Wheel #2 Position ---------- (0) Clear Aperture



************************************************************
HL scan start time = 04:48:33
Dark Count =  6.3 


Time (GMT)  Wavelength (Ang)  Step Number  Raw Counts  Counts/Second

  289.06        3331.00           6581          29.00        98.95
  289.28        3331.25           6585          28.00        94.59
  289.31        3331.50           6589          30.00       103.31
  289.33        3331.75           6593          20.00        59.72
  289.36        3332.00           6596          29.00        98.95
  289.39        3332.25           6600          32.00       112.03
  289.41        3332.50           6604          27.00        90.24
  289.44        3332.75           6608          27.00        90.24
  289.47        3333.00           6611          33.00       116.39
  289.50        3333.25           6615          31.00       107.67
  289.52        3333.50           6619          34.00       120.75
  289.55        3333.75           6623          21.00        64.08
  289.58        3334.00           6626          29.00        98.95
  289.60        3334.25           6630          30.00       103.31
  289.63        3334.50           6634          26.00        85.88
  289.66        3334.75           6638          30.00       103.31
  289.69        3335.00           6641          30.00       103.31
  289.71        3335.25           6645          28.00        94.59
  289.74        3335.50           6649          33.00       116.39
  289.77        3335.75           6653          34.00       120.75
  289.79        3336.00           6656          45.00       168.70
  289.82        3336.25           6660         182.00       765.93
  289.85        3336.50           6664         552.00      2378.97
  289.88        3336.75           6668         847.00      3665.15
  289.90        3337.00           6671        1343.00      5827.89
  289.93        3337.25           6675        2436.00     10594.69
  289.96        3337.50           6679        3755.00     16348.81
  289.99        3337.75           6683        5044.00     21973.85
  290.01        3338.00           6686        6039.00     26317.12
  290.04        3338.25           6690        7496.00     32678.97
  290.07        3338.50           6694        8897.00     38798.45
  290.09        3338.75           6698       10160.00     44316.95
  290.12        3339.00           6701       11219.00     48945.41
  290.15        3339.25           6705       12548.00     54755.64
  290.18        3339.50           6709       13950.00     60887.07
  290.20        3339.75           6713       15300.00     66793.06
  290.23        3340.00           6716       16486.00     71983.22
  290.26        3340.25           6720       17875.00     78063.65
  290.29        3340.50           6724       19059.00     83248.31
  290.31        3340.75           6728       20459.00     89380.78
  290.34        3341.00           6731       21523.00     94042.86
  290.37        3341.25           6735       22561.00     98592.19
  290.40        3341.50           6739       23528.00    102831.40
  290.42        3341.75           6743       23953.00    104694.90
  290.45        3342.00           6746       24118.00    105418.40
  290.48        3342.25           6750       23925.00    104572.10
  290.51        3342.50           6754       23177.00    101292.50
  290.53        3342.75           6758       21654.00     94616.94
  290.56        3343.00           6761       20666.00     90287.69
  290.59        3343.25           6765       19493.00     85149.16
  290.61        3343.50           6769       18156.00     79293.99
  290.64        3343.75           6773       16977.00     74132.35
  290.67        3344.00           6776       15860.00     69243.55
  290.70        3344.25           6780       14517.00     63367.35
  290.72        3344.50           6784       13098.00     57160.73
  290.75        3344.75           6788       11714.00     51109.27
  290.78        3345.00           6791       10641.00     46419.06
  290.81        3345.25           6795        9195.00     40100.36
  290.83        3345.50           6799        7446.00     32460.62
  290.86        3345.75           6803        5655.00     24640.80
  290.89        3346.00           6806        4588.00     19983.72
  290.91        3346.25           6810        3352.00     14590.53
  290.94        3346.50           6814        2401.00     10442.02
  290.97        3346.75           6818        1614.00      7009.66
  291.00        3347.00           6821        1018.00      4410.75
  291.02        3347.25           6825         354.00      1515.76
  291.05        3347.50           6829          88.00       356.15
  291.08        3347.75           6833          30.00       103.31
  291.11        3348.00           6836          38.00       138.19
  291.13        3348.25           6840          32.00       112.03
  291.16        3348.50           6844          29.00        98.95
  291.19        3348.75           6848          27.00        90.24
  291.21        3349.00           6851          29.00        98.95
  291.24        3349.25           6855          25.00        81.52
  291.27        3349.50           6859          32.00       112.03
  291.30        3349.75           6863          29.00        98.95
  291.32        3350.00           6867          34.00       120.75
  291.35        3350.25           6870          35.00       125.11
  291.38        3350.50           6874          33.00       116.39
  291.40        3350.75           6878          29.00        98.95
  291.43        3351.00           6882          33.00       116.39
HL scan finished at 04:52:03
end
