************************************************************
  HL Scan of (1) Internal mercury lamp
************************************************************
Integration time is 0.2294 seconds per sample
dh290119Tamanrasset 22.79-5.529 4.974364pr865
************************************************************
Dead Time -------------------------  2.8E-08 
Number of Cycles Used -------------  4 
Starting Wavelength (Angstroms) ---  3331 
Final Wavelength (Angstoms) -------  3351 
Wavelength Increment (Angstroms) --  .25 
Filter Wheel #1 Position ---------- (1) Ground quartz diffuser (ND=2.32)
Filter Wheel #2 Position ---------- (0) Clear Aperture



************************************************************
HL scan start time = 04:46:38
Dark Count =  3.5 


Time (GMT)  Wavelength (Ang)  Step Number  Raw Counts  Counts/Second

  287.14        3331.00           6581          24.00        89.36
  287.36        3331.25           6585          29.00       111.16
  287.38        3331.50           6589          30.00       115.52
  287.41        3331.75           6593          26.00        98.08
  287.44        3332.00           6596          25.00        93.72
  287.47        3332.25           6600          34.00       132.96
  287.49        3332.50           6604          25.00        93.72
  287.52        3332.75           6608          26.00        98.08
  287.55        3333.00           6611          27.00       102.44
  287.58        3333.25           6615          32.00       124.24
  287.60        3333.50           6619          31.00       119.88
  287.63        3333.75           6623          28.00       106.80
  287.66        3334.00           6626          30.00       115.52
  287.68        3334.25           6630          25.00        93.72
  287.71        3334.50           6634          30.00       115.52
  287.74        3334.75           6638          29.00       111.16
  287.77        3335.00           6641          26.00        98.08
  287.79        3335.25           6645          26.00        98.08
  287.82        3335.50           6649          32.00       124.24
  287.85        3335.75           6653          35.00       137.32
  287.87        3336.00           6656          38.00       150.39
  287.90        3336.25           6660         103.00       433.75
  287.93        3336.50           6664         340.00      1466.93
  287.96        3336.75           6668         582.00      2521.97
  287.98        3337.00           6671        1054.00      4579.93
  288.01        3337.25           6675        2042.00      8888.44
  288.04        3337.50           6679        3311.00     14423.87
  288.07        3337.75           6683        4592.00     20013.39
  288.09        3338.00           6686        5613.00     24469.68
  288.12        3338.25           6690        6965.00     30372.38
  288.15        3338.50           6694        8417.00     36713.84
  288.17        3338.75           6698        9694.00     42292.87
  288.20        3339.00           6701       10731.00     46824.65
  288.23        3339.25           6705       12148.00     53018.93
  288.26        3339.50           6709       13453.00     58725.52
  288.28        3339.75           6713       14955.00     65295.82
  288.31        3340.00           6716       15848.00     69203.28
  288.34        3340.25           6720       17272.00     75435.98
  288.37        3340.50           6724       18498.00     80803.81
  288.39        3340.75           6728       19882.00     86865.34
  288.42        3341.00           6731       20771.00     90760.00
  288.45        3341.25           6735       21938.00     95873.85
  288.47        3341.50           6739       22845.00     99849.40
  288.50        3341.75           6743       23455.00    102523.60
  288.53        3342.00           6746       23611.00    103207.60
  288.56        3342.25           6750       23677.00    103497.00
  288.58        3342.50           6754       22954.00    100327.20
  288.61        3342.75           6758       21791.00     95229.60
  288.64        3343.00           6761       20634.00     90159.76
  288.67        3343.25           6765       19406.00     84780.35
  288.69        3343.50           6769       18060.00     78885.91
  288.72        3343.75           6773       16846.00     73571.19
  288.75        3344.00           6776       15820.00     69080.75
  288.77        3344.25           6780       14550.00     63523.96
  288.80        3344.50           6784       13175.00     57509.71
  288.83        3344.75           6788       11835.00     51650.49
  288.86        3345.00           6791       10668.00     46549.30
  288.88        3345.25           6795        9418.00     41086.91
  288.91        3345.50           6799        7594.00     33119.19
  288.94        3345.75           6803        5855.00     25526.09
  288.97        3346.00           6806        4778.00     20825.13
  288.99        3346.25           6810        3635.00     15837.45
  289.02        3346.50           6814        2784.00     12124.87
  289.05        3346.75           6818        1874.00      8155.74
  289.07        3347.00           6821        1222.00      5312.47
  289.10        3347.25           6825         477.00      2064.20
  289.13        3347.50           6829         132.00       560.17
  289.16        3347.75           6833          39.00       154.75
  289.18        3348.00           6836          29.00       111.16
  289.21        3348.25           6840          33.00       128.60
  289.24        3348.50           6844          29.00       111.16
  289.27        3348.75           6848          27.00       102.44
  289.29        3349.00           6851          28.00       106.80
  289.32        3349.25           6855          28.00       106.80
  289.35        3349.50           6859          34.00       132.96
  289.37        3349.75           6863          29.00       111.16
  289.40        3350.00           6867          31.00       119.88
  289.43        3350.25           6870          32.00       124.24
  289.46        3350.50           6874          28.00       106.80
  289.48        3350.75           6878          27.00       102.44
  289.51        3351.00           6882          27.00       102.44
HL scan finished at 04:50:08
end
