************************************************************
  HL Scan of (1) Internal mercury lamp
************************************************************
Integration time is 0.2294 seconds per sample
dh240119Tamanrasset 22.79-5.529 4.974364pr865
************************************************************
Dead Time -------------------------  2.8E-08 
Number of Cycles Used -------------  4 
Starting Wavelength (Angstroms) ---  3331 
Final Wavelength (Angstoms) -------  3351 
Wavelength Increment (Angstroms) --  .25 
Filter Wheel #1 Position ---------- (1) Ground quartz diffuser (ND=2.32)
Filter Wheel #2 Position ---------- (0) Clear Aperture



************************************************************
HL scan start time = 04:49:02
Dark Count =  2.4 


Time (GMT)  Wavelength (Ang)  Step Number  Raw Counts  Counts/Second

  289.55        3331.00           6581          23.00        89.80
  289.76        3331.25           6585          28.00       111.60
  289.79        3331.50           6589          29.00       115.96
  289.82        3331.75           6593          26.00       102.88
  289.85        3332.00           6596          29.00       115.96
  289.87        3332.25           6600          27.00       107.24
  289.90        3332.50           6604          25.00        98.52
  289.93        3332.75           6608          22.00        85.44
  289.95        3333.00           6611          21.00        81.08
  289.98        3333.25           6615          29.00       115.96
  290.01        3333.50           6619          31.00       124.67
  290.04        3333.75           6623          29.00       115.96
  290.06        3334.00           6626          31.00       124.67
  290.09        3334.25           6630          30.00       120.31
  290.12        3334.50           6634          31.00       124.67
  290.14        3334.75           6638          29.00       115.96
  290.17        3335.00           6641          24.00        94.16
  290.20        3335.25           6645          30.00       120.31
  290.23        3335.50           6649          33.00       133.39
  290.25        3335.75           6653          34.00       137.75
  290.28        3336.00           6656          38.00       155.19
  290.31        3336.25           6660         191.00       822.16
  290.33        3336.50           6664         517.00      2243.38
  290.36        3336.75           6668         874.00      3799.88
  290.39        3337.00           6671        1346.00      5857.98
  290.42        3337.25           6675        2431.00     10589.89
  290.44        3337.50           6679        3744.00     16317.83
  290.47        3337.75           6683        5108.00     22270.20
  290.50        3338.00           6686        5957.00     25976.17
  290.52        3338.25           6690        7528.00     32835.76
  290.55        3338.50           6694        8888.00     38776.17
  290.58        3338.75           6698       10127.00     44189.78
  290.61        3339.00           6701       11169.00     48743.90
  290.63        3339.25           6705       12665.00     55284.29
  290.66        3339.50           6709       14051.00     61345.91
  290.69        3339.75           6713       15195.00     66350.71
  290.72        3340.00           6716       16395.00     71602.00
  290.74        3340.25           6720       17570.00     76745.38
  290.77        3340.50           6724       18984.00     82936.93
  290.80        3340.75           6728       20332.00     88841.47
  290.83        3341.00           6731       21193.00     92613.88
  290.85        3341.25           6735       22391.00     97864.13
  290.88        3341.50           6739       23282.00    101770.00
  290.91        3341.75           6743       23635.00    103317.60
  290.94        3342.00           6746       23785.00    103975.30
  290.96        3342.25           6750       23586.00    103102.80
  290.99        3342.50           6754       22903.00    100108.50
  291.02        3342.75           6758       21639.00     94568.30
  291.04        3343.00           6761       20392.00     89104.34
  291.07        3343.25           6765       19519.00     85280.12
  291.10        3343.50           6769       18019.00     78711.21
  291.13        3343.75           6773       16565.00     72346.05
  291.15        3344.00           6776       15400.00     67247.69
  291.18        3344.25           6780       14256.00     62242.64
  291.21        3344.50           6784       12787.00     55817.78
  291.24        3344.75           6788       11517.00     50265.12
  291.26        3345.00           6791       10327.00     45063.80
  291.29        3345.25           6795        8994.00     39239.26
  291.32        3345.50           6799        7347.00     32045.31
  291.34        3345.75           6803        5658.00     24670.92
  291.37        3346.00           6806        4635.00     20205.85
  291.40        3346.25           6810        3375.00     14707.89
  291.43        3346.50           6814        2193.00      9551.81
  291.45        3346.75           6818        1552.00      6756.29
  291.48        3347.00           6821         916.00      3983.01
  291.51        3347.25           6825         284.00      1227.59
  291.54        3347.50           6829          72.00       303.40
  291.56        3347.75           6833          35.00       142.11
  291.59        3348.00           6836          32.00       129.03
  291.62        3348.25           6840          31.00       124.67
  291.64        3348.50           6844          31.00       124.67
  291.67        3348.75           6848          23.00        89.80
  291.70        3349.00           6851          29.00       115.96
  291.73        3349.25           6855          28.00       111.60
  291.75        3349.50           6859          36.00       146.47
  291.78        3349.75           6863          33.00       133.39
  291.81        3350.00           6867          26.00       102.88
  291.83        3350.25           6870          34.00       137.75
  291.86        3350.50           6874          27.00       107.24
  291.89        3350.75           6878          28.00       111.60
  291.92        3351.00           6882          31.00       124.67
HL scan finished at 04:52:32
end
