************************************************************
  HL Scan of (1) Internal mercury lamp
************************************************************
Integration time is 0.2294 seconds per sample
dh250119Tamanrasset 22.79-5.529 4.974364pr865
************************************************************
Dead Time -------------------------  2.8E-08 
Number of Cycles Used -------------  4 
Starting Wavelength (Angstroms) ---  3331 
Final Wavelength (Angstoms) -------  3351 
Wavelength Increment (Angstroms) --  .25 
Filter Wheel #1 Position ---------- (1) Ground quartz diffuser (ND=2.32)
Filter Wheel #2 Position ---------- (0) Clear Aperture



************************************************************
HL scan start time = 04:47:40
Dark Count =  5.5 


Time (GMT)  Wavelength (Ang)  Step Number  Raw Counts  Counts/Second

  288.17        3331.00           6581          26.00        89.36
  288.39        3331.25           6585          32.00       115.52
  288.42        3331.50           6589          32.00       115.52
  288.45        3331.75           6593          25.00        85.00
  288.47        3332.00           6596          26.00        89.36
  288.50        3332.25           6600          26.00        89.36
  288.53        3332.50           6604          30.00       106.80
  288.55        3332.75           6608          25.00        85.00
  288.58        3333.00           6611          27.00        93.72
  288.61        3333.25           6615          32.00       115.52
  288.64        3333.50           6619          25.00        85.00
  288.66        3333.75           6623          33.00       119.88
  288.69        3334.00           6626          29.00       102.44
  288.72        3334.25           6630          27.00        93.72
  288.75        3334.50           6634          27.00        93.72
  288.77        3334.75           6638          29.00       102.44
  288.80        3335.00           6641          32.00       115.52
  288.83        3335.25           6645          30.00       106.80
  288.85        3335.50           6649          32.00       115.52
  288.88        3335.75           6653          35.00       128.60
  288.91        3336.00           6656          43.00       163.47
  288.94        3336.25           6660         159.00       669.15
  288.96        3336.50           6664         470.00      2024.96
  288.99        3336.75           6668         750.00      3245.72
  289.02        3337.00           6671        1298.00      5635.15
  289.05        3337.25           6675        2379.00     10349.56
  289.07        3337.50           6679        3594.00     15649.84
  289.10        3337.75           6683        4897.00     21335.76
  289.13        3338.00           6686        5971.00     26023.75
  289.15        3338.25           6690        7363.00     32101.64
  289.18        3338.50           6694        8594.00     37478.28
  289.21        3338.75           6698       10009.00     43660.58
  289.24        3339.00           6701       11186.00     48804.66
  289.26        3339.25           6705       12511.00     54597.35
  289.29        3339.50           6709       13826.00     60348.19
  289.32        3339.75           6713       15179.00     66267.13
  289.35        3340.00           6716       16257.00     70984.46
  289.37        3340.25           6720       17477.00     76324.66
  289.40        3340.50           6724       18776.00     82012.44
  289.43        3340.75           6728       20178.00     88153.24
  289.45        3341.00           6731       21174.00     92517.04
  289.48        3341.25           6735       22345.00     97648.92
  289.51        3341.50           6739       23095.00    100936.60
  289.54        3341.75           6743       23791.00    103988.00
  289.56        3342.00           6746       23713.00    103646.10
  289.59        3342.25           6750       23565.00    102997.10
  289.62        3342.50           6754       22813.00     99700.34
  289.65        3342.75           6758       21501.00     93949.96
  289.67        3343.00           6761       20570.00     89870.59
  289.70        3343.25           6765       19294.00     84281.05
  289.73        3343.50           6769       17918.00     78255.41
  289.76        3343.75           6773       16704.00     72940.90
  289.78        3344.00           6776       15528.00     67794.22
  289.81        3344.25           6780       14454.00     63095.24
  289.84        3344.50           6784       12901.00     56302.73
  289.86        3344.75           6788       11485.00     50111.68
  289.89        3345.00           6791       10443.00     45557.21
  289.92        3345.25           6795        9123.00     39789.29
  289.95        3345.50           6799        7366.00     32114.75
  289.97        3345.75           6803        5748.00     25050.26
  290.00        3346.00           6806        4616.00     20109.40
  290.03        3346.25           6810        3321.00     14458.77
  290.06        3346.50           6814        2417.00     10515.30
  290.08        3346.75           6818        1617.00      7026.23
  290.11        3347.00           6821        1030.00      4466.56
  290.14        3347.25           6825         351.00      1506.17
  290.16        3347.50           6829          80.00       324.76
  290.19        3347.75           6833          35.00       128.60
  290.22        3348.00           6836          30.00       106.80
  290.25        3348.25           6840          31.00       111.16
  290.27        3348.50           6844          33.00       119.88
  290.30        3348.75           6848          31.00       111.16
  290.33        3349.00           6851          27.00        93.72
  290.35        3349.25           6855          29.00       102.44
  290.38        3349.50           6859          36.00       132.96
  290.41        3349.75           6863          29.00       102.44
  290.44        3350.00           6867          27.00        93.72
  290.46        3350.25           6870          33.00       119.88
  290.49        3350.50           6874          24.00        80.65
  290.52        3350.75           6878          31.00       111.16
  290.54        3351.00           6882          33.00       119.88
HL scan finished at 04:51:10
end
