************************************************************
  HL Scan of (1) Internal mercury lamp
************************************************************
Integration time is 0.2294 seconds per sample
dh270119Tamanrasset 22.79-5.529 4.974364pr865
************************************************************
Dead Time -------------------------  2.8E-08 
Number of Cycles Used -------------  4 
Starting Wavelength (Angstroms) ---  3331 
Final Wavelength (Angstoms) -------  3351 
Wavelength Increment (Angstroms) --  .25 
Filter Wheel #1 Position ---------- (1) Ground quartz diffuser (ND=2.32)
Filter Wheel #2 Position ---------- (0) Clear Aperture



************************************************************
HL scan start time = 04:47:37
Dark Count =  6.2 


Time (GMT)  Wavelength (Ang)  Step Number  Raw Counts  Counts/Second

  288.13        3331.00           6581          32.00       112.47
  288.35        3331.25           6585          32.00       112.47
  288.38        3331.50           6589          24.00        77.59
  288.40        3331.75           6593          35.00       125.55
  288.43        3332.00           6596          27.00        90.67
  288.46        3332.25           6600          26.00        86.31
  288.48        3332.50           6604          28.00        95.03
  288.51        3332.75           6608          29.00        99.39
  288.54        3333.00           6611          25.00        81.95
  288.57        3333.25           6615          30.00       103.75
  288.59        3333.50           6619          26.00        86.31
  288.62        3333.75           6623          27.00        90.67
  288.65        3334.00           6626          30.00       103.75
  288.67        3334.25           6630          29.00        99.39
  288.70        3334.50           6634          27.00        90.67
  288.73        3334.75           6638          28.00        95.03
  288.76        3335.00           6641          26.00        86.31
  288.78        3335.25           6645          30.00       103.75
  288.81        3335.50           6649          31.00       108.11
  288.84        3335.75           6653          40.00       147.34
  288.86        3336.00           6656          47.00       177.86
  288.89        3336.25           6660         186.00       783.80
  288.92        3336.50           6664         527.00      2270.41
  288.95        3336.75           6668         782.00      3382.19
  288.97        3337.00           6671        1344.00      5832.69
  289.00        3337.25           6675        2499.00     10869.92
  289.03        3337.50           6679        3803.00     16558.68
  289.05        3337.75           6683        5019.00     21865.17
  289.08        3338.00           6686        6097.00     26570.76
  289.11        3338.25           6690        7480.00     32609.54
  289.14        3338.50           6694        8847.00     38580.45
  289.16        3338.75           6698       10281.00     44846.17
  289.19        3339.00           6701       11303.00     49313.03
  289.22        3339.25           6705       12574.00     54869.76
  289.24        3339.50           6709       13902.00     60677.55
  289.27        3339.75           6713       15187.00     66299.07
  289.30        3340.00           6716       16268.00     71029.53
  289.33        3340.25           6720       17731.00     77433.62
  289.35        3340.50           6724       19031.00     83126.13
  289.38        3340.75           6728       20441.00     89302.37
  289.41        3341.00           6731       21358.00     93320.25
  289.44        3341.25           6735       22449.00     98101.71
  289.46        3341.50           6739       23439.00    102441.60
  289.49        3341.75           6743       23781.00    103941.10
  289.52        3342.00           6746       23793.00    103993.80
  289.55        3342.25           6750       23714.00    103647.40
  289.57        3342.50           6754       22950.00    100297.80
  289.60        3342.75           6758       21671.00     94691.89
  289.63        3343.00           6761       20972.00     91628.87
  289.66        3343.25           6765       19520.00     85267.86
  289.68        3343.50           6769       18033.00     78755.88
  289.71        3343.75           6773       16783.00     73283.63
  289.74        3344.00           6776       15661.00     68373.15
  289.76        3344.25           6780       14323.00     62519.11
  289.79        3344.50           6784       13013.00     56789.44
  289.82        3344.75           6788       11604.00     50628.83
  289.85        3345.00           6791       10403.00     45379.34
  289.87        3345.25           6795        9241.00     40301.77
  289.90        3345.50           6799        7381.00     32177.19
  289.93        3345.75           6803        5544.00     24156.70
  289.96        3346.00           6806        4389.00     19115.72
  289.98        3346.25           6810        3264.00     14207.05
  290.01        3346.50           6814        2500.00     10874.28
  290.04        3346.75           6818        1648.00      7158.37
  290.06        3347.00           6821        1019.00      4415.54
  290.09        3347.25           6825         361.00      1546.71
  290.12        3347.50           6829          86.00       347.87
  290.15        3347.75           6833          31.00       108.11
  290.17        3348.00           6836          34.00       121.19
  290.20        3348.25           6840          34.00       121.19
  290.23        3348.50           6844          31.00       108.11
  290.25        3348.75           6848          31.00       108.11
  290.28        3349.00           6851          32.00       112.47
  290.31        3349.25           6855          27.00        90.67
  290.34        3349.50           6859          29.00        99.39
  290.36        3349.75           6863          33.00       116.83
  290.39        3350.00           6867          29.00        99.39
  290.42        3350.25           6870          28.00        95.03
  290.44        3350.50           6874          28.00        95.03
  290.47        3350.75           6878          30.00       103.75
  290.50        3351.00           6882          28.00        95.03
HL scan finished at 04:51:07
end
