************************************************************
  HL Scan of (1) Internal mercury lamp
************************************************************
Integration time is 0.2294 seconds per sample
dh210119Tamanrasset 22.79-5.529 4.974364pr865
************************************************************
Dead Time -------------------------  2.8E-08 
Number of Cycles Used -------------  4 
Starting Wavelength (Angstroms) ---  3331 
Final Wavelength (Angstoms) -------  3351 
Wavelength Increment (Angstroms) --  .25 
Filter Wheel #1 Position ---------- (1) Ground quartz diffuser (ND=2.32)
Filter Wheel #2 Position ---------- (0) Clear Aperture



************************************************************
HL scan start time = 04:48:36
Dark Count =  3.8 


Time (GMT)  Wavelength (Ang)  Step Number  Raw Counts  Counts/Second

  289.12        3331.00           6581          27.00       101.13
  289.34        3331.25           6585          21.00        74.98
  289.36        3331.50           6589          27.00       101.13
  289.39        3331.75           6593          32.00       122.93
  289.42        3332.00           6596          24.00        88.06
  289.44        3332.25           6600          26.00        96.77
  289.47        3332.50           6604          24.00        88.06
  289.50        3332.75           6608          25.00        92.42
  289.53        3333.00           6611          30.00       114.21
  289.55        3333.25           6615          28.00       105.49
  289.58        3333.50           6619          30.00       114.21
  289.61        3333.75           6623          27.00       101.13
  289.63        3334.00           6626          28.00       105.49
  289.66        3334.25           6630          32.00       122.93
  289.69        3334.50           6634          30.00       114.21
  289.72        3334.75           6638          27.00       101.13
  289.74        3335.00           6641          29.00       109.85
  289.77        3335.25           6645          30.00       114.21
  289.80        3335.50           6649          33.00       127.29
  289.82        3335.75           6653          34.00       131.65
  289.85        3336.00           6656          37.00       144.73
  289.88        3336.25           6660          91.00       380.13
  289.91        3336.50           6664         348.00      1500.50
  289.93        3336.75           6668         709.00      3074.37
  289.96        3337.00           6671        1027.00      4460.89
  289.99        3337.25           6675        2036.00      8860.96
  290.01        3337.50           6679        3312.00     14426.93
  290.04        3337.75           6683        4631.00     20182.29
  290.07        3338.00           6686        5585.00     24346.15
  290.10        3338.25           6690        6963.00     30362.34
  290.12        3338.50           6694        8436.00     36795.52
  290.15        3338.75           6698        9734.00     42466.33
  290.18        3339.00           6701       10752.00     46915.12
  290.21        3339.25           6705       12037.00     52532.32
  290.23        3339.50           6709       13584.00     59297.15
  290.26        3339.75           6713       14874.00     64940.12
  290.29        3340.00           6716       15879.00     69337.63
  290.31        3340.25           6720       17228.00     75242.05
  290.34        3340.50           6724       18635.00     81402.41
  290.37        3340.75           6728       19867.00     86798.31
  290.40        3341.00           6731       20807.00     90916.41
  290.42        3341.25           6735       21987.00     96087.28
  290.45        3341.50           6739       22909.00    100128.60
  290.48        3341.75           6743       23600.00    103158.10
  290.51        3342.00           6746       23701.00    103600.90
  290.53        3342.25           6750       23532.00    102859.90
  290.56        3342.50           6754       23045.00    100724.80
  290.59        3342.75           6758       21845.00     95464.96
  290.61        3343.00           6761       20840.00     91061.00
  290.64        3343.25           6765       19492.00     85155.72
  290.67        3343.50           6769       18306.00     79961.75
  290.70        3343.75           6773       16771.00     73241.59
  290.72        3344.00           6776       15831.00     69127.56
  290.75        3344.25           6780       14629.00     63868.26
  290.78        3344.50           6784       13084.00     57110.44
  290.81        3344.75           6788       11696.00     51041.51
  290.83        3345.00           6791       10670.00     46556.73
  290.86        3345.25           6795        9245.00     40329.74
  290.89        3345.50           6799        7665.00     33427.96
  290.92        3345.75           6803        5948.00     25930.77
  290.94        3346.00           6806        4750.00     20701.62
  290.97        3346.25           6810        3672.00     15997.57
  291.00        3346.50           6814        2584.00     11251.15
  291.02        3346.75           6818        1702.00      7404.32
  291.05        3347.00           6821        1172.00      5093.14
  291.08        3347.25           6825         437.00      1888.50
  291.11        3347.50           6829         116.00       489.11
  291.13        3347.75           6833          35.00       136.01
  291.16        3348.00           6836          35.00       136.01
  291.19        3348.25           6840          31.00       118.57
  291.21        3348.50           6844          32.00       122.93
  291.24        3348.75           6848          29.00       109.85
  291.27        3349.00           6851          29.00       109.85
  291.30        3349.25           6855          31.00       118.57
  291.32        3349.50           6859          36.00       140.37
  291.35        3349.75           6863          28.00       105.49
  291.38        3350.00           6867          26.00        96.77
  291.40        3350.25           6870          28.00       105.49
  291.43        3350.50           6874          27.00       101.13
  291.46        3350.75           6878          28.00       105.49
  291.49        3351.00           6882          29.00       109.85
HL scan finished at 04:52:06
end
