************************************************************
  HL Scan of (1) Internal mercury lamp
************************************************************
Integration time is 0.2294 seconds per sample
dh050219Tamanrasset 22.79-5.529 4.974364pr865
************************************************************
Dead Time -------------------------  2.8E-08 
Number of Cycles Used -------------  4 
Starting Wavelength (Angstroms) ---  3331 
Final Wavelength (Angstoms) -------  3351 
Wavelength Increment (Angstroms) --  .25 
Filter Wheel #1 Position ---------- (1) Ground quartz diffuser (ND=2.32)
Filter Wheel #2 Position ---------- (0) Clear Aperture



************************************************************
HL scan start time = 04:44:32
Dark Count =  5.2 


Time (GMT)  Wavelength (Ang)  Step Number  Raw Counts  Counts/Second

  285.04        3331.00           6581          26.00        90.67
  285.26        3331.25           6585          32.00       116.83
  285.28        3331.50           6589          28.00        99.39
  285.31        3331.75           6593          24.00        81.95
  285.34        3332.00           6596          30.00       108.11
  285.37        3332.25           6600          29.00       103.75
  285.39        3332.50           6604          21.00        68.88
  285.42        3332.75           6608          27.00        95.03
  285.45        3333.00           6611          27.00        95.03
  285.47        3333.25           6615          30.00       108.11
  285.50        3333.50           6619          29.00       103.75
  285.53        3333.75           6623          31.00       112.47
  285.56        3334.00           6626          25.00        86.31
  285.58        3334.25           6630          26.00        90.67
  285.61        3334.50           6634          32.00       116.83
  285.64        3334.75           6638          29.00       103.75
  285.66        3335.00           6641          30.00       108.11
  285.69        3335.25           6645          27.00        95.03
  285.72        3335.50           6649          39.00       147.34
  285.75        3335.75           6653          33.00       121.19
  285.77        3336.00           6656          43.00       164.78
  285.80        3336.25           6660         129.00       539.68
  285.83        3336.50           6664         481.00      2074.23
  285.85        3336.75           6668         708.00      3063.91
  285.88        3337.00           6671        1234.00      5357.39
  285.91        3337.25           6675        2359.00     10263.63
  285.94        3337.50           6679        3569.00     15542.07
  285.96        3337.75           6683        4918.00     21428.72
  285.99        3338.00           6686        5957.00     25963.94
  286.02        3338.25           6690        7431.00     32399.91
  286.05        3338.50           6694        8746.00     38143.60
  286.07        3338.75           6698       10019.00     43705.59
  286.10        3339.00           6701       10973.00     47874.94
  286.13        3339.25           6705       12588.00     54935.35
  286.15        3339.50           6709       13763.00     60073.94
  286.18        3339.75           6713       15302.00     66806.63
  286.21        3340.00           6716       16390.00     71567.87
  286.24        3340.25           6720       17810.00     77783.88
  286.26        3340.50           6724       19339.00     84479.46
  286.29        3340.75           6728       20538.00     89731.72
  286.32        3341.00           6731       21231.00     92768.12
  286.35        3341.25           6735       22487.00     98272.66
  286.37        3341.50           6739       23615.00    103217.70
  286.40        3341.75           6743       23931.00    104603.20
  286.43        3342.00           6746       24152.00    105572.30
  286.46        3342.25           6750       23712.00    103643.00
  286.48        3342.50           6754       22898.00    100074.30
  286.51        3342.75           6758       21549.00     94161.62
  286.54        3343.00           6761       20896.00     91300.24
  286.56        3343.25           6765       19382.00     84667.79
  286.59        3343.50           6769       18195.00     79469.59
  286.62        3343.75           6773       16771.00     73235.47
  286.65        3344.00           6776       15652.00     68338.15
  286.67        3344.25           6780       14235.00     62138.54
  286.70        3344.50           6784       12924.00     56404.62
  286.73        3344.75           6788       11634.00     50764.35
  286.76        3345.00           6791       10530.00     45938.74
  286.78        3345.25           6795        9126.00     39803.71
  286.81        3345.50           6799        7424.00     32369.34
  286.84        3345.75           6803        5596.00     24388.05
  286.86        3346.00           6806        4552.00     19831.41
  286.89        3346.25           6810        3438.00     14970.53
  286.92        3346.50           6814        2485.00     10813.21
  286.95        3346.75           6818        1647.00      7158.37
  286.97        3347.00           6821        1011.00      4385.02
  287.00        3347.25           6825         340.00      1459.52
  287.03        3347.50           6829          81.00       330.43
  287.05        3347.75           6833          41.00       156.06
  287.08        3348.00           6836          34.00       125.55
  287.11        3348.25           6840          28.00        99.39
  287.14        3348.50           6844          29.00       103.75
  287.16        3348.75           6848          29.00       103.75
  287.19        3349.00           6851          24.00        81.95
  287.22        3349.25           6855          31.00       112.47
  287.24        3349.50           6859          31.00       112.47
  287.27        3349.75           6863          32.00       116.83
  287.30        3350.00           6867          33.00       121.19
  287.33        3350.25           6870          28.00        99.39
  287.35        3350.50           6874          35.00       129.90
  287.38        3350.75           6878          31.00       112.47
  287.41        3351.00           6882          36.00       134.26
HL scan finished at 04:48:02
end
