************************************************************
  HL Scan of (1) Internal mercury lamp
************************************************************
Integration time is 0.2294 seconds per sample
dh020219Tamanrasset 22.79-5.529 4.974364pr865
************************************************************
Dead Time -------------------------  2.8E-08 
Number of Cycles Used -------------  4 
Starting Wavelength (Angstroms) ---  3331 
Final Wavelength (Angstoms) -------  3351 
Wavelength Increment (Angstroms) --  .25 
Filter Wheel #1 Position ---------- (1) Ground quartz diffuser (ND=2.32)
Filter Wheel #2 Position ---------- (0) Clear Aperture



************************************************************
HL scan start time = 04:46:11
Dark Count =  5.6 


Time (GMT)  Wavelength (Ang)  Step Number  Raw Counts  Counts/Second

  286.70        3331.00           6581          28.00        97.65
  286.92        3331.25           6585          28.00        97.65
  286.94        3331.50           6589          25.00        84.57
  286.97        3331.75           6593          27.00        93.29
  287.00        3332.00           6596          26.00        88.93
  287.03        3332.25           6600          24.00        80.21
  287.05        3332.50           6604          25.00        84.57
  287.08        3332.75           6608          35.00       128.16
  287.11        3333.00           6611          32.00       115.08
  287.13        3333.25           6615          28.00        97.65
  287.16        3333.50           6619          28.00        97.65
  287.19        3333.75           6623          26.00        88.93
  287.22        3334.00           6626          31.00       110.72
  287.24        3334.25           6630          30.00       106.36
  287.27        3334.50           6634          31.00       110.72
  287.30        3334.75           6638          29.00       102.01
  287.32        3335.00           6641          26.00        88.93
  287.35        3335.25           6645          30.00       106.36
  287.38        3335.50           6649          35.00       128.16
  287.41        3335.75           6653          38.00       141.24
  287.43        3336.00           6656          37.00       136.88
  287.46        3336.25           6660          97.00       398.44
  287.49        3336.50           6664         288.00      1231.08
  287.52        3336.75           6668         563.00      2429.98
  287.54        3337.00           6671         913.00      3955.97
  287.57        3337.25           6675        1821.00      7915.44
  287.60        3337.50           6679        3067.00     13350.24
  287.62        3337.75           6683        4404.00     19183.80
  287.65        3338.00           6686        5370.00     23399.81
  287.68        3338.25           6690        6840.00     29817.39
  287.71        3338.50           6694        8169.00     35621.39
  287.73        3338.75           6698        9509.00     41475.34
  287.76        3339.00           6701       10588.00     46190.48
  287.79        3339.25           6705       11891.00     51886.14
  287.82        3339.50           6709       13327.00     58165.28
  287.84        3339.75           6713       14742.00     64354.74
  287.87        3340.00           6716       15819.00     69067.18
  287.90        3340.25           6720       17142.00     74857.70
  287.92        3340.50           6724       18401.00     80369.86
  287.95        3340.75           6728       19790.00     86453.14
  287.98        3341.00           6731       20804.00     90895.39
  288.01        3341.25           6735       22000.00     96136.38
  288.03        3341.50           6739       23044.00    100712.60
  288.06        3341.75           6743       23664.00    103430.80
  288.09        3342.00           6746       23884.00    104395.40
  288.12        3342.25           6750       23788.00    103974.50
  288.14        3342.50           6754       23358.00    102089.10
  288.17        3342.75           6758       22184.00     96942.82
  288.20        3343.00           6761       21164.00     92472.78
  288.23        3343.25           6765       19860.00     86759.78
  288.25        3343.50           6769       18723.00     81779.91
  288.28        3343.75           6773       17285.00     75483.70
  288.31        3344.00           6776       16272.00     71049.66
  288.34        3344.25           6780       14980.00     65396.01
  288.36        3344.50           6784       13453.00     58716.34
  288.39        3344.75           6788       12229.00     53363.90
  288.42        3345.00           6791       11095.00     48406.46
  288.44        3345.25           6795        9643.00     42060.84
  288.47        3345.50           6799        8018.00     34961.85
  288.50        3345.75           6803        6278.00     27363.59
  288.53        3346.00           6806        5182.00     22579.22
  288.55        3346.25           6810        3848.00     16757.64
  288.58        3346.50           6814        2758.00     12002.29
  288.61        3346.75           6818        2139.00      9302.34
  288.64        3347.00           6821        1371.00      5953.04
  288.66        3347.25           6825         560.00      2416.90
  288.69        3347.50           6829         155.00       651.28
  288.72        3347.75           6833          38.00       141.24
  288.74        3348.00           6836          31.00       110.72
  288.77        3348.25           6840          33.00       119.44
  288.80        3348.50           6844          31.00       110.72
  288.83        3348.75           6848          29.00       102.01
  288.85        3349.00           6851          32.00       115.08
  288.88        3349.25           6855          31.00       110.72
  288.91        3349.50           6859          29.00       102.01
  288.93        3349.75           6863          35.00       128.16
  288.96        3350.00           6867          35.00       128.16
  288.99        3350.25           6870          28.00        97.65
  289.02        3350.50           6874          27.00        93.29
  289.04        3350.75           6878          30.00       106.36
  289.07        3351.00           6882          32.00       115.08
HL scan finished at 04:49:42
end
