************************************************************
  HL Scan of (1) Internal mercury lamp
************************************************************
Integration time is 0.2294 seconds per sample
dh060219Tamanrasset 22.79-5.529 4.974364pr865
************************************************************
Dead Time -------------------------  2.8E-08 
Number of Cycles Used -------------  4 
Starting Wavelength (Angstroms) ---  3331 
Final Wavelength (Angstoms) -------  3351 
Wavelength Increment (Angstroms) --  .25 
Filter Wheel #1 Position ---------- (1) Ground quartz diffuser (ND=2.32)
Filter Wheel #2 Position ---------- (0) Clear Aperture



************************************************************
HL scan start time = 04:44:13
Dark Count =  3.6 


Time (GMT)  Wavelength (Ang)  Step Number  Raw Counts  Counts/Second

  284.74        3331.00           6581          26.00        97.65
  284.95        3331.25           6585          28.00       106.36
  284.98        3331.50           6589          30.00       115.08
  285.01        3331.75           6593          25.00        93.29
  285.04        3332.00           6596          29.00       110.72
  285.06        3332.25           6600          25.00        93.29
  285.09        3332.50           6604          30.00       115.08
  285.12        3332.75           6608          28.00       106.36
  285.15        3333.00           6611          26.00        97.65
  285.17        3333.25           6615          28.00       106.36
  285.20        3333.50           6619          28.00       106.36
  285.23        3333.75           6623          26.00        97.65
  285.25        3334.00           6626          32.00       123.80
  285.28        3334.25           6630          27.00       102.01
  285.31        3334.50           6634          26.00        97.65
  285.34        3334.75           6638          32.00       123.80
  285.36        3335.00           6641          28.00       106.36
  285.39        3335.25           6645          34.00       132.52
  285.42        3335.50           6649          29.00       110.72
  285.44        3335.75           6653          32.00       123.80
  285.47        3336.00           6656          52.00       210.99
  285.50        3336.25           6660         170.00       725.39
  285.53        3336.50           6664         356.00      1536.25
  285.55        3336.75           6668         757.00      3284.52
  285.58        3337.00           6671        1313.00      5708.85
  285.61        3337.25           6675        2431.00     10584.65
  285.64        3337.50           6679        3693.00     16090.07
  285.66        3337.75           6683        5023.00     21893.98
  285.69        3338.00           6686        6050.00     26376.93
  285.72        3338.25           6690        7616.00     33214.83
  285.74        3338.50           6694        8735.00     38102.53
  285.77        3338.75           6698       10176.00     44398.67
  285.80        3339.00           6701       11194.00     48847.94
  285.83        3339.25           6705       12659.00     55252.81
  285.85        3339.50           6709       13888.00     60627.68
  285.88        3339.75           6713       15226.00     66481.10
  285.91        3340.00           6716       16366.00     71469.83
  285.94        3340.25           6720       17762.00     77580.73
  285.96        3340.50           6724       19007.00     83032.40
  285.99        3340.75           6728       20369.00     88998.31
  286.02        3341.00           6731       21350.00     93296.59
  286.05        3341.25           6735       22353.00     97692.31
  286.07        3341.50           6739       23195.00    101383.30
  286.10        3341.75           6743       23557.00    102970.40
  286.13        3342.00           6746       23841.00    104215.60
  286.15        3342.25           6750       23541.00    102900.20
  286.18        3342.50           6754       22690.00     99169.49
  286.21        3342.75           6758       21487.00     93896.94
  286.24        3343.00           6761       20497.00     89559.09
  286.26        3343.25           6765       19144.00     83632.41
  286.29        3343.50           6769       17813.00     77804.02
  286.32        3343.75           6773       16395.00     71596.75
  286.35        3344.00           6776       15605.00     68139.48
  286.37        3344.25           6780       14246.00     62193.66
  286.40        3344.50           6784       12729.00     55558.90
  286.43        3344.75           6788       11293.00     49280.69
  286.46        3345.00           6791       10264.00     44783.24
  286.48        3345.25           6795        8674.00     37836.06
  286.51        3345.50           6799        7262.00     31668.87
  286.54        3345.75           6803        5557.00     24224.80
  286.56        3346.00           6806        4415.00     19240.53
  286.59        3346.25           6810        3259.00     14196.57
  286.62        3346.50           6814        2382.00     10370.93
  286.65        3346.75           6818        1588.00      6908.05
  286.67        3347.00           6821         893.00      3877.49
  286.70        3347.25           6825         282.00      1213.64
  286.73        3347.50           6829          63.00       258.94
  286.75        3347.75           6833          40.00       158.68
  286.78        3348.00           6836          29.00       110.72
  286.81        3348.25           6840          29.00       110.72
  286.84        3348.50           6844          32.00       123.80
  286.86        3348.75           6848          35.00       136.88
  286.89        3349.00           6851          32.00       123.80
  286.92        3349.25           6855          31.00       119.44
  286.94        3349.50           6859          28.00       106.36
  286.97        3349.75           6863          30.00       115.08
  287.00        3350.00           6867          32.00       123.80
  287.03        3350.25           6870          33.00       128.16
  287.05        3350.50           6874          31.00       119.44
  287.08        3350.75           6878          34.00       132.52
  287.11        3351.00           6882          31.00       119.44
HL scan finished at 04:47:44
end
