************************************************************
  HL Scan of (1) Internal mercury lamp
************************************************************
Integration time is 0.2294 seconds per sample
dh080219Tamanrasset 22.79-5.529 4.974364pr865
************************************************************
Dead Time -------------------------  2.8E-08 
Number of Cycles Used -------------  4 
Starting Wavelength (Angstroms) ---  3331 
Final Wavelength (Angstoms) -------  3351 
Wavelength Increment (Angstroms) --  .25 
Filter Wheel #1 Position ---------- (1) Ground quartz diffuser (ND=2.32)
Filter Wheel #2 Position ---------- (0) Clear Aperture



************************************************************
HL scan start time = 04:42:46
Dark Count =  4.6 


Time (GMT)  Wavelength (Ang)  Step Number  Raw Counts  Counts/Second

  283.27        3331.00           6581          25.00        88.93
  283.49        3331.25           6585          26.00        93.29
  283.52        3331.50           6589          21.00        71.49
  283.54        3331.75           6593          30.00       110.72
  283.57        3332.00           6596          28.00       102.01
  283.60        3332.25           6600          26.00        93.29
  283.62        3332.50           6604          25.00        88.93
  283.65        3332.75           6608          25.00        88.93
  283.68        3333.00           6611          32.00       119.44
  283.71        3333.25           6615          25.00        88.93
  283.73        3333.50           6619          28.00       102.01
  283.76        3333.75           6623          24.00        84.57
  283.79        3334.00           6626          23.00        80.21
  283.82        3334.25           6630          32.00       119.44
  283.84        3334.50           6634          33.00       123.80
  283.87        3334.75           6638          30.00       110.72
  283.90        3335.00           6641          26.00        93.29
  283.92        3335.25           6645          24.00        84.57
  283.95        3335.50           6649          32.00       119.44
  283.98        3335.75           6653          37.00       141.24
  284.01        3336.00           6656          45.00       176.11
  284.03        3336.25           6660         163.00       690.51
  284.06        3336.50           6664         549.00      2373.31
  284.09        3336.75           6668         759.00      3288.88
  284.11        3337.00           6671        1326.00      5761.17
  284.14        3337.25           6675        2494.00     10855.09
  284.17        3337.50           6679        3706.00     16142.43
  284.20        3337.75           6683        5060.00     22051.10
  284.22        3338.00           6686        6006.00     26180.48
  284.25        3338.25           6690        7385.00     32201.65
  284.28        3338.50           6694        8718.00     38023.90
  284.30        3338.75           6698        9990.00     43581.49
  284.33        3339.00           6701       10996.00     47978.10
  284.36        3339.25           6705       12432.00     54255.86
  284.39        3339.50           6709       13716.00     59870.99
  284.41        3339.75           6713       15103.00     65938.54
  284.44        3340.00           6716       16065.00     70148.12
  284.47        3340.25           6720       17589.00     76818.94
  284.50        3340.50           6724       18901.00     82563.80
  284.52        3340.75           6728       20189.00     88205.37
  284.55        3341.00           6731       21036.00     91916.30
  284.58        3341.25           6735       22168.00     96877.07
  284.61        3341.50           6739       22822.00     99743.75
  284.63        3341.75           6743       23344.00    102032.20
  284.66        3342.00           6746       23582.00    103075.60
  284.69        3342.25           6750       23269.00    101703.30
  284.71        3342.50           6754       22479.00     98240.22
  284.74        3342.75           6758       21217.00     92709.41
  284.77        3343.00           6761       20315.00     88757.36
  284.80        3343.25           6765       19163.00     83711.24
  284.82        3343.50           6769       17893.00     78149.90
  284.85        3343.75           6773       16355.00     71417.30
  284.88        3344.00           6776       15320.00     66888.01
  284.91        3344.25           6780       14064.00     61393.15
  284.93        3344.50           6784       12726.00     55541.41
  284.96        3344.75           6788       11334.00     49455.54
  284.99        3345.00           6791       10255.00     44739.53
  285.02        3345.25           6795        8941.00     38998.10
  285.04        3345.50           6799        7154.00     31192.88
  285.07        3345.75           6803        5537.00     24133.13
  285.10        3346.00           6806        4426.00     19284.17
  285.12        3346.25           6810        3207.00     13965.36
  285.15        3346.50           6814        2316.00     10078.69
  285.18        3346.75           6818        1514.00      6580.99
  285.21        3347.00           6821         967.00      4195.79
  285.23        3347.25           6825         336.00      1444.70
  285.26        3347.50           6829          78.00       319.97
  285.29        3347.75           6833          37.00       141.24
  285.31        3348.00           6836          30.00       110.72
  285.34        3348.25           6840          33.00       123.80
  285.37        3348.50           6844          33.00       123.80
  285.40        3348.75           6848          27.00        97.65
  285.42        3349.00           6851          29.00       106.36
  285.45        3349.25           6855          26.00        93.29
  285.48        3349.50           6859          31.00       115.08
  285.50        3349.75           6863          30.00       110.72
  285.53        3350.00           6867          28.00       102.01
  285.56        3350.25           6870          32.00       119.44
  285.59        3350.50           6874          33.00       123.80
  285.61        3350.75           6878          27.00        97.65
  285.64        3351.00           6882          31.00       115.08
HL scan finished at 04:46:16
end
