************************************************************
  HL Scan of (1) Internal mercury lamp
************************************************************
Integration time is 0.2294 seconds per sample
dh030219Tamanrasset 22.79-5.529 4.974364pr865
************************************************************
Dead Time -------------------------  2.8E-08 
Number of Cycles Used -------------  4 
Starting Wavelength (Angstroms) ---  3331 
Final Wavelength (Angstoms) -------  3351 
Wavelength Increment (Angstroms) --  .25 
Filter Wheel #1 Position ---------- (1) Ground quartz diffuser (ND=2.32)
Filter Wheel #2 Position ---------- (0) Clear Aperture



************************************************************
HL scan start time = 04:44:59
Dark Count =  4.5 


Time (GMT)  Wavelength (Ang)  Step Number  Raw Counts  Counts/Second

  285.49        3331.00           6581          28.00       102.44
  285.71        3331.25           6585          25.00        89.36
  285.74        3331.50           6589          29.00       106.80
  285.77        3331.75           6593          28.00       102.44
  285.79        3332.00           6596          28.00       102.44
  285.82        3332.25           6600          33.00       124.24
  285.85        3332.50           6604          28.00       102.44
  285.88        3332.75           6608          28.00       102.44
  285.90        3333.00           6611          28.00       102.44
  285.93        3333.25           6615          27.00        98.08
  285.96        3333.50           6619          28.00       102.44
  285.98        3333.75           6623          27.00        98.08
  286.01        3334.00           6626          26.00        93.72
  286.04        3334.25           6630          27.00        98.08
  286.07        3334.50           6634          30.00       111.16
  286.09        3334.75           6638          27.00        98.08
  286.12        3335.00           6641          28.00       102.44
  286.15        3335.25           6645          28.00       102.44
  286.17        3335.50           6649          34.00       128.60
  286.20        3335.75           6653          36.00       137.32
  286.23        3336.00           6656          46.00       180.91
  286.26        3336.25           6660         153.00       647.35
  286.28        3336.50           6664         447.00      1929.05
  286.31        3336.75           6668         748.00      3241.36
  286.34        3337.00           6671        1252.00      5438.93
  286.36        3337.25           6675        2382.00     10367.00
  286.39        3337.50           6679        3615.00     15745.83
  286.42        3337.75           6683        4884.00     21283.39
  286.45        3338.00           6686        5885.00     25652.68
  286.47        3338.25           6690        7352.00     32057.97
  286.50        3338.50           6694        8741.00     38124.81
  286.53        3338.75           6698        9993.00     43595.03
  286.55        3339.00           6701       11064.00     48275.76
  286.58        3339.25           6705       12456.00     54361.24
  286.61        3339.50           6709       13916.00     60746.22
  286.64        3339.75           6713       15269.00     66665.30
  286.66        3340.00           6716       16289.00     71128.88
  286.69        3340.25           6720       17656.00     77112.71
  286.72        3340.50           6724       18971.00     82870.79
  286.75        3340.75           6728       20335.00     88845.41
  286.77        3341.00           6731       21427.00     93630.06
  286.80        3341.25           6735       22475.00     98223.12
  286.83        3341.50           6739       23304.00    101857.20
  286.86        3341.75           6743       23769.00    103896.00
  286.88        3342.00           6746       23889.00    104422.10
  286.91        3342.25           6750       23780.00    103944.20
  286.94        3342.50           6754       22948.00    100296.50
  286.97        3342.75           6758       21603.00     94401.33
  286.99        3343.00           6761       20796.00     90865.16
  287.02        3343.25           6765       19252.00     84101.48
  287.05        3343.50           6769       18094.00     79030.40
  287.07        3343.75           6773       16758.00     73181.63
  287.10        3344.00           6776       15602.00     68122.41
  287.13        3344.25           6780       14278.00     62329.70
  287.16        3344.50           6784       12881.00     56219.64
  287.18        3344.75           6788       11490.00     50137.91
  287.21        3345.00           6791       10483.00     45736.39
  287.24        3345.25           6795        9135.00     39846.09
  287.27        3345.50           6799        7336.00     31988.10
  287.29        3345.75           6803        5516.00     24041.90
  287.32        3346.00           6806        4375.00     19062.05
  287.35        3346.25           6810        3373.00     14690.00
  287.37        3346.50           6814        2456.00     10689.77
  287.40        3346.75           6818        1589.00      6908.49
  287.43        3347.00           6821        1016.00      4409.87
  287.46        3347.25           6825         363.00      1562.84
  287.48        3347.50           6829          88.00       364.00
  287.51        3347.75           6833          36.00       137.32
  287.54        3348.00           6836          34.00       128.60
  287.57        3348.25           6840          32.00       119.88
  287.59        3348.50           6844          31.00       115.52
  287.62        3348.75           6848          28.00       102.44
  287.65        3349.00           6851          39.00       150.39
  287.67        3349.25           6855          27.00        98.08
  287.70        3349.50           6859          30.00       111.16
  287.73        3349.75           6863          31.00       115.52
  287.76        3350.00           6867          30.00       111.16
  287.78        3350.25           6870          32.00       119.88
  287.81        3350.50           6874          31.00       115.52
  287.84        3350.75           6878          31.00       115.52
  287.86        3351.00           6882          31.00       115.52
HL scan finished at 04:48:29
end
