************************************************************
  HL Scan of (1) Internal mercury lamp
************************************************************
Integration time is 0.2294 seconds per sample
dh040219Tamanrasset 22.79-5.529 4.974364pr865
************************************************************
Dead Time -------------------------  2.8E-08 
Number of Cycles Used -------------  4 
Starting Wavelength (Angstroms) ---  3331 
Final Wavelength (Angstoms) -------  3351 
Wavelength Increment (Angstroms) --  .25 
Filter Wheel #1 Position ---------- (1) Ground quartz diffuser (ND=2.32)
Filter Wheel #2 Position ---------- (0) Clear Aperture



************************************************************
HL scan start time = 04:45:30
Dark Count =  4.7 


Time (GMT)  Wavelength (Ang)  Step Number  Raw Counts  Counts/Second

  286.01        3331.00           6581          21.00        71.06
  286.23        3331.25           6585          28.00       101.57
  286.26        3331.50           6589          24.00        84.13
  286.28        3331.75           6593          23.00        79.77
  286.31        3332.00           6596          22.00        75.41
  286.34        3332.25           6600          23.00        79.77
  286.37        3332.50           6604          24.00        84.13
  286.39        3332.75           6608          24.00        84.13
  286.42        3333.00           6611          32.00       119.01
  286.45        3333.25           6615          31.00       114.65
  286.47        3333.50           6619          28.00       101.57
  286.50        3333.75           6623          30.00       110.29
  286.53        3334.00           6626          24.00        84.13
  286.56        3334.25           6630          29.00       105.93
  286.58        3334.50           6634          29.00       105.93
  286.61        3334.75           6638          30.00       110.29
  286.64        3335.00           6641          28.00       101.57
  286.66        3335.25           6645          31.00       114.65
  286.69        3335.50           6649          33.00       123.37
  286.72        3335.75           6653          30.00       110.29
  286.75        3336.00           6656          47.00       184.40
  286.77        3336.25           6660         208.00       886.25
  286.80        3336.50           6664         663.00      2869.89
  286.83        3336.75           6668        1011.00      4387.20
  286.85        3337.00           6671        1530.00      6650.32
  286.88        3337.25           6675        2690.00     11709.59
  286.91        3337.50           6679        3924.00     17093.19
  286.94        3337.75           6683        5207.00     22692.27
  286.96        3338.00           6686        6269.00     27328.23
  286.99        3338.25           6690        7674.00     33463.34
  287.02        3338.50           6694        9100.00     39692.31
  287.05        3338.75           6698       10428.00     45495.15
  287.07        3339.00           6701       11491.00     50141.41
  287.10        3339.25           6705       12851.00     56087.58
  287.13        3339.50           6709       14197.00     61974.50
  287.15        3339.75           6713       15701.00     68554.75
  287.18        3340.00           6716       16584.00     72419.15
  287.21        3340.25           6720       18002.00     78626.71
  287.24        3340.50           6724       19351.00     84534.21
  287.26        3340.75           6728       20434.00     89278.27
  287.29        3341.00           6731       21422.00     93607.28
  287.32        3341.25           6735       22560.00     98594.84
  287.35        3341.50           6739       23429.00    102404.40
  287.37        3341.75           6743       23836.00    104188.90
  287.40        3342.00           6746       23795.00    104009.10
  287.43        3342.25           6750       23596.00    103136.60
  287.46        3342.50           6754       22773.00     99528.51
  287.48        3342.75           6758       21333.00     93217.28
  287.51        3343.00           6761       20513.00     89624.37
  287.54        3343.25           6765       19142.00     83618.83
  287.56        3343.50           6769       17965.00     78464.71
  287.59        3343.75           6773       16506.00     72077.76
  287.62        3344.00           6776       15406.00     67263.88
  287.65        3344.25           6780       14141.00     61729.54
  287.67        3344.50           6784       12654.00     55226.14
  287.70        3344.75           6788       11320.00     49393.90
  287.73        3345.00           6791       10283.00     44861.46
  287.76        3345.25           6795        8881.00     38735.54
  287.78        3345.50           6799        7161.00     31223.01
  287.81        3345.75           6803        5406.00     23560.88
  287.84        3346.00           6806        4250.00     18515.70
  287.86        3346.25           6810        3077.00     13397.79
  287.89        3346.50           6814        2140.00      9310.62
  287.92        3346.75           6818        1408.00      6118.31
  287.95        3347.00           6821         877.00      3802.93
  287.97        3347.25           6825         276.00      1182.69
  288.00        3347.50           6829          70.00       284.66
  288.03        3347.75           6833          32.00       119.01
  288.06        3348.00           6836          28.00       101.57
  288.08        3348.25           6840          33.00       123.37
  288.11        3348.50           6844          30.00       110.29
  288.14        3348.75           6848          36.00       136.44
  288.16        3349.00           6851          31.00       114.65
  288.19        3349.25           6855          34.00       127.72
  288.22        3349.50           6859          31.00       114.65
  288.25        3349.75           6863          30.00       110.29
  288.27        3350.00           6867          35.00       132.08
  288.30        3350.25           6870          31.00       114.65
  288.33        3350.50           6874          29.00       105.93
  288.35        3350.75           6878          28.00       101.57
  288.38        3351.00           6882          28.00       101.57
HL scan finished at 04:49:00
end
