************************************************************
  HL Scan of (1) Internal mercury lamp
************************************************************
Integration time is 0.2294 seconds per sample
dh310119Tamanrasset 22.79-5.529 4.974364pr865
************************************************************
Dead Time -------------------------  2.8E-08 
Number of Cycles Used -------------  4 
Starting Wavelength (Angstroms) ---  3331 
Final Wavelength (Angstoms) -------  3351 
Wavelength Increment (Angstroms) --  .25 
Filter Wheel #1 Position ---------- (1) Ground quartz diffuser (ND=2.32)
Filter Wheel #2 Position ---------- (0) Clear Aperture



************************************************************
HL scan start time = 04:46:41
Dark Count =  4.1 


Time (GMT)  Wavelength (Ang)  Step Number  Raw Counts  Counts/Second

  287.19        3331.00           6581          28.00       104.19
  287.40        3331.25           6585          24.00        86.75
  287.43        3331.50           6589          23.00        82.39
  287.46        3331.75           6593          30.00       112.90
  287.49        3332.00           6596          26.00        95.47
  287.51        3332.25           6600          27.00        99.83
  287.54        3332.50           6604          30.00       112.90
  287.57        3332.75           6608          25.00        91.11
  287.60        3333.00           6611          32.00       121.62
  287.62        3333.25           6615          35.00       134.70
  287.65        3333.50           6619          23.00        82.39
  287.68        3333.75           6623          30.00       112.90
  287.70        3334.00           6626          30.00       112.90
  287.73        3334.25           6630          30.00       112.90
  287.76        3334.50           6634          30.00       112.90
  287.79        3334.75           6638          27.00        99.83
  287.81        3335.00           6641          27.00        99.83
  287.84        3335.25           6645          31.00       117.26
  287.87        3335.50           6649          33.00       125.98
  287.89        3335.75           6653          37.00       143.42
  287.92        3336.00           6656          44.00       173.93
  287.95        3336.25           6660         128.00       540.11
  287.98        3336.50           6664         345.00      1486.11
  288.00        3336.75           6668         669.00      2898.67
  288.03        3337.00           6671        1187.00      5157.24
  288.06        3337.25           6675        2210.00      9618.55
  288.08        3337.50           6679        3463.00     15084.40
  288.11        3337.75           6683        4753.00     20713.41
  288.14        3338.00           6686        5757.00     25095.66
  288.17        3338.25           6690        7158.00     31212.53
  288.19        3338.50           6694        8523.00     37174.25
  288.22        3338.75           6698        9880.00     43102.99
  288.25        3339.00           6701       10900.00     47560.69
  288.28        3339.25           6705       12237.00     53405.44
  288.30        3339.50           6709       13712.00     59855.69
  288.33        3339.75           6713       15080.00     65840.10
  288.36        3340.00           6716       16101.00     70307.85
  288.38        3340.25           6720       17501.00     76435.87
  288.41        3340.50           6724       18787.00     82066.75
  288.44        3340.75           6728       20066.00     87668.74
  288.47        3341.00           6731       21018.00     91839.61
  288.49        3341.25           6735       22131.00     96717.10
  288.52        3341.50           6739       23020.00    100613.90
  288.55        3341.75           6743       23683.00    103520.60
  288.58        3342.00           6746       23721.00    103687.30
  288.60        3342.25           6750       23458.00    102534.10
  288.63        3342.50           6754       22756.00     99456.62
  288.66        3342.75           6758       21548.00     94162.06
  288.69        3343.00           6761       20515.00     89635.77
  288.71        3343.25           6765       19278.00     84217.10
  288.74        3343.50           6769       18058.00     78874.53
  288.77        3343.75           6773       16683.00     72855.10
  288.79        3344.00           6776       15657.00     68364.84
  288.82        3344.25           6780       14323.00     62528.31
  288.85        3344.50           6784       12895.00     56282.62
  288.88        3344.75           6788       11642.00     50804.13
  288.90        3345.00           6791       10466.00     45663.84
  288.93        3345.25           6795        8890.00     38777.48
  288.96        3345.50           6799        7173.00     31278.04
  288.99        3345.75           6803        5575.00     24301.19
  289.01        3346.00           6806        4414.00     19233.98
  289.04        3346.25           6810        3332.00     14512.87
  289.07        3346.50           6814        2464.00     10726.41
  289.09        3346.75           6818        1728.00      7516.40
  289.12        3347.00           6821        1017.00      4415.98
  289.15        3347.25           6825         374.00      1612.54
  289.18        3347.50           6829          94.00       391.90
  289.20        3347.75           6833          34.00       130.34
  289.23        3348.00           6836          33.00       125.98
  289.26        3348.25           6840          30.00       112.90
  289.29        3348.50           6844          35.00       134.70
  289.31        3348.75           6848          30.00       112.90
  289.34        3349.00           6851          35.00       134.70
  289.37        3349.25           6855          26.00        95.47
  289.40        3349.50           6859          33.00       125.98
  289.42        3349.75           6863          33.00       125.98
  289.45        3350.00           6867          33.00       125.98
  289.48        3350.25           6870          34.00       130.34
  289.50        3350.50           6874          28.00       104.19
  289.53        3350.75           6878          30.00       112.90
  289.56        3351.00           6882          32.00       121.62
HL scan finished at 04:50:11
end
