************************************************************
  HL Scan of (1) Internal mercury lamp
************************************************************
Integration time is 0.2294 seconds per sample
dh010219Tamanrasset 22.79-5.529 4.974364pr865
************************************************************
Dead Time -------------------------  2.8E-08 
Number of Cycles Used -------------  4 
Starting Wavelength (Angstroms) ---  3331 
Final Wavelength (Angstoms) -------  3351 
Wavelength Increment (Angstroms) --  .25 
Filter Wheel #1 Position ---------- (1) Ground quartz diffuser (ND=2.32)
Filter Wheel #2 Position ---------- (0) Clear Aperture



************************************************************
HL scan start time = 04:46:09
Dark Count =  4.1 


Time (GMT)  Wavelength (Ang)  Step Number  Raw Counts  Counts/Second

  286.66        3331.00           6581          24.00        86.75
  286.88        3331.25           6585          30.00       112.90
  286.91        3331.50           6589          30.00       112.90
  286.94        3331.75           6593          30.00       112.90
  286.97        3332.00           6596          28.00       104.19
  286.99        3332.25           6600          27.00        99.83
  287.02        3332.50           6604          30.00       112.90
  287.05        3332.75           6608          26.00        95.47
  287.07        3333.00           6611          28.00       104.19
  287.10        3333.25           6615          27.00        99.83
  287.13        3333.50           6619          27.00        99.83
  287.15        3333.75           6623          30.00       112.90
  287.18        3334.00           6626          29.00       108.54
  287.21        3334.25           6630          35.00       134.70
  287.24        3334.50           6634          33.00       125.98
  287.26        3334.75           6638          25.00        91.11
  287.29        3335.00           6641          30.00       112.90
  287.32        3335.25           6645          31.00       117.26
  287.34        3335.50           6649          28.00       104.19
  287.37        3335.75           6653          31.00       117.26
  287.40        3336.00           6656          38.00       147.78
  287.43        3336.25           6660         120.00       505.24
  287.45        3336.50           6664         429.00      1852.32
  287.48        3336.75           6668         679.00      2942.27
  287.51        3337.00           6671        1198.00      5205.21
  287.54        3337.25           6675        2288.00      9958.75
  287.56        3337.50           6679        3544.00     15437.80
  287.59        3337.75           6683        4813.00     20975.26
  287.62        3338.00           6686        5882.00     25641.33
  287.64        3338.25           6690        7251.00     31618.65
  287.67        3338.50           6694        8686.00     37886.29
  287.70        3338.75           6698        9892.00     43155.44
  287.73        3339.00           6701       11029.00     48124.53
  287.75        3339.25           6705       12398.00     54109.39
  287.78        3339.50           6709       13641.00     59545.15
  287.81        3339.75           6713       15235.00     66518.28
  287.84        3340.00           6716       16202.00     70749.87
  287.86        3340.25           6720       17452.00     76221.35
  287.89        3340.50           6724       19010.00     83043.35
  287.92        3340.75           6728       20229.00     88382.80
  287.94        3341.00           6731       21228.00     92759.80
  287.97        3341.25           6735       22401.00     97900.53
  288.00        3341.50           6739       23376.00    102174.60
  288.03        3341.75           6743       23787.00    103976.70
  288.05        3342.00           6746       23706.00    103621.50
  288.08        3342.25           6750       23742.00    103779.30
  288.11        3342.50           6754       22733.00     99355.80
  288.14        3342.75           6758       21673.00     94709.86
  288.16        3343.00           6761       20828.00     91007.12
  288.19        3343.25           6765       19526.00     85303.33
  288.22        3343.50           6769       18027.00     78738.80
  288.24        3343.75           6773       16733.00     73073.95
  288.27        3344.00           6776       15727.00     68671.15
  288.30        3344.25           6780       14358.00     62681.42
  288.33        3344.50           6784       12929.00     56431.30
  288.35        3344.75           6788       11685.00     50992.12
  288.38        3345.00           6791       10646.00     46450.53
  288.41        3345.25           6795        9195.00     40109.97
  288.44        3345.50           6799        7460.00     32531.36
  288.46        3345.75           6803        5750.00     25065.10
  288.49        3346.00           6806        4673.00     20364.27
  288.52        3346.25           6810        3533.00     15389.81
  288.55        3346.50           6814        2523.00     10983.76
  288.57        3346.75           6818        1609.00      6997.45
  288.60        3347.00           6821        1076.00      4673.24
  288.63        3347.25           6825         395.00      1704.09
  288.65        3347.50           6829          81.00       335.23
  288.68        3347.75           6833          37.00       143.42
  288.71        3348.00           6836          34.00       130.34
  288.74        3348.25           6840          32.00       121.62
  288.76        3348.50           6844          31.00       117.26
  288.79        3348.75           6848          24.00        86.75
  288.82        3349.00           6851          32.00       121.62
  288.84        3349.25           6855          30.00       112.90
  288.87        3349.50           6859          31.00       117.26
  288.90        3349.75           6863          30.00       112.90
  288.93        3350.00           6867          28.00       104.19
  288.95        3350.25           6870          28.00       104.19
  288.98        3350.50           6874          31.00       117.26
  289.01        3350.75           6878          26.00        95.47
  289.03        3351.00           6882          27.00        99.83
HL scan finished at 04:49:39
end
