************************************************************
  HL Scan of (1) Internal mercury lamp
************************************************************
Integration time is 0.2294 seconds per sample
dh070219Tamanrasset 22.79-5.529 4.974364pr865
************************************************************
Dead Time -------------------------  2.8E-08 
Number of Cycles Used -------------  4 
Starting Wavelength (Angstroms) ---  3331 
Final Wavelength (Angstoms) -------  3351 
Wavelength Increment (Angstroms) --  .25 
Filter Wheel #1 Position ---------- (1) Ground quartz diffuser (ND=2.32)
Filter Wheel #2 Position ---------- (0) Clear Aperture



************************************************************
HL scan start time = 04:44:15
Dark Count =  2.1 


Time (GMT)  Wavelength (Ang)  Step Number  Raw Counts  Counts/Second

  284.75        3331.00           6581          22.00        86.75
  284.97        3331.25           6585          26.00       104.19
  285.00        3331.50           6589          28.00       112.90
  285.03        3331.75           6593          26.00       104.19
  285.05        3332.00           6596          31.00       125.98
  285.08        3332.25           6600          22.00        86.75
  285.11        3332.50           6604          32.00       130.34
  285.14        3332.75           6608          26.00       104.19
  285.16        3333.00           6611          29.00       117.26
  285.19        3333.25           6615          26.00       104.19
  285.22        3333.50           6619          23.00        91.11
  285.24        3333.75           6623          27.00       108.54
  285.27        3334.00           6626          23.00        91.11
  285.30        3334.25           6630          30.00       121.62
  285.33        3334.50           6634          24.00        95.47
  285.35        3334.75           6638          27.00       108.54
  285.38        3335.00           6641          27.00       108.54
  285.41        3335.25           6645          25.00        99.83
  285.43        3335.50           6649          34.00       139.06
  285.46        3335.75           6653          31.00       125.98
  285.49        3336.00           6656          39.00       160.86
  285.52        3336.25           6660         139.00       596.78
  285.54        3336.50           6664         475.00      2061.58
  285.57        3336.75           6668         725.00      3151.54
  285.60        3337.00           6671        1265.00      5506.08
  285.62        3337.25           6675        2365.00     10303.32
  285.65        3337.50           6679        3525.00     15363.63
  285.68        3337.75           6683        4808.00     20962.17
  285.71        3338.00           6686        5886.00     25667.52
  285.73        3338.25           6690        7315.00     31906.87
  285.76        3338.50           6694        8660.00     37781.45
  285.79        3338.75           6698       10079.00     43981.33
  285.82        3339.00           6701       11096.00     48426.13
  285.84        3339.25           6705       12309.00     53728.98
  285.87        3339.50           6709       13842.00     60433.05
  285.90        3339.75           6713       15120.00     66023.87
  285.93        3340.00           6716       16159.00     70570.43
  285.95        3340.25           6720       17508.00     76475.28
  285.98        3340.50           6724       18887.00     82513.44
  286.01        3340.75           6728       20247.00     88470.42
  286.04        3341.00           6731       21269.00     92948.22
  286.06        3341.25           6735       22272.00     97343.86
  286.09        3341.50           6739       23136.00    101131.20
  286.12        3341.75           6743       23631.00    103301.40
  286.14        3342.00           6746       23938.00    104647.50
  286.17        3342.25           6750       23591.00    103126.00
  286.20        3342.50           6754       22889.00    100048.40
  286.23        3342.75           6758       21548.00     94170.82
  286.25        3343.00           6761       20678.00     90358.66
  286.28        3343.25           6765       19524.00     85303.33
  286.31        3343.50           6769       18109.00     79106.59
  286.34        3343.75           6773       16759.00     73196.51
  286.36        3344.00           6776       15738.00     68728.03
  286.39        3344.25           6780       14295.00     62414.57
  286.42        3344.50           6784       12861.00     56142.68
  286.44        3344.75           6788       11437.00     49916.72
  286.47        3345.00           6791       10506.00     45847.40
  286.50        3345.25           6795        9119.00     39786.67
  286.53        3345.50           6799        7395.00     32256.24
  286.55        3345.75           6803        5732.00     24995.26
  286.58        3346.00           6806        4607.00     20084.96
  286.61        3346.25           6810        3479.00     15162.93
  286.64        3346.50           6814        2457.00     10704.60
  286.66        3346.75           6818        1654.00      7202.41
  286.69        3347.00           6821        1054.00      4586.03
  286.72        3347.25           6825         397.00      1721.53
  286.74        3347.50           6829          86.00       365.74
  286.77        3347.75           6833          39.00       160.86
  286.80        3348.00           6836          29.00       117.26
  286.83        3348.25           6840          32.00       130.34
  286.85        3348.50           6844          34.00       139.06
  286.88        3348.75           6848          29.00       117.26
  286.91        3349.00           6851          28.00       112.90
  286.93        3349.25           6855          32.00       130.34
  286.96        3349.50           6859          31.00       125.98
  286.99        3349.75           6863          31.00       125.98
  287.02        3350.00           6867          27.00       108.54
  287.04        3350.25           6870          26.00       104.19
  287.07        3350.50           6874          31.00       125.98
  287.10        3350.75           6878          33.00       134.70
  287.12        3351.00           6882          36.00       147.78
HL scan finished at 04:47:45
end
