************************************************************
  HL Scan of (1) Internal mercury lamp
************************************************************
Integration time is 0.2294 seconds per sample
dh300119Tamanrasset 22.79-5.529 4.974364pr865
************************************************************
Dead Time -------------------------  2.8E-08 
Number of Cycles Used -------------  4 
Starting Wavelength (Angstroms) ---  3331 
Final Wavelength (Angstoms) -------  3351 
Wavelength Increment (Angstroms) --  .25 
Filter Wheel #1 Position ---------- (1) Ground quartz diffuser (ND=2.32)
Filter Wheel #2 Position ---------- (0) Clear Aperture



************************************************************
HL scan start time = 04:46:39
Dark Count =  3.4 


Time (GMT)  Wavelength (Ang)  Step Number  Raw Counts  Counts/Second

  287.17        3331.00           6581          26.00        98.52
  287.38        3331.25           6585          28.00       107.24
  287.41        3331.50           6589          26.00        98.52
  287.44        3331.75           6593          26.00        98.52
  287.47        3332.00           6596          24.00        89.80
  287.49        3332.25           6600          26.00        98.52
  287.52        3332.50           6604          29.00       111.60
  287.55        3332.75           6608          27.00       102.88
  287.57        3333.00           6611          27.00       102.88
  287.60        3333.25           6615          31.00       120.31
  287.63        3333.50           6619          32.00       124.67
  287.66        3333.75           6623          30.00       115.96
  287.68        3334.00           6626          25.00        94.16
  287.71        3334.25           6630          29.00       111.60
  287.74        3334.50           6634          28.00       107.24
  287.77        3334.75           6638          27.00       102.88
  287.79        3335.00           6641          27.00       102.88
  287.82        3335.25           6645          33.00       129.03
  287.85        3335.50           6649          25.00        94.16
  287.87        3335.75           6653          37.00       146.47
  287.90        3336.00           6656          53.00       216.22
  287.93        3336.25           6660         164.00       700.10
  287.96        3336.50           6664         420.00      1816.13
  287.98        3336.75           6668         788.00      3420.55
  288.01        3337.00           6671        1364.00      5932.11
  288.04        3337.25           6675        2473.00     10768.72
  288.06        3337.50           6679        3783.00     16483.63
  288.09        3337.75           6683        5085.00     22165.45
  288.12        3338.00           6686        6075.00     26486.94
  288.15        3338.25           6690        7420.00     32359.74
  288.17        3338.50           6694        8862.00     38658.21
  288.20        3338.75           6698       10140.00     44242.22
  288.23        3339.00           6701       11328.00     49434.55
  288.26        3339.25           6705       12637.00     55157.48
  288.28        3339.50           6709       13967.00     60974.11
  288.31        3339.75           6713       15402.00     67252.06
  288.34        3340.00           6716       16512.00     72109.71
  288.36        3340.25           6720       17742.00     77494.04
  288.39        3340.50           6724       19157.00     83690.22
  288.42        3340.75           6728       20524.00     89678.26
  288.45        3341.00           6731       21412.00     93569.15
  288.47        3341.25           6735       22469.00     98201.64
  288.50        3341.50           6739       23430.00    102414.50
  288.53        3341.75           6743       23919.00    104558.50
  288.56        3342.00           6746       23938.00    104641.80
  288.58        3342.25           6750       23446.00    102484.60
  288.61        3342.50           6754       22855.00     99893.66
  288.64        3342.75           6758       21565.00     94239.62
  288.67        3343.00           6761       20488.00     89520.54
  288.69        3343.25           6765       19334.00     84465.44
  288.72        3343.50           6769       17879.00     78093.86
  288.75        3343.75           6773       16579.00     72402.96
  288.77        3344.00           6776       15503.00     67694.01
  288.80        3344.25           6780       14099.00     61551.51
  288.83        3344.50           6784       12615.00     55061.29
  288.86        3344.75           6788       11255.00     49115.45
  288.88        3345.00           6791       10367.00     45234.24
  288.91        3345.25           6795        8768.00     38247.56
  288.94        3345.50           6799        7115.00     31027.82
  288.97        3345.75           6803        5536.00     24134.01
  288.99        3346.00           6806        4317.00     18813.75
  289.02        3346.25           6810        3128.00     13625.95
  289.05        3346.50           6814        2129.00      9268.32
  289.08        3346.75           6818        1428.00      6211.19
  289.10        3347.00           6821         805.00      3494.68
  289.13        3347.25           6825         260.00      1118.61
  289.16        3347.50           6829          58.00       238.01
  289.18        3347.75           6833          38.00       150.83
  289.21        3348.00           6836          33.00       129.03
  289.24        3348.25           6840          29.00       111.60
  289.27        3348.50           6844          32.00       124.67
  289.29        3348.75           6848          30.00       115.96
  289.32        3349.00           6851          32.00       124.67
  289.35        3349.25           6855          24.00        89.80
  289.37        3349.50           6859          29.00       111.60
  289.40        3349.75           6863          29.00       111.60
  289.43        3350.00           6867          33.00       129.03
  289.46        3350.25           6870          31.00       120.31
  289.48        3350.50           6874          28.00       107.24
  289.51        3350.75           6878          36.00       142.11
  289.54        3351.00           6882          35.00       137.75
HL scan finished at 04:50:10
end
