************************************************************
  HL Scan of (1) Internal mercury lamp
************************************************************
Integration time is 0.2294 seconds per sample
dh130219Tamanrasset 22.79-5.529 4.974364pr865
************************************************************
Dead Time -------------------------  2.8E-08 
Number of Cycles Used -------------  4 
Starting Wavelength (Angstroms) ---  3331 
Final Wavelength (Angstoms) -------  3351 
Wavelength Increment (Angstroms) --  .25 
Filter Wheel #1 Position ---------- (1) Ground quartz diffuser (ND=2.32)
Filter Wheel #2 Position ---------- (0) Clear Aperture



************************************************************
HL scan start time = 04:40:51
Dark Count =  4.3 


Time (GMT)  Wavelength (Ang)  Step Number  Raw Counts  Counts/Second

  281.36        3331.00           6581          32.00       120.75
  281.58        3331.25           6585          27.00        98.95
  281.61        3331.50           6589          29.00       107.67
  281.63        3331.75           6593          27.00        98.95
  281.66        3332.00           6596          25.00        90.24
  281.69        3332.25           6600          22.00        77.16
  281.72        3332.50           6604          33.00       125.11
  281.74        3332.75           6608          26.00        94.59
  281.77        3333.00           6611          29.00       107.67
  281.80        3333.25           6615          27.00        98.95
  281.82        3333.50           6619          29.00       107.67
  281.85        3333.75           6623          28.00       103.31
  281.88        3334.00           6626          29.00       107.67
  281.91        3334.25           6630          30.00       112.03
  281.93        3334.50           6634          23.00        81.52
  281.96        3334.75           6638          32.00       120.75
  281.99        3335.00           6641          33.00       125.11
  282.01        3335.25           6645          29.00       107.67
  282.04        3335.50           6649          34.00       129.47
  282.07        3335.75           6653          36.00       138.19
  282.10        3336.00           6656          49.00       194.86
  282.12        3336.25           6660         141.00       595.91
  282.15        3336.50           6664         451.00      1947.36
  282.18        3336.75           6668         787.00      3412.27
  282.20        3337.00           6671        1237.00      5374.39
  282.23        3337.25           6675        2329.00     10136.70
  282.26        3337.50           6679        3588.00     15628.90
  282.29        3337.75           6683        4884.00     21284.26
  282.31        3338.00           6686        5921.00     25810.72
  282.34        3338.25           6690        7156.00     31202.93
  282.37        3338.50           6694        8647.00     37715.05
  282.39        3338.75           6698       10061.00     43893.06
  282.42        3339.00           6701       10979.00     47905.11
  282.45        3339.25           6705       12363.00     53955.48
  282.48        3339.50           6709       13692.00     59767.33
  282.50        3339.75           6713       15141.00     66106.12
  282.53        3340.00           6716       15971.00     69738.05
  282.56        3340.25           6720       17402.00     76001.58
  282.59        3340.50           6724       18712.00     81737.43
  282.61        3340.75           6728       20110.00     87860.60
  282.64        3341.00           6731       21103.00     92211.19
  282.67        3341.25           6735       22102.00     96589.12
  282.70        3341.50           6739       22980.00    100437.70
  282.72        3341.75           6743       23526.00    102831.40
  282.75        3342.00           6746       23636.00    103313.70
  282.78        3342.25           6750       23135.00    101117.20
  282.80        3342.50           6754       22526.00     98447.54
  282.83        3342.75           6758       21222.00     92732.62
  282.86        3343.00           6761       20342.00     88876.96
  282.89        3343.25           6765       19056.00     83243.93
  282.91        3343.50           6769       17833.00     77888.50
  282.94        3343.75           6773       16498.00     72044.50
  282.97        3344.00           6776       15522.00     67773.22
  283.00        3344.25           6780       14154.00     61788.15
  283.02        3344.50           6784       12759.00     55687.03
  283.05        3344.75           6788       11365.00     49592.36
  283.08        3345.00           6791       10418.00     45453.20
  283.10        3345.25           6795        9037.00     39418.81
  283.13        3345.50           6799        7305.00     31853.60
  283.16        3345.75           6803        5534.00     24121.35
  283.19        3346.00           6806        4411.00     19220.02
  283.21        3346.25           6810        3320.00     14459.65
  283.24        3346.50           6814        2383.00     10372.24
  283.27        3346.75           6818        1515.00      6586.66
  283.30        3347.00           6821         995.00      4319.18
  283.32        3347.25           6825         355.00      1528.84
  283.35        3347.50           6829          76.00       312.56
  283.38        3347.75           6833          38.00       146.91
  283.40        3348.00           6836          28.00       103.31
  283.43        3348.25           6840          31.00       116.39
  283.46        3348.50           6844          32.00       120.75
  283.49        3348.75           6848          28.00       103.31
  283.51        3349.00           6851          25.00        90.24
  283.54        3349.25           6855          29.00       107.67
  283.57        3349.50           6859          33.00       125.11
  283.59        3349.75           6863          32.00       120.75
  283.62        3350.00           6867          30.00       112.03
  283.65        3350.25           6870          24.00        85.88
  283.68        3350.50           6874          26.00        94.59
  283.70        3350.75           6878          32.00       120.75
  283.73        3351.00           6882          28.00       103.31
HL scan finished at 04:44:21
end
