************************************************************
  HL Scan of (1) Internal mercury lamp
************************************************************
Integration time is 0.2294 seconds per sample
dh090219Tamanrasset 22.79-5.529 4.974364pr865
************************************************************
Dead Time -------------------------  2.8E-08 
Number of Cycles Used -------------  4 
Starting Wavelength (Angstroms) ---  3331 
Final Wavelength (Angstoms) -------  3351 
Wavelength Increment (Angstroms) --  .25 
Filter Wheel #1 Position ---------- (1) Ground quartz diffuser (ND=2.32)
Filter Wheel #2 Position ---------- (0) Clear Aperture



************************************************************
HL scan start time = 04:43:16
Dark Count =  3.4 


Time (GMT)  Wavelength (Ang)  Step Number  Raw Counts  Counts/Second

  283.77        3331.00           6581          28.00       107.24
  283.99        3331.25           6585          29.00       111.60
  284.02        3331.50           6589          27.00       102.88
  284.05        3331.75           6593          29.00       111.60
  284.07        3332.00           6596          28.00       107.24
  284.10        3332.25           6600          21.00        76.72
  284.13        3332.50           6604          24.00        89.80
  284.16        3332.75           6608          28.00       107.24
  284.18        3333.00           6611          31.00       120.31
  284.21        3333.25           6615          27.00       102.88
  284.24        3333.50           6619          28.00       107.24
  284.26        3333.75           6623          24.00        89.80
  284.29        3334.00           6626          24.00        89.80
  284.32        3334.25           6630          24.00        89.80
  284.35        3334.50           6634          32.00       124.67
  284.37        3334.75           6638          27.00       102.88
  284.40        3335.00           6641          28.00       107.24
  284.43        3335.25           6645          33.00       129.03
  284.45        3335.50           6649          34.00       133.39
  284.48        3335.75           6653          36.00       142.11
  284.51        3336.00           6656          38.00       150.83
  284.54        3336.25           6660         146.00       621.63
  284.56        3336.50           6664         438.00      1894.61
  284.59        3336.75           6668         720.00      3124.07
  284.62        3337.00           6671        1146.00      4981.51
  284.64        3337.25           6675        2252.00      9804.78
  284.67        3337.50           6679        3510.00     15292.51
  284.70        3337.75           6683        4682.00     20406.60
  284.73        3338.00           6686        5807.00     25316.99
  284.75        3338.25           6690        7260.00     31661.01
  284.78        3338.50           6694        8549.00     37290.88
  284.81        3338.75           6698        9881.00     43110.42
  284.83        3339.00           6701       10768.00     46986.80
  284.86        3339.25           6705       12094.00     52783.27
  284.89        3339.50           6709       13625.00     59478.23
  284.92        3339.75           6713       14873.00     64937.49
  284.94        3340.00           6716       15911.00     69479.41
  284.97        3340.25           6720       17370.00     75865.43
  285.00        3340.50           6724       18675.00     81579.33
  285.03        3340.75           6728       20111.00     87868.93
  285.05        3341.00           6731       20929.00     91452.72
  285.08        3341.25           6735       21960.00     95970.71
  285.11        3341.50           6739       22925.00    100200.50
  285.14        3341.75           6743       23454.00    102519.70
  285.16        3342.00           6746       23525.00    102831.00
  285.19        3342.25           6750       23212.00    101458.70
  285.22        3342.50           6754       22589.00     98727.64
  285.24        3342.75           6758       21240.00     92815.44
  285.27        3343.00           6761       20325.00     88806.42
  285.30        3343.25           6765       19130.00     83571.96
  285.33        3343.50           6769       17698.00     77301.40
  285.35        3343.75           6773       16532.00     72197.24
  285.38        3344.00           6776       15415.00     67308.94
  285.41        3344.25           6780       14166.00     61844.58
  285.44        3344.50           6784       12821.00     55962.08
  285.46        3344.75           6788       11442.00     49932.89
  285.49        3345.00           6791       10336.00     45098.76
  285.52        3345.25           6795        8957.00     39073.24
  285.55        3345.50           6799        7301.00     31840.06
  285.57        3345.75           6803        5550.00     24195.12
  285.60        3346.00           6806        4494.00     19586.15
  285.63        3346.25           6810        3369.00     14677.35
  285.66        3346.50           6814        2353.00     10245.31
  285.68        3346.75           6818        1639.00      7131.33
  285.71        3347.00           6821         981.00      4262.06
  285.74        3347.25           6825         358.00      1545.84
  285.76        3347.50           6829          79.00       329.56
  285.79        3347.75           6833          31.00       120.31
  285.82        3348.00           6836          31.00       120.31
  285.85        3348.25           6840          34.00       133.39
  285.87        3348.50           6844          31.00       120.31
  285.90        3348.75           6848          29.00       111.60
  285.93        3349.00           6851          31.00       120.31
  285.95        3349.25           6855          27.00       102.88
  285.98        3349.50           6859          29.00       111.60
  286.01        3349.75           6863          31.00       120.31
  286.04        3350.00           6867          34.00       133.39
  286.06        3350.25           6870          31.00       120.31
  286.09        3350.50           6874          31.00       120.31
  286.12        3350.75           6878          32.00       124.67
  286.14        3351.00           6882          25.00        94.16
HL scan finished at 04:46:46
end
