************************************************************
  HL Scan of (1) Internal mercury lamp
************************************************************
Integration time is 0.2294 seconds per sample
dh100219Tamanrasset 22.79-5.529 4.974364pr865
************************************************************
Dead Time -------------------------  2.8E-08 
Number of Cycles Used -------------  4 
Starting Wavelength (Angstroms) ---  3331 
Final Wavelength (Angstoms) -------  3351 
Wavelength Increment (Angstroms) --  .25 
Filter Wheel #1 Position ---------- (1) Ground quartz diffuser (ND=2.32)
Filter Wheel #2 Position ---------- (0) Clear Aperture



************************************************************
HL scan start time = 04:42:43
Dark Count =  3.7 


Time (GMT)  Wavelength (Ang)  Step Number  Raw Counts  Counts/Second

  283.23        3331.00           6581          33.00       127.72
  283.45        3331.25           6585          27.00       101.57
  283.47        3331.50           6589          27.00       101.57
  283.50        3331.75           6593          29.00       110.29
  283.53        3332.00           6596          28.00       105.93
  283.56        3332.25           6600          30.00       114.65
  283.58        3332.50           6604          29.00       110.29
  283.61        3332.75           6608          31.00       119.01
  283.64        3333.00           6611          27.00       101.57
  283.66        3333.25           6615          31.00       119.01
  283.69        3333.50           6619          22.00        79.77
  283.72        3333.75           6623          30.00       114.65
  283.75        3334.00           6626          33.00       127.72
  283.77        3334.25           6630          24.00        88.49
  283.80        3334.50           6634          29.00       110.29
  283.83        3334.75           6638          27.00       101.57
  283.85        3335.00           6641          26.00        97.21
  283.88        3335.25           6645          34.00       132.08
  283.91        3335.50           6649          32.00       123.37
  283.94        3335.75           6653          38.00       149.52
  283.96        3336.00           6656          38.00       149.52
  283.99        3336.25           6660         111.00       467.75
  284.02        3336.50           6664         393.00      1697.12
  284.05        3336.75           6668         605.00      2621.38
  284.07        3337.00           6671        1110.00      4823.23
  284.10        3337.25           6675        2155.00      9380.41
  284.13        3337.50           6679        3369.00     14676.04
  284.15        3337.75           6683        4695.00     20462.03
  284.18        3338.00           6686        5729.00     24975.18
  284.21        3338.25           6690        7120.00     31048.34
  284.24        3338.50           6694        8517.00     37149.78
  284.26        3338.75           6698        9785.00     42689.62
  284.29        3339.00           6701       10798.00     47116.61
  284.32        3339.25           6705       12116.00     52878.15
  284.35        3339.50           6709       13461.00     58759.64
  284.37        3339.75           6713       14840.00     64791.80
  284.40        3340.00           6716       15715.00     68620.38
  284.43        3340.25           6720       17250.00     75338.80
  284.46        3340.50           6724       18523.00     80912.40
  284.48        3340.75           6728       19865.00     86790.00
  284.51        3341.00           6731       20885.00     91258.61
  284.54        3341.25           6735       22079.00     96490.96
  284.56        3341.50           6739       22951.00    100313.20
  284.59        3341.75           6743       23525.00    102829.70
  284.62        3342.00           6746       23601.00    103162.90
  284.65        3342.25           6750       23346.00    102044.90
  284.67        3342.50           6754       22753.00     99445.22
  284.70        3342.75           6758       21489.00     93905.27
  284.73        3343.00           6761       20699.00     90443.66
  284.76        3343.25           6765       19228.00     83999.87
  284.78        3343.50           6769       17957.00     78434.06
  284.81        3343.75           6773       16612.00     72546.09
  284.84        3344.00           6776       15468.00     67539.55
  284.87        3344.25           6780       14291.00     62390.07
  284.89        3344.50           6784       12817.00     55943.27
  284.92        3344.75           6788       11411.00     49796.06
  284.95        3345.00           6791       10445.00     45573.82
  284.97        3345.25           6795        8983.00     39185.52
  285.00        3345.50           6799        7345.00     32030.90
  285.03        3345.75           6803        5559.00     24233.09
  285.06        3346.00           6806        4515.00     19676.49
  285.08        3346.25           6810        3466.00     15099.23
  285.11        3346.50           6814        2496.00     10867.74
  285.14        3346.75           6818        1655.00      7199.80
  285.16        3347.00           6821        1010.00      4387.20
  285.19        3347.25           6825         373.00      1609.92
  285.22        3347.50           6829          91.00       380.56
  285.25        3347.75           6833          39.00       153.88
  285.27        3348.00           6836          33.00       127.72
  285.30        3348.25           6840          37.00       145.16
  285.33        3348.50           6844          29.00       110.29
  285.35        3348.75           6848          33.00       127.72
  285.38        3349.00           6851          32.00       123.37
  285.41        3349.25           6855          30.00       114.65
  285.44        3349.50           6859          32.00       123.37
  285.46        3349.75           6863          29.00       110.29
  285.49        3350.00           6867          32.00       123.37
  285.52        3350.25           6870          26.00        97.21
  285.55        3350.50           6874          28.00       105.93
  285.57        3350.75           6878          31.00       119.01
  285.60        3351.00           6882          30.00       114.65
HL scan finished at 04:46:13
end
