************************************************************
  HL Scan of (1) Internal mercury lamp
************************************************************
Integration time is 0.2294 seconds per sample
dh170219Tamanrasset 22.79-5.529 4.974364pr865
************************************************************
Dead Time -------------------------  2.8E-08 
Number of Cycles Used -------------  4 
Starting Wavelength (Angstroms) ---  3331 
Final Wavelength (Angstoms) -------  3351 
Wavelength Increment (Angstroms) --  .25 
Filter Wheel #1 Position ---------- (1) Ground quartz diffuser (ND=2.32)
Filter Wheel #2 Position ---------- (0) Clear Aperture



************************************************************
HL scan start time = 04:37:36
Dark Count =  5.4 


Time (GMT)  Wavelength (Ang)  Step Number  Raw Counts  Counts/Second

  278.12        3331.00           6581          23.00        76.72
  278.33        3331.25           6585          27.00        94.16
  278.36        3331.50           6589          25.00        85.44
  278.39        3331.75           6593          26.00        89.80
  278.42        3332.00           6596          28.00        98.52
  278.44        3332.25           6600          35.00       129.03
  278.47        3332.50           6604          27.00        94.16
  278.50        3332.75           6608          26.00        89.80
  278.52        3333.00           6611          26.00        89.80
  278.55        3333.25           6615          31.00       111.60
  278.58        3333.50           6619          33.00       120.31
  278.61        3333.75           6623          24.00        81.08
  278.63        3334.00           6626          26.00        89.80
  278.66        3334.25           6630          24.00        81.08
  278.69        3334.50           6634          25.00        85.44
  278.71        3334.75           6638          26.00        89.80
  278.74        3335.00           6641          28.00        98.52
  278.77        3335.25           6645          29.00       102.88
  278.79        3335.50           6649          27.00        94.16
  278.82        3335.75           6653          33.00       120.31
  278.85        3336.00           6656          40.00       150.83
  278.88        3336.25           6660          97.00       399.31
  278.90        3336.50           6664         356.00      1528.40
  278.93        3336.75           6668         628.00      2714.24
  278.96        3337.00           6671         948.00      4109.45
  278.99        3337.25           6675        1912.00      8313.18
  279.01        3337.50           6679        3021.00     13150.44
  279.04        3337.75           6683        4327.00     18848.65
  279.07        3338.00           6686        5284.00     23025.30
  279.10        3338.25           6690        6789.00     29595.57
  279.12        3338.50           6694        8028.00     35006.40
  279.15        3338.75           6698        9433.00     41144.15
  279.18        3339.00           6701       10439.00     45540.16
  279.20        3339.25           6705       11873.00     51808.32
  279.23        3339.50           6709       13146.00     57374.58
  279.26        3339.75           6713       14434.00     63008.18
  279.29        3340.00           6716       15566.00     67960.94
  279.31        3340.25           6720       16722.00     73020.11
  279.34        3340.50           6724       18175.00     79381.13
  279.37        3340.75           6728       19536.00     85341.44
  279.40        3341.00           6731       20402.00     89135.00
  279.42        3341.25           6735       21436.00     93665.56
  279.45        3341.50           6739       22705.00     99227.35
  279.48        3341.75           6743       23221.00    101489.40
  279.51        3342.00           6746       23391.00    102234.70
  279.53        3342.25           6750       23236.00    101555.10
  279.56        3342.50           6754       22655.00     99008.18
  279.59        3342.75           6758       21624.00     94489.41
  279.61        3343.00           6761       20738.00     90607.09
  279.64        3343.25           6765       19252.00     84097.53
  279.67        3343.50           6769       18150.00     79271.66
  279.70        3343.75           6773       16819.00     73444.70
  279.72        3344.00           6776       15713.00     68604.20
  279.75        3344.25           6780       14526.00     63410.65
  279.78        3344.50           6784       13110.00     57217.14
  279.81        3344.75           6788       11707.00     51082.60
  279.83        3345.00           6791       10622.00     46339.95
  279.86        3345.25           6795        9210.00     40169.83
  279.89        3345.50           6799        7596.00     33119.63
  279.92        3345.75           6803        5896.00     25696.78
  279.94        3346.00           6806        4902.00     21358.02
  279.97        3346.25           6810        3704.00     16130.22
  280.00        3346.50           6814        2651.00     11536.42
  280.02        3346.75           6818        1830.00      7955.56
  280.05        3347.00           6821        1289.00      5596.34
  280.08        3347.25           6825         514.00      2217.23
  280.11        3347.50           6829         120.00       499.57
  280.13        3347.75           6833          35.00       129.03
  280.16        3348.00           6836          36.00       133.39
  280.19        3348.25           6840          30.00       107.24
  280.21        3348.50           6844          31.00       111.60
  280.24        3348.75           6848          32.00       115.96
  280.27        3349.00           6851          23.00        76.72
  280.30        3349.25           6855          31.00       111.60
  280.32        3349.50           6859          24.00        81.08
  280.35        3349.75           6863          29.00       102.88
  280.38        3350.00           6867          33.00       120.31
  280.40        3350.25           6870          36.00       133.39
  280.43        3350.50           6874          27.00        94.16
  280.46        3350.75           6878          30.00       107.24
  280.49        3351.00           6882          33.00       120.31
HL scan finished at 04:41:07
end
