************************************************************
  HL Scan of (1) Internal mercury lamp
************************************************************
Integration time is 0.2294 seconds per sample
dh150219Tamanrasset 22.79-5.529 4.974364pr865
************************************************************
Dead Time -------------------------  2.8E-08 
Number of Cycles Used -------------  4 
Starting Wavelength (Angstroms) ---  3331 
Final Wavelength (Angstoms) -------  3351 
Wavelength Increment (Angstroms) --  .25 
Filter Wheel #1 Position ---------- (1) Ground quartz diffuser (ND=2.32)
Filter Wheel #2 Position ---------- (0) Clear Aperture



************************************************************
HL scan start time = 04:38:52
Dark Count =  5.8 


Time (GMT)  Wavelength (Ang)  Step Number  Raw Counts  Counts/Second

  279.37        3331.00           6581          26.00        88.06
  279.59        3331.25           6585          25.00        83.70
  279.62        3331.50           6589          26.00        88.06
  279.64        3331.75           6593          26.00        88.06
  279.67        3332.00           6596          26.00        88.06
  279.70        3332.25           6600          25.00        83.70
  279.72        3332.50           6604          28.00        96.77
  279.75        3332.75           6608          26.00        88.06
  279.78        3333.00           6611          28.00        96.77
  279.81        3333.25           6615          27.00        92.42
  279.83        3333.50           6619          29.00       101.13
  279.86        3333.75           6623          32.00       114.21
  279.89        3334.00           6626          29.00       101.13
  279.92        3334.25           6630          25.00        83.70
  279.94        3334.50           6634          29.00       101.13
  279.97        3334.75           6638          27.00        92.42
  280.00        3335.00           6641          26.00        88.06
  280.02        3335.25           6645          29.00       101.13
  280.05        3335.50           6649          27.00        92.42
  280.08        3335.75           6653          31.00       109.85
  280.11        3336.00           6656          44.00       166.52
  280.13        3336.25           6660         131.00       545.78
  280.16        3336.50           6664         401.00      1722.84
  280.19        3336.75           6668         668.00      2886.89
  280.21        3337.00           6671        1220.00      5293.72
  280.24        3337.25           6675        2276.00      9898.99
  280.27        3337.50           6679        3537.00     15399.84
  280.30        3337.75           6683        4885.00     21282.08
  280.32        3338.00           6686        5893.00     25681.93
  280.35        3338.25           6690        7231.00     31523.89
  280.38        3338.50           6694        8495.00     37044.51
  280.41        3338.75           6698        9893.00     43152.37
  280.43        3339.00           6701       10935.00     47706.23
  280.46        3339.25           6705       12123.00     52899.57
  280.49        3339.50           6709       13704.00     59813.26
  280.51        3339.75           6713       14929.00     65172.01
  280.54        3340.00           6716       15970.00     69727.11
  280.57        3340.25           6720       17352.00     75776.12
  280.60        3340.50           6724       18746.00     81879.75
  280.62        3340.75           6728       19990.00     87328.35
  280.65        3341.00           6731       20941.00     91494.78
  280.68        3341.25           6735       21856.00     95504.39
  280.71        3341.50           6739       22954.00    100317.10
  280.73        3341.75           6743       23510.00    102754.70
  280.76        3342.00           6746       23607.00    103180.00
  280.79        3342.25           6750       23378.00    102176.00
  280.82        3342.50           6754       22649.00     98980.12
  280.84        3342.75           6758       21436.00     93663.81
  280.87        3343.00           6761       20551.00     89786.04
  280.90        3343.25           6765       19182.00     83789.21
  280.92        3343.50           6769       17931.00     78311.02
  280.95        3343.75           6773       16518.00     72125.46
  280.98        3344.00           6776       15494.00     67644.13
  281.01        3344.25           6780       14288.00     62367.76
  281.03        3344.50           6784       12939.00     56467.59
  281.06        3344.75           6788       11446.00     49939.88
  281.09        3345.00           6791       10391.00     45328.64
  281.12        3345.25           6795        9022.00     39346.73
  281.14        3345.50           6799        7360.00     32087.23
  281.17        3345.75           6803        5528.00     24088.61
  281.20        3346.00           6806        4369.00     19030.19
  281.23        3346.25           6810        3316.00     14435.65
  281.25        3346.50           6814        2477.00     10775.70
  281.28        3346.75           6818        1635.00      7103.42
  281.31        3347.00           6821         950.00      4116.43
  281.33        3347.25           6825         341.00      1461.26
  281.36        3347.50           6829          87.00       353.97
  281.39        3347.75           6833          36.00       131.65
  281.42        3348.00           6836          28.00        96.77
  281.44        3348.25           6840          32.00       114.21
  281.47        3348.50           6844          29.00       101.13
  281.50        3348.75           6848          28.00        96.77
  281.52        3349.00           6851          25.00        83.70
  281.55        3349.25           6855          31.00       109.85
  281.58        3349.50           6859          29.00       101.13
  281.61        3349.75           6863          31.00       109.85
  281.63        3350.00           6867          34.00       122.93
  281.66        3350.25           6870          32.00       114.21
  281.69        3350.50           6874          28.00        96.77
  281.71        3350.75           6878          23.00        74.98
  281.74        3351.00           6882          29.00       101.13
HL scan finished at 04:42:22
end
