************************************************************
  HL Scan of (1) Internal mercury lamp
************************************************************
Integration time is 0.2294 seconds per sample
dh140219Tamanrasset 22.79-5.529 4.974364pr865
************************************************************
Dead Time -------------------------  2.8E-08 
Number of Cycles Used -------------  4 
Starting Wavelength (Angstroms) ---  3331 
Final Wavelength (Angstoms) -------  3351 
Wavelength Increment (Angstroms) --  .25 
Filter Wheel #1 Position ---------- (1) Ground quartz diffuser (ND=2.32)
Filter Wheel #2 Position ---------- (0) Clear Aperture



************************************************************
HL scan start time = 04:39:36
Dark Count =  3.6 


Time (GMT)  Wavelength (Ang)  Step Number  Raw Counts  Counts/Second

  280.12        3331.00           6581          26.00        97.65
  280.33        3331.25           6585          33.00       128.16
  280.36        3331.50           6589          26.00        97.65
  280.39        3331.75           6593          29.00       110.72
  280.42        3332.00           6596          26.00        97.65
  280.44        3332.25           6600          31.00       119.44
  280.47        3332.50           6604          30.00       115.08
  280.50        3332.75           6608          33.00       128.16
  280.52        3333.00           6611          34.00       132.52
  280.55        3333.25           6615          26.00        97.65
  280.58        3333.50           6619          29.00       110.72
  280.61        3333.75           6623          25.00        93.29
  280.63        3334.00           6626          31.00       119.44
  280.66        3334.25           6630          30.00       115.08
  280.69        3334.50           6634          28.00       106.36
  280.71        3334.75           6638          30.00       115.08
  280.74        3335.00           6641          28.00       106.36
  280.77        3335.25           6645          32.00       123.80
  280.80        3335.50           6649          30.00       115.08
  280.82        3335.75           6653          35.00       136.88
  280.85        3336.00           6656          68.00       280.73
  280.88        3336.25           6660         191.00       816.93
  280.91        3336.50           6664         401.00      1732.43
  280.93        3336.75           6668         859.00      3729.25
  280.96        3337.00           6671        1508.00      6559.18
  280.99        3337.25           6675        2622.00     11417.77
  281.01        3337.50           6679        3897.00     16980.17
  281.04        3337.75           6683        5154.00     22465.74
  281.07        3338.00           6686        6222.00     27127.84
  281.10        3338.25           6690        7611.00     33193.00
  281.12        3338.50           6694        8937.00     38984.99
  281.15        3338.75           6698       10309.00     44979.90
  281.18        3339.00           6701       11244.00     49066.50
  281.21        3339.25           6705       12654.00     55230.95
  281.23        3339.50           6709       13953.00     60912.00
  281.26        3339.75           6713       15423.00     67343.09
  281.29        3340.00           6716       16477.00     71955.65
  281.32        3340.25           6720       17809.00     77786.50
  281.34        3340.50           6724       19062.00     83273.28
  281.37        3340.75           6728       20380.00     89046.50
  281.40        3341.00           6731       21410.00     93559.51
  281.42        3341.25           6735       22454.00     98135.03
  281.45        3341.50           6739       23198.00    101396.50
  281.48        3341.75           6743       23697.00    103584.20
  281.51        3342.00           6746       23719.00    103680.70
  281.53        3342.25           6750       23329.00    101970.80
  281.56        3342.50           6754       22372.00     97775.60
  281.59        3342.75           6758       21195.00     92617.38
  281.62        3343.00           6761       20202.00     88266.71
  281.64        3343.25           6765       19190.00     83833.88
  281.67        3343.50           6769       17799.00     77742.72
  281.70        3343.75           6773       16225.00     70852.72
  281.73        3344.00           6776       15375.00     67133.05
  281.75        3344.25           6780       14011.00     61165.70
  281.78        3344.50           6784       12515.00     54623.15
  281.81        3344.75           6788       11261.00     49140.81
  281.83        3345.00           6791       10113.00     44123.36
  281.86        3345.25           6795        8689.00     37901.58
  281.89        3345.50           6799        6956.00     30332.64
  281.92        3345.75           6803        5151.00     22452.65
  281.94        3346.00           6806        4005.00     17451.42
  281.97        3346.25           6810        3196.00     13921.73
  282.00        3346.50           6814        2404.00     10466.89
  282.02        3346.75           6818        1484.00      6454.52
  282.05        3347.00           6821         822.00      3567.92
  282.08        3347.25           6825         270.00      1161.33
  282.11        3347.50           6829          60.00       245.86
  282.13        3347.75           6833          35.00       136.88
  282.16        3348.00           6836          33.00       128.16
  282.19        3348.25           6840          30.00       115.08
  282.22        3348.50           6844          27.00       102.01
  282.24        3348.75           6848          33.00       128.16
  282.27        3349.00           6851          30.00       115.08
  282.30        3349.25           6855          29.00       110.72
  282.32        3349.50           6859          25.00        93.29
  282.35        3349.75           6863          28.00       106.36
  282.38        3350.00           6867          33.00       128.16
  282.41        3350.25           6870          38.00       149.96
  282.43        3350.50           6874          28.00       106.36
  282.46        3350.75           6878          27.00       102.01
  282.49        3351.00           6882          29.00       110.72
HL scan finished at 04:43:07
end
