************************************************************
  HL Scan of (1) Internal mercury lamp
************************************************************
Integration time is 0.2294 seconds per sample
dh110219Tamanrasset 22.79-5.529 4.974364pr865
************************************************************
Dead Time -------------------------  2.8E-08 
Number of Cycles Used -------------  4 
Starting Wavelength (Angstroms) ---  3331 
Final Wavelength (Angstoms) -------  3351 
Wavelength Increment (Angstroms) --  .25 
Filter Wheel #1 Position ---------- (1) Ground quartz diffuser (ND=2.32)
Filter Wheel #2 Position ---------- (0) Clear Aperture



************************************************************
HL scan start time = 04:41:16
Dark Count =  3.1 


Time (GMT)  Wavelength (Ang)  Step Number  Raw Counts  Counts/Second

  281.78        3331.00           6581          25.00        95.47
  282.00        3331.25           6585          28.00       108.54
  282.02        3331.50           6589          29.00       112.90
  282.05        3331.75           6593          27.00       104.19
  282.08        3332.00           6596          26.00        99.83
  282.10        3332.25           6600          25.00        95.47
  282.13        3332.50           6604          24.00        91.11
  282.16        3332.75           6608          33.00       130.34
  282.19        3333.00           6611          26.00        99.83
  282.21        3333.25           6615          32.00       125.98
  282.24        3333.50           6619          27.00       104.19
  282.27        3333.75           6623          24.00        91.11
  282.29        3334.00           6626          32.00       125.98
  282.32        3334.25           6630          34.00       134.70
  282.35        3334.50           6634          23.00        86.75
  282.38        3334.75           6638          27.00       104.19
  282.40        3335.00           6641          24.00        91.11
  282.43        3335.25           6645          27.00       104.19
  282.46        3335.50           6649          33.00       130.34
  282.48        3335.75           6653          39.00       156.50
  282.51        3336.00           6656          43.00       173.93
  282.54        3336.25           6660         176.00       753.72
  282.57        3336.50           6664         505.00      2188.02
  282.59        3336.75           6668         795.00      3452.38
  282.62        3337.00           6671        1241.00      5397.07
  282.65        3337.25           6675        2429.00     10578.11
  282.67        3337.50           6679        3616.00     15756.30
  282.70        3337.75           6683        4861.00     21189.11
  282.73        3338.00           6686        5825.00     25396.87
  282.76        3338.25           6690        7344.00     32029.15
  282.78        3338.50           6694        8724.00     38056.67
  282.81        3338.75           6698        9866.00     43046.19
  282.84        3339.00           6701       11022.00     48098.31
  282.87        3339.25           6705       12396.00     54105.01
  282.89        3339.50           6709       13650.00     59588.89
  282.92        3339.75           6713       15138.00     66098.25
  282.95        3340.00           6716       16140.00     70482.91
  282.98        3340.25           6720       17443.00     76186.33
  283.00        3340.50           6724       18848.00     82338.27
  283.03        3340.75           6728       20186.00     88198.81
  283.06        3341.00           6731       21037.00     91927.25
  283.08        3341.25           6735       22311.00     97510.43
  283.11        3341.50           6739       23076.00    100863.80
  283.14        3341.75           6743       23485.00    102656.90
  283.17        3342.00           6746       23651.00    103384.70
  283.19        3342.25           6750       23449.00    102499.10
  283.22        3342.50           6754       22721.00     99307.58
  283.25        3342.75           6758       21626.00     94508.28
  283.28        3343.00           6761       20281.00     88614.99
  283.30        3343.25           6765       19169.00     83744.09
  283.33        3343.50           6769       17720.00     77399.03
  283.36        3343.75           6773       16556.00     72303.60
  283.38        3344.00           6776       15417.00     67319.02
  283.41        3344.25           6780       14161.00     61824.02
  283.44        3344.50           6784       12820.00     55959.02
  283.47        3344.75           6788       11406.00     49776.83
  283.49        3345.00           6791       10342.00     45126.30
  283.52        3345.25           6795        9034.00     39410.95
  283.55        3345.50           6799        7247.00     31605.55
  283.58        3345.75           6803        5570.00     24283.73
  283.60        3346.00           6806        4572.00     19927.86
  283.63        3346.25           6810        3282.00     14299.10
  283.66        3346.50           6814        2114.00      9204.20
  283.69        3346.75           6818        1575.00      6853.54
  283.71        3347.00           6821         959.00      4167.44
  283.74        3347.25           6825         321.00      1385.84
  283.77        3347.50           6829          78.00       326.51
  283.79        3347.75           6833          39.00       156.50
  283.82        3348.00           6836          34.00       134.70
  283.85        3348.25           6840          29.00       112.90
  283.88        3348.50           6844          28.00       108.54
  283.90        3348.75           6848          31.00       121.62
  283.93        3349.00           6851          32.00       125.98
  283.96        3349.25           6855          29.00       112.90
  283.98        3349.50           6859          30.00       117.26
  284.01        3349.75           6863          28.00       108.54
  284.04        3350.00           6867          31.00       121.62
  284.07        3350.25           6870          31.00       121.62
  284.09        3350.50           6874          28.00       108.54
  284.12        3350.75           6878          27.00       104.19
  284.15        3351.00           6882          31.00       121.62
HL scan finished at 04:44:46
end
