************************************************************
  HL Scan of (1) Internal mercury lamp
************************************************************
Integration time is 0.2294 seconds per sample
dh180219Tamanrasset 22.79-5.529 4.974364pr865
************************************************************
Dead Time -------------------------  2.8E-08 
Number of Cycles Used -------------  4 
Starting Wavelength (Angstroms) ---  3331 
Final Wavelength (Angstoms) -------  3351 
Wavelength Increment (Angstroms) --  .25 
Filter Wheel #1 Position ---------- (1) Ground quartz diffuser (ND=2.32)
Filter Wheel #2 Position ---------- (0) Clear Aperture



************************************************************
HL scan start time = 04:37:23
Dark Count =  5.8 


Time (GMT)  Wavelength (Ang)  Step Number  Raw Counts  Counts/Second

  277.90        3331.00           6581          28.00        96.77
  278.12        3331.25           6585          28.00        96.77
  278.15        3331.50           6589          30.00       105.49
  278.18        3331.75           6593          29.00       101.13
  278.20        3332.00           6596          32.00       114.21
  278.23        3332.25           6600          30.00       105.49
  278.26        3332.50           6604          30.00       105.49
  278.28        3332.75           6608          31.00       109.85
  278.31        3333.00           6611          30.00       105.49
  278.34        3333.25           6615          33.00       118.57
  278.37        3333.50           6619          29.00       101.13
  278.39        3333.75           6623          28.00        96.77
  278.42        3334.00           6626          30.00       105.49
  278.45        3334.25           6630          26.00        88.06
  278.47        3334.50           6634          32.00       114.21
  278.50        3334.75           6638          33.00       118.57
  278.53        3335.00           6641          34.00       122.93
  278.56        3335.25           6645          33.00       118.57
  278.58        3335.50           6649          34.00       122.93
  278.61        3335.75           6653          35.00       127.29
  278.64        3336.00           6656          39.00       144.73
  278.66        3336.25           6660         131.00       545.78
  278.69        3336.50           6664         454.00      1953.90
  278.72        3336.75           6668         792.00      3427.53
  278.75        3337.00           6671        1190.00      5162.91
  278.77        3337.25           6675        2226.00      9680.91
  278.80        3337.50           6679        3479.00     15146.79
  278.83        3337.75           6683        4727.00     20592.52
  278.86        3338.00           6686        5859.00     25533.51
  278.88        3338.25           6690        7240.00     31563.19
  278.91        3338.50           6694        8531.00     37201.77
  278.94        3338.75           6698        9867.00     43038.76
  278.96        3339.00           6701       10900.00     47553.25
  278.99        3339.25           6705       12097.00     52785.90
  279.02        3339.50           6709       13535.00     59074.10
  279.05        3339.75           6713       14841.00     64786.99
  279.07        3340.00           6716       15863.00     69258.85
  279.10        3340.25           6720       17260.00     75373.37
  279.13        3340.50           6724       18705.00     81700.21
  279.16        3340.75           6728       19923.00     87034.86
  279.18        3341.00           6731       20845.00     91074.15
  279.21        3341.25           6735       21982.00     96056.60
  279.24        3341.50           6739       22859.00     99900.68
  279.26        3341.75           6743       23492.00    102675.80
  279.29        3342.00           6746       23471.00    102583.70
  279.32        3342.25           6750       23196.00    101378.00
  279.35        3342.50           6754       22490.00     98283.18
  279.37        3342.75           6758       21311.00     93116.05
  279.40        3343.00           6761       20235.00     88401.63
  279.43        3343.25           6765       18846.00     82317.68
  279.46        3343.50           6769       17780.00     77649.90
  279.48        3343.75           6773       16380.00     71521.47
  279.51        3344.00           6776       15348.00     67005.28
  279.54        3344.25           6780       14064.00     61387.90
  279.57        3344.50           6784       12742.00     55606.13
  279.59        3344.75           6788       11369.00     49603.29
  279.62        3345.00           6791       10397.00     45354.87
  279.65        3345.25           6795        9041.00     39429.73
  279.68        3345.50           6799        7258.00     31641.80
  279.70        3345.75           6803        5601.00     24407.26
  279.73        3346.00           6806        4486.00     19540.77
  279.76        3346.25           6810        3239.00     14099.72
  279.78        3346.50           6814        2341.00     10182.50
  279.81        3346.75           6818        1504.00      6532.14
  279.84        3347.00           6821         967.00      4190.55
  279.87        3347.25           6825         349.00      1496.14
  279.89        3347.50           6829          87.00       353.97
  279.92        3347.75           6833          37.00       136.01
  279.95        3348.00           6836          36.00       131.65
  279.97        3348.25           6840          33.00       118.57
  280.00        3348.50           6844          36.00       131.65
  280.03        3348.75           6848          36.00       131.65
  280.06        3349.00           6851          31.00       109.85
  280.08        3349.25           6855          29.00       101.13
  280.11        3349.50           6859          35.00       127.29
  280.14        3349.75           6863          28.00        96.77
  280.16        3350.00           6867          29.00       101.13
  280.19        3350.25           6870          30.00       105.49
  280.22        3350.50           6874          34.00       122.93
  280.25        3350.75           6878          29.00       101.13
  280.27        3351.00           6882          35.00       127.29
HL scan finished at 04:40:54
end
