************************************************************
  HL Scan of (1) Internal mercury lamp
************************************************************
Integration time is 0.2294 seconds per sample
dh120219Tamanrasset 22.79-5.529 4.974364pr865
************************************************************
Dead Time -------------------------  2.8E-08 
Number of Cycles Used -------------  4 
Starting Wavelength (Angstroms) ---  3331 
Final Wavelength (Angstoms) -------  3351 
Wavelength Increment (Angstroms) --  .25 
Filter Wheel #1 Position ---------- (1) Ground quartz diffuser (ND=2.32)
Filter Wheel #2 Position ---------- (0) Clear Aperture



************************************************************
HL scan start time = 04:40:48
Dark Count =  3.8 


Time (GMT)  Wavelength (Ang)  Step Number  Raw Counts  Counts/Second

  281.32        3331.00           6581          31.00       118.57
  281.53        3331.25           6585          29.00       109.85
  281.56        3331.50           6589          27.00       101.13
  281.59        3331.75           6593          26.00        96.77
  281.62        3332.00           6596          26.00        96.77
  281.64        3332.25           6600          28.00       105.49
  281.67        3332.50           6604          27.00       101.13
  281.70        3332.75           6608          33.00       127.29
  281.72        3333.00           6611          27.00       101.13
  281.75        3333.25           6615          28.00       105.49
  281.78        3333.50           6619          27.00       101.13
  281.81        3333.75           6623          27.00       101.13
  281.83        3334.00           6626          20.00        70.62
  281.86        3334.25           6630          28.00       105.49
  281.89        3334.50           6634          30.00       114.21
  281.91        3334.75           6638          27.00       101.13
  281.94        3335.00           6641          27.00       101.13
  281.97        3335.25           6645          36.00       140.37
  282.00        3335.50           6649          38.00       149.09
  282.02        3335.75           6653          39.00       153.44
  282.05        3336.00           6656          66.00       271.14
  282.08        3336.25           6660         220.00       942.48
  282.11        3336.50           6664         481.00      2080.33
  282.13        3336.75           6668         949.00      4120.79
  282.16        3337.00           6671        1595.00      6937.70
  282.19        3337.25           6675        2781.00     12110.47
  282.21        3337.50           6679        3968.00     17289.10
  282.24        3337.75           6683        5299.00     23097.76
  282.27        3338.00           6686        6294.00     27441.31
  282.30        3338.25           6690        7676.00     33476.01
  282.32        3338.50           6694        9086.00     39635.07
  282.35        3338.75           6698       10393.00     45346.12
  282.38        3339.00           6701       11537.00     50346.43
  282.40        3339.25           6705       12692.00     55396.24
  282.43        3339.50           6709       14136.00     61711.60
  282.46        3339.75           6713       15450.00     67460.35
  282.49        3340.00           6716       16583.00     72418.71
  282.51        3340.25           6720       17881.00     78100.85
  282.54        3340.50           6724       19276.00     84209.66
  282.57        3340.75           6728       20429.00     89260.30
  282.60        3341.00           6731       21378.00     93418.41
  282.62        3341.25           6735       22501.00     98340.16
  282.65        3341.50           6739       23287.00    101785.80
  282.68        3341.75           6743       23724.00    103701.70
  282.71        3342.00           6746       23689.00    103548.30
  282.73        3342.25           6750       23319.00    101926.10
  282.76        3342.50           6754       22425.00     98007.03
  282.79        3342.75           6758       21036.00     91919.80
  282.82        3343.00           6761       20216.00     88327.16
  282.84        3343.25           6765       18951.00     82786.27
  282.87        3343.50           6769       17408.00     76030.03
  282.90        3343.75           6773       16205.00     70764.32
  282.93        3344.00           6776       15111.00     65977.05
  282.95        3344.25           6780       13754.00     60040.70
  282.98        3344.50           6784       12377.00     54018.88
  283.01        3344.75           6788       11022.00     48095.24
  283.03        3345.00           6791        9886.00     43130.53
  283.06        3345.25           6795        8499.00     37070.72
  283.09        3345.50           6799        6831.00     29785.95
  283.12        3345.75           6803        5246.00     22866.43
  283.14        3346.00           6806        4148.00     18074.53
  283.17        3346.25           6810        2911.00     12677.56
  283.20        3346.50           6814        2234.00      9724.53
  283.23        3346.75           6818        1345.00      5847.51
  283.25        3347.00           6821         738.00      3200.81
  283.28        3347.25           6825         207.00       885.81
  283.31        3347.50           6829          54.00       218.83
  283.33        3347.75           6833          39.00       153.44
  283.36        3348.00           6836          32.00       122.93
  283.39        3348.25           6840          26.00        96.77
  283.42        3348.50           6844          33.00       127.29
  283.44        3348.75           6848          28.00       105.49
  283.47        3349.00           6851          31.00       118.57
  283.50        3349.25           6855          26.00        96.77
  283.52        3349.50           6859          31.00       118.57
  283.55        3349.75           6863          26.00        96.77
  283.58        3350.00           6867          33.00       127.29
  283.61        3350.25           6870          31.00       118.57
  283.63        3350.50           6874          32.00       122.93
  283.66        3350.75           6878          30.00       114.21
  283.69        3351.00           6882          32.00       122.93
HL scan finished at 04:44:19
end
