************************************************************
  HL Scan of (1) Internal mercury lamp
************************************************************
Integration time is 0.2294 seconds per sample
dh160219Tamanrasset 22.79-5.529 4.974364pr865
************************************************************
Dead Time -------------------------  2.8E-08 
Number of Cycles Used -------------  4 
Starting Wavelength (Angstroms) ---  3331 
Final Wavelength (Angstoms) -------  3351 
Wavelength Increment (Angstroms) --  .25 
Filter Wheel #1 Position ---------- (1) Ground quartz diffuser (ND=2.32)
Filter Wheel #2 Position ---------- (0) Clear Aperture



************************************************************
HL scan start time = 04:38:57
Dark Count =  5.1 


Time (GMT)  Wavelength (Ang)  Step Number  Raw Counts  Counts/Second

  279.46        3331.00           6581          22.00        73.67
  279.68        3331.25           6585          27.00        95.47
  279.70        3331.50           6589          27.00        95.47
  279.73        3331.75           6593          25.00        86.75
  279.76        3332.00           6596          26.00        91.11
  279.79        3332.25           6600          23.00        78.03
  279.81        3332.50           6604          25.00        86.75
  279.84        3332.75           6608          30.00       108.54
  279.87        3333.00           6611          23.00        78.03
  279.89        3333.25           6615          29.00       104.19
  279.92        3333.50           6619          26.00        91.11
  279.95        3333.75           6623          37.00       139.06
  279.98        3334.00           6626          30.00       108.54
  280.00        3334.25           6630          26.00        91.11
  280.03        3334.50           6634          27.00        95.47
  280.06        3334.75           6638          26.00        91.11
  280.09        3335.00           6641          29.00       104.19
  280.11        3335.25           6645          38.00       143.42
  280.14        3335.50           6649          32.00       117.26
  280.17        3335.75           6653          37.00       139.06
  280.19        3336.00           6656          47.00       182.65
  280.22        3336.25           6660         187.00       792.96
  280.25        3336.50           6664         606.00      2619.63
  280.28        3336.75           6668         971.00      4211.05
  280.30        3337.00           6671        1569.00      6818.65
  280.33        3337.25           6675        2851.00     12410.15
  280.36        3337.50           6679        4063.00     17697.96
  280.38        3337.75           6683        5327.00     23214.30
  280.41        3338.00           6686        6347.00     27667.02
  280.44        3338.25           6690        7754.00     33810.98
  280.47        3338.50           6694        9066.00     39542.02
  280.49        3338.75           6698       10341.00     45113.19
  280.52        3339.00           6701       11594.00     50589.92
  280.55        3339.25           6705       12716.00     55495.50
  280.58        3339.50           6709       14277.00     62322.70
  280.60        3339.75           6713       15449.00     67450.29
  280.63        3340.00           6716       16581.00     72404.28
  280.66        3340.25           6720       17904.00     78195.88
  280.68        3340.50           6724       19402.00     84755.83
  280.71        3340.75           6728       20544.00     89758.43
  280.74        3341.00           6731       21406.00     93535.41
  280.77        3341.25           6735       22472.00     98207.34
  280.79        3341.50           6739       23216.00    101468.80
  280.82        3341.75           6743       23458.00    102529.80
  280.85        3342.00           6746       23334.00    101986.10
  280.88        3342.25           6750       23095.00    100938.30
  280.90        3342.50           6754       22104.00     96594.38
  280.93        3342.75           6758       20549.00     89780.34
  280.96        3343.00           6761       19777.00     86398.39
  280.98        3343.25           6765       18373.00     80249.43
  281.01        3343.50           6769       17153.00     74908.05
  281.04        3343.75           6773       15843.00     69174.40
  281.07        3344.00           6776       14892.00     65013.19
  281.09        3344.25           6780       13635.00     59514.53
  281.12        3344.50           6784       12229.00     53366.09
  281.15        3344.75           6788       10890.00     47512.60
  281.18        3345.00           6791        9766.00     42600.49
  281.20        3345.25           6795        8459.00     36890.31
  281.23        3345.50           6799        6722.00     29304.33
  281.26        3345.75           6803        5034.00     21935.44
  281.28        3346.00           6806        3980.00     17335.79
  281.31        3346.25           6810        2935.00     12776.58
  281.34        3346.50           6814        2012.00      8750.62
  281.37        3346.75           6818        1207.00      5240.09
  281.39        3347.00           6821         685.00      2964.06
  281.42        3347.25           6825         208.00       884.50
  281.45        3347.50           6829          44.00       169.57
  281.48        3347.75           6833          34.00       125.98
  281.50        3348.00           6836          31.00       112.90
  281.53        3348.25           6840          34.00       125.98
  281.56        3348.50           6844          29.00       104.19
  281.58        3348.75           6848          26.00        91.11
  281.61        3349.00           6851          33.00       121.62
  281.64        3349.25           6855          33.00       121.62
  281.67        3349.50           6859          28.00        99.83
  281.69        3349.75           6863          31.00       112.90
  281.72        3350.00           6867          29.00       104.19
  281.75        3350.25           6870          30.00       108.54
  281.77        3350.50           6874          29.00       104.19
  281.80        3350.75           6878          31.00       112.90
  281.83        3351.00           6882          30.00       108.54
HL scan finished at 04:42:27
end
