************************************************************
  HL Scan of (1) Internal mercury lamp
************************************************************
Integration time is 0.2294 seconds per sample
dh270219Tamanrasset 22.79-5.529 4.974364pr865
************************************************************
Dead Time -------------------------  2.8E-08 
Number of Cycles Used -------------  4 
Starting Wavelength (Angstroms) ---  3331 
Final Wavelength (Angstoms) -------  3351 
Wavelength Increment (Angstroms) --  .25 
Filter Wheel #1 Position ---------- (1) Ground quartz diffuser (ND=2.32)
Filter Wheel #2 Position ---------- (0) Clear Aperture



************************************************************
HL scan start time = 04:31:00
Dark Count =  4.2 


Time (GMT)  Wavelength (Ang)  Step Number  Raw Counts  Counts/Second

  271.52        3331.00           6581          29.00       108.11
  271.74        3331.25           6585          25.00        90.67
  271.76        3331.50           6589          26.00        95.03
  271.79        3331.75           6593          30.00       112.47
  271.82        3332.00           6596          26.00        95.03
  271.84        3332.25           6600          27.00        99.39
  271.87        3332.50           6604          25.00        90.67
  271.90        3332.75           6608          22.00        77.59
  271.93        3333.00           6611          25.00        90.67
  271.95        3333.25           6615          31.00       116.83
  271.98        3333.50           6619          30.00       112.47
  272.01        3333.75           6623          27.00        99.39
  272.03        3334.00           6626          26.00        95.03
  272.06        3334.25           6630          28.00       103.75
  272.09        3334.50           6634          31.00       116.83
  272.12        3334.75           6638          27.00        99.39
  272.14        3335.00           6641          24.00        86.31
  272.17        3335.25           6645          30.00       112.47
  272.20        3335.50           6649          26.00        95.03
  272.22        3335.75           6653          35.00       134.26
  272.25        3336.00           6656          45.00       177.86
  272.28        3336.25           6660         156.00       661.74
  272.31        3336.50           6664         479.00      2069.87
  272.33        3336.75           6668         696.00      3015.95
  272.36        3337.00           6671        1182.00      5135.00
  272.39        3337.25           6675        2232.00      9714.06
  272.41        3337.50           6679        3538.00     15411.18
  272.44        3337.75           6683        4744.00     20673.69
  272.47        3338.00           6686        5796.00     25265.47
  272.50        3338.25           6690        7199.00     31391.14
  272.52        3338.50           6694        8635.00     37663.06
  272.55        3338.75           6698        9903.00     43203.06
  272.58        3339.00           6701       10975.00     47888.07
  272.61        3339.25           6705       12345.00     53877.21
  272.63        3339.50           6709       13662.00     59636.55
  272.66        3339.75           6713       15174.00     66250.96
  272.69        3340.00           6716       16103.00     70316.16
  272.72        3340.25           6720       17444.00     76185.90
  272.74        3340.50           6724       18764.00     81965.59
  272.77        3340.75           6728       20096.00     87799.72
  272.80        3341.00           6731       20873.00     91203.84
  272.82        3341.25           6735       22199.00     97014.71
  272.85        3341.50           6739       23182.00    101323.70
  272.88        3341.75           6743       23730.00    103726.30
  272.91        3342.00           6746       23888.00    104419.10
  272.93        3342.25           6750       23517.00    102792.40
  272.96        3342.50           6754       22695.00     99188.79
  272.99        3342.75           6758       21412.00     93565.66
  273.02        3343.00           6761       20729.00     90572.91
  273.04        3343.25           6765       19329.00     84440.04
  273.07        3343.50           6769       18101.00     79062.38
  273.10        3343.75           6773       16686.00     72867.80
  273.13        3344.00           6776       15577.00     68014.32
  273.15        3344.25           6780       14218.00     62068.55
  273.18        3344.50           6784       12839.00     56037.29
  273.21        3344.75           6788       11533.00     50327.19
  273.24        3345.00           6791       10564.00     46091.71
  273.26        3345.25           6795        9106.00     39720.70
  273.29        3345.50           6799        7419.00     32351.87
  273.32        3345.75           6803        5580.00     24322.58
  273.34        3346.00           6806        4550.00     19827.05
  273.37        3346.25           6810        3213.00     13993.28
  273.40        3346.50           6814        2422.00     10542.78
  273.43        3346.75           6818        1694.00      7367.69
  273.45        3347.00           6821        1110.00      4821.05
  273.48        3347.25           6825         409.00      1764.69
  273.51        3347.50           6829         104.00       435.05
  273.53        3347.75           6833          37.00       142.98
  273.56        3348.00           6836          31.00       116.83
  273.59        3348.25           6840          36.00       138.62
  273.62        3348.50           6844          26.00        95.03
  273.64        3348.75           6848          29.00       108.11
  273.67        3349.00           6851          29.00       108.11
  273.70        3349.25           6855          30.00       112.47
  273.72        3349.50           6859          30.00       112.47
  273.75        3349.75           6863          29.00       108.11
  273.78        3350.00           6867          30.00       112.47
  273.81        3350.25           6870          31.00       116.83
  273.83        3350.50           6874          30.00       112.47
  273.86        3350.75           6878          26.00        95.03
  273.89        3351.00           6882          30.00       112.47
HL scan finished at 04:34:31
end
