************************************************************
  HL Scan of (1) Internal mercury lamp
************************************************************
Integration time is 0.2294 seconds per sample
dh210219Tamanrasset 22.79-5.529 4.974364pr865
************************************************************
Dead Time -------------------------  2.8E-08 
Number of Cycles Used -------------  4 
Starting Wavelength (Angstroms) ---  3331 
Final Wavelength (Angstoms) -------  3351 
Wavelength Increment (Angstroms) --  .25 
Filter Wheel #1 Position ---------- (1) Ground quartz diffuser (ND=2.32)
Filter Wheel #2 Position ---------- (0) Clear Aperture



************************************************************
HL scan start time = 04:34:58
Dark Count =  2.2 


Time (GMT)  Wavelength (Ang)  Step Number  Raw Counts  Counts/Second

  275.47        3331.00           6581          29.00       116.83
  275.69        3331.25           6585          30.00       121.19
  275.72        3331.50           6589          28.00       112.47
  275.75        3331.75           6593          25.00        99.39
  275.77        3332.00           6596          26.00       103.75
  275.80        3332.25           6600          32.00       129.90
  275.83        3332.50           6604          27.00       108.11
  275.85        3332.75           6608          32.00       129.90
  275.88        3333.00           6611          28.00       112.47
  275.91        3333.25           6615          21.00        81.95
  275.94        3333.50           6619          27.00       108.11
  275.96        3333.75           6623          26.00       103.75
  275.99        3334.00           6626          29.00       116.83
  276.02        3334.25           6630          31.00       125.55
  276.04        3334.50           6634          30.00       121.19
  276.07        3334.75           6638          24.00        95.03
  276.10        3335.00           6641          28.00       112.47
  276.13        3335.25           6645          33.00       134.26
  276.15        3335.50           6649          31.00       125.55
  276.18        3335.75           6653          36.00       147.34
  276.21        3336.00           6656          42.00       173.50
  276.23        3336.25           6660         123.00       526.60
  276.26        3336.50           6664         434.00      1882.40
  276.29        3336.75           6668         662.00      2876.43
  276.32        3337.00           6671        1112.00      4838.49
  276.34        3337.25           6675        2143.00      9334.61
  276.37        3337.50           6679        3429.00     14944.35
  276.40        3337.75           6683        4671.00     20363.83
  276.43        3338.00           6686        5661.00     24684.88
  276.45        3338.25           6690        7147.00     31172.80
  276.48        3338.50           6694        8405.00     36667.10
  276.51        3338.75           6698        9763.00     42600.04
  276.53        3339.00           6701       10685.00     46629.28
  276.56        3339.25           6705       12111.00     52862.85
  276.59        3339.50           6709       13495.00     58914.89
  276.62        3339.75           6713       14856.00     64868.37
  276.64        3340.00           6716       15814.00     69060.18
  276.67        3340.25           6720       17235.00     75279.70
  276.70        3340.50           6724       18553.00     81050.35
  276.73        3340.75           6728       19740.00     86249.02
  276.75        3341.00           6731       20687.00     90397.66
  276.78        3341.25           6735       21900.00     95713.02
  276.81        3341.50           6739       22784.00     99587.69
  276.83        3341.75           6743       23267.00    101705.10
  276.86        3342.00           6746       23560.00    102989.70
  276.89        3342.25           6750       23162.00    101244.80
  276.92        3342.50           6754       22573.00     98662.78
  276.94        3342.75           6758       21044.00     91961.87
  276.97        3343.00           6761       20361.00     88969.41
  277.00        3343.25           6765       19028.00     83130.52
  277.03        3343.50           6769       17752.00     77543.08
  277.05        3343.75           6773       16454.00     71861.10
  277.08        3344.00           6776       15472.00     67563.61
  277.11        3344.25           6780       14183.00     61924.19
  277.14        3344.50           6784       12711.00     55486.32
  277.16        3344.75           6788       11347.00     49522.85
  277.19        3345.00           6791       10438.00     45549.78
  277.22        3345.25           6795        9083.00     39628.95
  277.24        3345.50           6799        7357.00     32089.85
  277.27        3345.75           6803        5629.00     24545.20
  277.30        3346.00           6806        4510.00     19661.21
  277.33        3346.25           6810        3346.00     14582.24
  277.35        3346.50           6814        2423.00     10555.87
  277.38        3346.75           6818        1639.00      7136.56
  277.41        3347.00           6821        1074.00      4672.80
  277.44        3347.25           6825         390.00      1690.58
  277.46        3347.50           6829          93.00       395.82
  277.49        3347.75           6833          24.00        95.03
  277.52        3348.00           6836          32.00       129.90
  277.54        3348.25           6840          31.00       125.55
  277.57        3348.50           6844          31.00       125.55
  277.60        3348.75           6848          33.00       134.26
  277.63        3349.00           6851          28.00       112.47
  277.65        3349.25           6855          25.00        99.39
  277.68        3349.50           6859          29.00       116.83
  277.71        3349.75           6863          29.00       116.83
  277.73        3350.00           6867          29.00       116.83
  277.76        3350.25           6870          33.00       134.26
  277.79        3350.50           6874          29.00       116.83
  277.82        3350.75           6878          29.00       116.83
  277.84        3351.00           6882          29.00       116.83
HL scan finished at 04:38:28
end
