************************************************************
  HL Scan of (1) Internal mercury lamp
************************************************************
Integration time is 0.2294 seconds per sample
dh260219Tamanrasset 22.79-5.529 4.974364pr865
************************************************************
Dead Time -------------------------  2.8E-08 
Number of Cycles Used -------------  4 
Starting Wavelength (Angstroms) ---  3331 
Final Wavelength (Angstoms) -------  3351 
Wavelength Increment (Angstroms) --  .25 
Filter Wheel #1 Position ---------- (1) Ground quartz diffuser (ND=2.32)
Filter Wheel #2 Position ---------- (0) Clear Aperture



************************************************************
HL scan start time = 04:31:47
Dark Count =  3.7 


Time (GMT)  Wavelength (Ang)  Step Number  Raw Counts  Counts/Second

  272.30        3331.00           6581          23.00        84.13
  272.52        3331.25           6585          24.00        88.49
  272.54        3331.50           6589          25.00        92.85
  272.57        3331.75           6593          28.00       105.93
  272.60        3332.00           6596          27.00       101.57
  272.62        3332.25           6600          28.00       105.93
  272.65        3332.50           6604          27.00       101.57
  272.68        3332.75           6608          25.00        92.85
  272.71        3333.00           6611          29.00       110.29
  272.73        3333.25           6615          24.00        88.49
  272.76        3333.50           6619          28.00       105.93
  272.79        3333.75           6623          29.00       110.29
  272.81        3334.00           6626          30.00       114.65
  272.84        3334.25           6630          31.00       119.01
  272.87        3334.50           6634          33.00       127.72
  272.90        3334.75           6638          32.00       123.37
  272.92        3335.00           6641          25.00        92.85
  272.95        3335.25           6645          30.00       114.65
  272.98        3335.50           6649          34.00       132.08
  273.00        3335.75           6653          35.00       136.44
  273.03        3336.00           6656          40.00       158.24
  273.06        3336.25           6660         158.00       672.64
  273.09        3336.50           6664         448.00      1936.90
  273.11        3336.75           6668         736.00      3192.53
  273.14        3337.00           6671        1271.00      5525.27
  273.17        3337.25           6675        2357.00     10261.45
  273.19        3337.50           6679        3603.00     15696.96
  273.22        3337.75           6683        4866.00     21208.32
  273.25        3338.00           6686        5884.00     25651.81
  273.28        3338.25           6690        7274.00     31720.84
  273.30        3338.50           6694        8640.00     37687.09
  273.33        3338.75           6698        9883.00     43117.85
  273.36        3339.00           6701       10924.00     47667.33
  273.39        3339.25           6705       12258.00     53499.00
  273.41        3339.50           6709       13597.00     59354.45
  273.44        3339.75           6713       15106.00     65955.60
  273.47        3340.00           6716       16000.00     69867.60
  273.50        3340.25           6720       17292.00     75522.66
  273.52        3340.50           6724       18640.00     81424.76
  273.55        3340.75           6728       20014.00     87442.71
  273.58        3341.00           6731       20826.00     91000.10
  273.60        3341.25           6735       22052.00     96372.62
  273.63        3341.50           6739       22874.00     99975.64
  273.66        3341.75           6743       23595.00    103136.60
  273.69        3342.00           6746       23689.00    103548.70
  273.71        3342.25           6750       23246.00    101606.40
  273.74        3342.50           6754       22693.00     99182.21
  273.77        3342.75           6758       21476.00     93848.29
  273.79        3343.00           6761       20787.00     90829.22
  273.82        3343.25           6765       19130.00     83570.66
  273.85        3343.50           6769       17926.00     78298.33
  273.88        3343.75           6773       16587.00     72436.66
  273.90        3344.00           6776       15468.00     67539.55
  273.93        3344.25           6780       14238.00     62158.22
  273.96        3344.50           6784       12771.00     55742.12
  273.99        3344.75           6788       11354.00     49546.90
  274.01        3345.00           6791       10345.00     45136.78
  274.04        3345.25           6795        9012.00     39312.21
  274.07        3345.50           6799        7370.00     32140.07
  274.10        3345.75           6803        5704.00     24866.05
  274.12        3346.00           6806        4503.00     19624.12
  274.15        3346.25           6810        3307.00     14405.55
  274.18        3346.50           6814        2403.00     10462.09
  274.20        3346.75           6818        1648.00      7169.27
  274.23        3347.00           6821        1035.00      4496.21
  274.26        3347.25           6825         361.00      1557.61
  274.29        3347.50           6829          89.00       371.84
  274.31        3347.75           6833          34.00       132.08
  274.34        3348.00           6836          31.00       119.01
  274.37        3348.25           6840          35.00       136.44
  274.40        3348.50           6844          31.00       119.01
  274.42        3348.75           6848          29.00       110.29
  274.45        3349.00           6851          31.00       119.01
  274.48        3349.25           6855          26.00        97.21
  274.50        3349.50           6859          30.00       114.65
  274.53        3349.75           6863          29.00       110.29
  274.56        3350.00           6867          31.00       119.01
  274.59        3350.25           6870          32.00       123.37
  274.61        3350.50           6874          30.00       114.65
  274.64        3350.75           6878          28.00       105.93
  274.67        3351.00           6882          34.00       132.08
HL scan finished at 04:35:17
end
