************************************************************
  HL Scan of (1) Internal mercury lamp
************************************************************
Integration time is 0.2294 seconds per sample
dh200219Tamanrasset 22.79-5.529 4.974364pr865
************************************************************
Dead Time -------------------------  2.8E-08 
Number of Cycles Used -------------  4 
Starting Wavelength (Angstroms) ---  3331 
Final Wavelength (Angstoms) -------  3351 
Wavelength Increment (Angstroms) --  .25 
Filter Wheel #1 Position ---------- (1) Ground quartz diffuser (ND=2.32)
Filter Wheel #2 Position ---------- (0) Clear Aperture



************************************************************
HL scan start time = 04:36:15
Dark Count =  1.1 


Time (GMT)  Wavelength (Ang)  Step Number  Raw Counts  Counts/Second

  276.76        3331.00           6581          30.00       125.98
  276.98        3331.25           6585          22.00        91.11
  277.01        3331.50           6589          30.00       125.98
  277.03        3331.75           6593          29.00       121.62
  277.06        3332.00           6596          23.00        95.47
  277.09        3332.25           6600          31.00       130.34
  277.11        3332.50           6604          26.00       108.54
  277.14        3332.75           6608          24.00        99.83
  277.17        3333.00           6611          28.00       117.26
  277.20        3333.25           6615          29.00       121.62
  277.22        3333.50           6619          25.00       104.19
  277.25        3333.75           6623          30.00       125.98
  277.28        3334.00           6626          31.00       130.34
  277.30        3334.25           6630          33.00       139.06
  277.33        3334.50           6634          26.00       108.54
  277.36        3334.75           6638          24.00        99.83
  277.39        3335.00           6641          21.00        86.75
  277.41        3335.25           6645          29.00       121.62
  277.44        3335.50           6649          35.00       147.78
  277.47        3335.75           6653          35.00       147.78
  277.50        3336.00           6656          35.00       147.78
  277.52        3336.25           6660         119.00       513.96
  277.55        3336.50           6664         358.00      1555.87
  277.58        3336.75           6668         578.00      2515.00
  277.60        3337.00           6671        1024.00      4459.58
  277.63        3337.25           6675        2021.00      8807.32
  277.66        3337.50           6679        3243.00     14137.68
  277.69        3337.75           6683        4454.00     19421.63
  277.71        3338.00           6686        5650.00     24641.67
  277.74        3338.25           6690        6910.00     30142.69
  277.77        3338.50           6694        8302.00     36221.99
  277.80        3338.75           6698        9608.00     41927.58
  277.82        3339.00           6701       10580.00     46175.19
  277.85        3339.25           6705       12075.00     52710.26
  277.88        3339.50           6709       13420.00     58591.69
  277.90        3339.75           6713       14725.00     64300.06
  277.93        3340.00           6716       15616.00     68198.55
  277.96        3340.25           6720       16986.00     74194.53
  277.99        3340.50           6724       18286.00     79886.00
  278.01        3340.75           6728       19625.00     85750.10
  278.04        3341.00           6731       20508.00     89618.24
  278.07        3341.25           6735       21509.00     94004.30
  278.10        3341.50           6739       22653.00     99018.27
  278.12        3341.75           6743       23098.00    100969.00
  278.15        3342.00           6746       23365.00    102139.60
  278.18        3342.25           6750       23172.00    101293.40
  278.20        3342.50           6754       22716.00     99294.43
  278.23        3342.75           6758       21640.00     94578.38
  278.26        3343.00           6761       20628.00     90143.99
  278.29        3343.25           6765       19189.00     83840.46
  278.31        3343.50           6769       18067.00     78927.07
  278.34        3343.75           6773       16733.00     73087.08
  278.37        3344.00           6776       15800.00     69003.73
  278.40        3344.25           6780       14495.00     63293.86
  278.42        3344.50           6784       13062.00     57026.03
  278.45        3344.75           6788       11643.00     50821.62
  278.48        3345.00           6791       10582.00     46183.92
  278.50        3345.25           6795        9334.00     40730.38
  278.53        3345.50           6799        7627.00     33273.79
  278.56        3345.75           6803        5801.00     25300.83
  278.59        3346.00           6806        4593.00     20028.23
  278.61        3346.25           6810        3419.00     14905.52
  278.64        3346.50           6814        2713.00     11825.62
  278.67        3346.75           6818        1842.00      8026.65
  278.70        3347.00           6821        1245.00      5423.23
  278.72        3347.25           6825         469.00      2039.79
  278.75        3347.50           6829         126.00       544.47
  278.78        3347.75           6833          39.00       165.21
  278.81        3348.00           6836          33.00       139.06
  278.83        3348.25           6840          32.00       134.70
  278.86        3348.50           6844          26.00       108.54
  278.89        3348.75           6848          31.00       130.34
  278.91        3349.00           6851          28.00       117.26
  278.94        3349.25           6855          31.00       130.34
  278.97        3349.50           6859          32.00       134.70
  279.00        3349.75           6863          30.00       125.98
  279.02        3350.00           6867          29.00       121.62
  279.05        3350.25           6870          35.00       147.78
  279.08        3350.50           6874          34.00       143.42
  279.10        3350.75           6878          28.00       117.26
  279.13        3351.00           6882          33.00       139.06
HL scan finished at 04:39:45
end
