************************************************************
  HL Scan of (1) Internal mercury lamp
************************************************************
Integration time is 0.2294 seconds per sample
dh240219Tamanrasset 22.79-5.529 4.974364pr865
************************************************************
Dead Time -------------------------  2.8E-08 
Number of Cycles Used -------------  4 
Starting Wavelength (Angstroms) ---  3331 
Final Wavelength (Angstoms) -------  3351 
Wavelength Increment (Angstroms) --  .25 
Filter Wheel #1 Position ---------- (1) Ground quartz diffuser (ND=2.32)
Filter Wheel #2 Position ---------- (0) Clear Aperture



************************************************************
HL scan start time = 04:32:42
Dark Count =  4.9 


Time (GMT)  Wavelength (Ang)  Step Number  Raw Counts  Counts/Second

  273.21        3331.00           6581          28.00       100.70
  273.43        3331.25           6585          28.00       100.70
  273.46        3331.50           6589          25.00        87.62
  273.49        3331.75           6593          27.00        96.34
  273.51        3332.00           6596          27.00        96.34
  273.54        3332.25           6600          26.00        91.98
  273.57        3332.50           6604          31.00       113.78
  273.60        3332.75           6608          28.00       100.70
  273.62        3333.00           6611          27.00        96.34
  273.65        3333.25           6615          27.00        96.34
  273.68        3333.50           6619          27.00        96.34
  273.70        3333.75           6623          25.00        87.62
  273.73        3334.00           6626          28.00       100.70
  273.76        3334.25           6630          28.00       100.70
  273.79        3334.50           6634          36.00       135.57
  273.81        3334.75           6638          28.00       100.70
  273.84        3335.00           6641          27.00        96.34
  273.87        3335.25           6645          35.00       131.21
  273.89        3335.50           6649          34.00       126.85
  273.92        3335.75           6653          34.00       126.85
  273.95        3336.00           6656          36.00       135.57
  273.98        3336.25           6660         115.00       479.95
  274.00        3336.50           6664         363.00      1561.10
  274.03        3336.75           6668         594.00      2568.19
  274.06        3337.00           6671        1082.00      4695.91
  274.08        3337.25           6675        2095.00      9113.49
  274.11        3337.50           6679        3333.00     14513.75
  274.14        3337.75           6683        4610.00     20085.84
  274.17        3338.00           6686        5665.00     24690.56
  274.19        3338.25           6690        6985.00     30453.60
  274.22        3338.50           6694        8266.00     36048.13
  274.25        3338.75           6698        9719.00     42395.98
  274.28        3339.00           6701       10735.00     46836.01
  274.30        3339.25           6705       12109.00     52842.30
  274.33        3339.50           6709       13494.00     58898.71
  274.36        3339.75           6713       14817.00     64685.93
  274.38        3340.00           6716       15936.00     69582.25
  274.41        3340.25           6720       17204.00     75132.18
  274.44        3340.50           6724       18536.00     80964.06
  274.47        3340.75           6728       19893.00     86907.39
  274.49        3341.00           6731       20790.00     90837.11
  274.52        3341.25           6735       21765.00     95109.53
  274.55        3341.50           6739       22841.00     99825.71
  274.58        3341.75           6743       23483.00    102640.20
  274.60        3342.00           6746       23580.00    103065.50
  274.63        3342.25           6750       23488.00    102662.20
  274.66        3342.50           6754       22919.00    100167.70
  274.68        3342.75           6758       21793.00     95232.24
  274.71        3343.00           6761       20782.00     90802.06
  274.74        3343.25           6765       19366.00     84599.02
  274.77        3343.50           6769       18113.00     79111.84
  274.79        3343.75           6773       16784.00     73293.68
  274.82        3344.00           6776       15828.00     69109.63
  274.85        3344.25           6780       14591.00     63697.21
  274.88        3344.50           6784       13212.00     57665.40
  274.90        3344.75           6788       11699.00     51049.82
  274.93        3345.00           6791       10744.00     46875.35
  274.96        3345.25           6795        9233.00     40272.50
  274.98        3345.50           6799        7569.00     33003.90
  275.01        3345.75           6803        5816.00     25349.72
  275.04        3346.00           6806        4647.00     20247.31
  275.07        3346.25           6810        3688.00     16062.59
  275.09        3346.50           6814        2841.00     12367.40
  275.12        3346.75           6818        1957.00      8511.62
  275.15        3347.00           6821        1248.00      5419.74
  275.18        3347.25           6825         481.00      2075.54
  275.20        3347.50           6829         113.00       471.24
  275.23        3347.75           6833          42.00       161.73
  275.26        3348.00           6836          32.00       118.13
  275.28        3348.25           6840          32.00       118.13
  275.31        3348.50           6844          28.00       100.70
  275.34        3348.75           6848          29.00       105.06
  275.37        3349.00           6851          29.00       105.06
  275.39        3349.25           6855          28.00       100.70
  275.42        3349.50           6859          34.00       126.85
  275.45        3349.75           6863          30.00       109.42
  275.47        3350.00           6867          29.00       105.06
  275.50        3350.25           6870          31.00       113.78
  275.53        3350.50           6874          31.00       113.78
  275.56        3350.75           6878          30.00       109.42
  275.58        3351.00           6882          27.00        96.34
HL scan finished at 04:36:12
end
