************************************************************
  HL Scan of (1) Internal mercury lamp
************************************************************
Integration time is 0.2294 seconds per sample
dh230219Tamanrasset 22.79-5.529 4.974364pr865
************************************************************
Dead Time -------------------------  2.8E-08 
Number of Cycles Used -------------  4 
Starting Wavelength (Angstroms) ---  3331 
Final Wavelength (Angstoms) -------  3351 
Wavelength Increment (Angstroms) --  .25 
Filter Wheel #1 Position ---------- (1) Ground quartz diffuser (ND=2.32)
Filter Wheel #2 Position ---------- (0) Clear Aperture



************************************************************
HL scan start time = 04:33:58
Dark Count =  5.8 


Time (GMT)  Wavelength (Ang)  Step Number  Raw Counts  Counts/Second

  274.49        3331.00           6581          30.00       105.49
  274.70        3331.25           6585          24.00        79.34
  274.73        3331.50           6589          30.00       105.49
  274.76        3331.75           6593          34.00       122.93
  274.78        3332.00           6596          25.00        83.70
  274.81        3332.25           6600          26.00        88.06
  274.84        3332.50           6604          26.00        88.06
  274.87        3332.75           6608          23.00        74.98
  274.89        3333.00           6611          23.00        74.98
  274.92        3333.25           6615          21.00        66.26
  274.95        3333.50           6619          23.00        74.98
  274.97        3333.75           6623          29.00       101.13
  275.00        3334.00           6626          23.00        74.98
  275.03        3334.25           6630          24.00        79.34
  275.06        3334.50           6634          26.00        88.06
  275.08        3334.75           6638          25.00        83.70
  275.11        3335.00           6641          31.00       109.85
  275.14        3335.25           6645          24.00        79.34
  275.16        3335.50           6649          30.00       105.49
  275.19        3335.75           6653          36.00       131.65
  275.22        3336.00           6656          67.00       266.78
  275.25        3336.25           6660         211.00       894.53
  275.27        3336.50           6664         447.00      1923.38
  275.30        3336.75           6668         847.00      3667.33
  275.33        3337.00           6671        1450.00      6296.66
  275.35        3337.25           6675        2599.00     11307.85
  275.38        3337.50           6679        3902.00     16992.39
  275.41        3337.75           6683        5162.00     22491.06
  275.44        3338.00           6686        6259.00     27279.77
  275.46        3338.25           6690        7628.00     33257.63
  275.49        3338.50           6694        8801.00     38381.25
  275.52        3338.75           6698       10157.00     44306.03
  275.55        3339.00           6701       11222.00     48960.71
  275.57        3339.25           6705       12658.00     55238.82
  275.60        3339.50           6709       13987.00     61051.10
  275.63        3339.75           6713       15491.00     67631.00
  275.66        3340.00           6716       16269.00     71035.66
  275.68        3340.25           6720       17712.00     77352.18
  275.71        3340.50           6724       19052.00     83219.85
  275.74        3340.75           6728       20181.00     88165.06
  275.77        3341.00           6731       21098.00     92182.69
  275.79        3341.25           6735       22135.00     96727.18
  275.82        3341.50           6739       22929.00    100207.50
  275.85        3341.75           6743       23383.00    102197.90
  275.87        3342.00           6746       23385.00    102206.60
  275.90        3342.25           6750       23121.00    101049.20
  275.93        3342.50           6754       22215.00     97077.81
  275.96        3342.75           6758       21071.00     92064.39
  275.98        3343.00           6761       19949.00     87148.75
  276.01        3343.25           6765       18832.00     82256.37
  276.04        3343.50           6769       17548.00     76634.18
  276.07        3343.75           6773       16255.00     70974.40
  276.09        3344.00           6776       15201.00     66362.08
  276.12        3344.25           6780       13941.00     60849.89
  276.15        3344.50           6784       12503.00     54561.06
  276.17        3344.75           6788       11213.00     48921.38
  276.20        3345.00           6791       10117.00     44131.22
  276.23        3345.25           6795        8550.00     37284.76
  276.26        3345.50           6799        6902.00     30087.24
  276.28        3345.75           6803        5348.00     23302.91
  276.31        3346.00           6806        4248.00     18502.17
  276.34        3346.25           6810        3062.00     13327.55
  276.37        3346.50           6814        2292.00      9968.78
  276.39        3346.75           6818        1555.00      6754.55
  276.42        3347.00           6821         899.00      3894.06
  276.45        3347.25           6825         294.00      1256.37
  276.47        3347.50           6829          66.00       262.43
  276.50        3347.75           6833          36.00       131.65
  276.53        3348.00           6836          33.00       118.57
  276.56        3348.25           6840          29.00       101.13
  276.58        3348.50           6844          27.00        92.42
  276.61        3348.75           6848          32.00       114.21
  276.64        3349.00           6851          30.00       105.49
  276.66        3349.25           6855          29.00       101.13
  276.69        3349.50           6859          33.00       118.57
  276.72        3349.75           6863          28.00        96.77
  276.75        3350.00           6867          37.00       136.01
  276.77        3350.25           6870          27.00        92.42
  276.80        3350.50           6874          28.00        96.77
  276.83        3350.75           6878          28.00        96.77
  276.86        3351.00           6882          34.00       122.93
HL scan finished at 04:37:29
end
