************************************************************
  HL Scan of (1) Internal mercury lamp
************************************************************
Integration time is 0.2294 seconds per sample
dh280219Tamanrasset 22.79-5.529 4.974364pr865
************************************************************
Dead Time -------------------------  2.8E-08 
Number of Cycles Used -------------  4 
Starting Wavelength (Angstroms) ---  3331 
Final Wavelength (Angstoms) -------  3351 
Wavelength Increment (Angstroms) --  .25 
Filter Wheel #1 Position ---------- (1) Ground quartz diffuser (ND=2.32)
Filter Wheel #2 Position ---------- (0) Clear Aperture



************************************************************
HL scan start time = 04:29:35
Dark Count =  4.4 


Time (GMT)  Wavelength (Ang)  Step Number  Raw Counts  Counts/Second

  270.09        3331.00           6581          28.00       102.88
  270.31        3331.25           6585          31.00       115.96
  270.33        3331.50           6589          23.00        81.08
  270.36        3331.75           6593          20.00        68.00
  270.39        3332.00           6596          23.00        81.08
  270.42        3332.25           6600          28.00       102.88
  270.44        3332.50           6604          31.00       115.96
  270.47        3332.75           6608          25.00        89.80
  270.50        3333.00           6611          32.00       120.31
  270.52        3333.25           6615          26.00        94.16
  270.55        3333.50           6619          24.00        85.44
  270.58        3333.75           6623          27.00        98.52
  270.61        3334.00           6626          25.00        89.80
  270.63        3334.25           6630          27.00        98.52
  270.66        3334.50           6634          28.00       102.88
  270.69        3334.75           6638          25.00        89.80
  270.71        3335.00           6641          30.00       111.60
  270.74        3335.25           6645          34.00       129.03
  270.77        3335.50           6649          29.00       107.24
  270.80        3335.75           6653          39.00       150.83
  270.82        3336.00           6656          41.00       159.55
  270.85        3336.25           6660         114.00       477.77
  270.88        3336.50           6664         331.00      1423.77
  270.90        3336.75           6668         594.00      2570.37
  270.93        3337.00           6671        1025.00      4449.55
  270.96        3337.25           6675        2081.00      9054.61
  270.99        3337.50           6679        3292.00     14337.05
  271.01        3337.75           6683        4618.00     20122.93
  271.04        3338.00           6686        5539.00     24142.74
  271.07        3338.25           6690        7015.00     30586.78
  271.10        3338.50           6694        8333.00     36342.98
  271.12        3338.75           6698        9630.00     42009.28
  271.15        3339.00           6701       10760.00     46947.46
  271.18        3339.25           6705       11989.00     52319.83
  271.21        3339.50           6709       13343.00     58240.50
  271.23        3339.75           6713       14675.00     64066.88
  271.26        3340.00           6716       15940.00     69601.95
  271.29        3340.25           6720       17182.00     75038.06
  271.31        3340.50           6724       18630.00     81377.90
  271.34        3340.75           6728       19908.00     86975.29
  271.37        3341.00           6731       20797.00     90869.98
  271.40        3341.25           6735       21843.00     95453.56
  271.42        3341.50           6739       23031.00    100660.80
  271.45        3341.75           6743       23385.00    102212.80
  271.48        3342.00           6746       23673.00    103475.50
  271.51        3342.25           6750       23212.00    101454.30
  271.53        3342.50           6754       23012.00    100577.50
  271.56        3342.75           6758       21575.00     94279.07
  271.59        3343.00           6761       20677.00     90344.21
  271.62        3343.25           6765       19446.00     84951.61
  271.64        3343.50           6769       18086.00     78995.81
  271.67        3343.75           6773       16700.00     72928.19
  271.70        3344.00           6776       15793.00     68958.66
  271.73        3344.25           6780       14379.00     62771.96
  271.75        3344.50           6784       12981.00     56657.38
  271.78        3344.75           6788       11636.00     50776.59
  271.81        3345.00           6791       10556.00     46055.87
  271.83        3345.25           6795        9327.00     40685.38
  271.86        3345.50           6799        7497.00     32691.64
  271.89        3345.75           6803        5702.00     24854.26
  271.92        3346.00           6806        4578.00     19948.37
  271.94        3346.25           6810        3585.00     15615.37
  271.97        3346.50           6814        2785.00     12125.30
  272.00        3346.75           6818        1724.00      7497.65
  272.03        3347.00           6821        1083.00      4702.45
  272.05        3347.25           6825         404.00      1742.02
  272.08        3347.50           6829         103.00       429.82
  272.11        3347.75           6833          35.00       133.39
  272.13        3348.00           6836          36.00       137.75
  272.16        3348.25           6840          29.00       107.24
  272.19        3348.50           6844          28.00       102.88
  272.22        3348.75           6848          29.00       107.24
  272.24        3349.00           6851          31.00       115.96
  272.27        3349.25           6855          27.00        98.52
  272.30        3349.50           6859          31.00       115.96
  272.32        3349.75           6863          24.00        85.44
  272.35        3350.00           6867          34.00       129.03
  272.38        3350.25           6870          32.00       120.31
  272.41        3350.50           6874          32.00       120.31
  272.43        3350.75           6878          30.00       111.60
  272.46        3351.00           6882          31.00       115.96
HL scan finished at 04:33:05
end
