************************************************************
  HL Scan of (1) Internal mercury lamp
************************************************************
Integration time is 0.2294 seconds per sample
dh190219Tamanrasset 22.79-5.529 4.974364pr865
************************************************************
Dead Time -------------------------  2.8E-08 
Number of Cycles Used -------------  4 
Starting Wavelength (Angstroms) ---  3331 
Final Wavelength (Angstoms) -------  3351 
Wavelength Increment (Angstroms) --  .25 
Filter Wheel #1 Position ---------- (1) Ground quartz diffuser (ND=2.32)
Filter Wheel #2 Position ---------- (0) Clear Aperture



************************************************************
HL scan start time = 04:37:26
Dark Count =  6.2 


Time (GMT)  Wavelength (Ang)  Step Number  Raw Counts  Counts/Second

  277.94        3331.00           6581          30.00       103.75
  278.16        3331.25           6585          28.00        95.03
  278.18        3331.50           6589          31.00       108.11
  278.21        3331.75           6593          29.00        99.39
  278.24        3332.00           6596          22.00        68.88
  278.27        3332.25           6600          28.00        95.03
  278.29        3332.50           6604          26.00        86.31
  278.32        3332.75           6608          28.00        95.03
  278.35        3333.00           6611          29.00        99.39
  278.37        3333.25           6615          30.00       103.75
  278.40        3333.50           6619          29.00        99.39
  278.43        3333.75           6623          24.00        77.59
  278.46        3334.00           6626          29.00        99.39
  278.48        3334.25           6630          28.00        95.03
  278.51        3334.50           6634          26.00        86.31
  278.54        3334.75           6638          29.00        99.39
  278.57        3335.00           6641          30.00       103.75
  278.59        3335.25           6645          32.00       112.47
  278.62        3335.50           6649          30.00       103.75
  278.65        3335.75           6653          35.00       125.55
  278.67        3336.00           6656          45.00       169.14
  278.70        3336.25           6660         106.00       435.05
  278.73        3336.50           6664         356.00      1524.91
  278.76        3336.75           6668         675.00      2915.67
  278.78        3337.00           6671        1154.00      5004.19
  278.81        3337.25           6675        2193.00      9535.24
  278.84        3337.50           6679        3409.00     14839.64
  278.86        3337.75           6683        4692.00     20438.02
  278.89        3338.00           6686        5817.00     25348.41
  278.92        3338.25           6690        7114.00     31011.22
  278.95        3338.50           6694        8400.00     36627.78
  278.97        3338.75           6698        9726.00     42420.89
  279.00        3339.00           6701       10661.00     46506.91
  279.03        3339.25           6705       12053.00     52591.78
  279.05        3339.50           6709       13532.00     59059.22
  279.08        3339.75           6713       14829.00     64732.74
  279.11        3340.00           6716       15721.00     68635.71
  279.14        3340.25           6720       17176.00     75003.93
  279.16        3340.50           6724       18544.00     80993.41
  279.19        3340.75           6728       19853.00     86726.48
  279.22        3341.00           6731       20791.00     90835.81
  279.25        3341.25           6735       21734.00     94967.99
  279.27        3341.50           6739       22636.00     98921.39
  279.30        3341.75           6743       23368.00    102130.40
  279.33        3342.00           6746       23432.00    102410.90
  279.36        3342.25           6750       23285.00    101766.50
  279.38        3342.50           6754       22615.00     98829.34
  279.41        3342.75           6758       21525.00     94052.06
  279.44        3343.00           6761       20467.00     89416.27
  279.46        3343.25           6765       19142.00     83612.27
  279.49        3343.50           6769       18092.00     79014.20
  279.52        3343.75           6773       16640.00     72657.70
  279.55        3344.00           6776       15590.00     68062.46
  279.57        3344.25           6780       14289.00     62370.38
  279.60        3344.50           6784       12928.00     56417.74
  279.63        3344.75           6788       11517.00     50248.51
  279.66        3345.00           6791       10489.00     45755.19
  279.68        3345.25           6795        9146.00     39886.72
  279.71        3345.50           6799        7346.00     32024.34
  279.74        3345.75           6803        5587.00     24344.40
  279.77        3346.00           6806        4616.00     20106.35
  279.79        3346.25           6810        3572.00     15550.80
  279.82        3346.50           6814        2636.00     11467.50
  279.85        3346.75           6818        1765.00      7668.60
  279.87        3347.00           6821        1106.00      4794.89
  279.90        3347.25           6825         404.00      1734.17
  279.93        3347.50           6829         101.00       413.26
  279.96        3347.75           6833          34.00       121.19
  279.98        3348.00           6836          35.00       125.55
  280.01        3348.25           6840          29.00        99.39
  280.04        3348.50           6844          30.00       103.75
  280.06        3348.75           6848          28.00        95.03
  280.09        3349.00           6851          33.00       116.83
  280.12        3349.25           6855          34.00       121.19
  280.15        3349.50           6859          28.00        95.03
  280.17        3349.75           6863          28.00        95.03
  280.20        3350.00           6867          32.00       112.47
  280.23        3350.25           6870          24.00        77.59
  280.26        3350.50           6874          31.00       108.11
  280.28        3350.75           6878          30.00       103.75
  280.31        3351.00           6882          28.00        95.03
HL scan finished at 04:40:56
end
