************************************************************
  HL Scan of (1) Internal mercury lamp
************************************************************
Integration time is 0.2294 seconds per sample
dh250219Tamanrasset 22.79-5.529 4.974364pr865
************************************************************
Dead Time -------------------------  2.8E-08 
Number of Cycles Used -------------  4 
Starting Wavelength (Angstroms) ---  3331 
Final Wavelength (Angstoms) -------  3351 
Wavelength Increment (Angstroms) --  .25 
Filter Wheel #1 Position ---------- (1) Ground quartz diffuser (ND=2.32)
Filter Wheel #2 Position ---------- (0) Clear Aperture



************************************************************
HL scan start time = 04:32:45
Dark Count =  4 


Time (GMT)  Wavelength (Ang)  Step Number  Raw Counts  Counts/Second

  273.25        3331.00           6581          27.00       100.26
  273.47        3331.25           6585          32.00       122.06
  273.50        3331.50           6589          25.00        91.54
  273.53        3331.75           6593          29.00       108.98
  273.55        3332.00           6596          26.00        95.90
  273.58        3332.25           6600          30.00       113.34
  273.61        3332.50           6604          28.00       104.62
  273.63        3332.75           6608          30.00       113.34
  273.66        3333.00           6611          31.00       117.70
  273.69        3333.25           6615          27.00       100.26
  273.72        3333.50           6619          25.00        91.54
  273.74        3333.75           6623          29.00       108.98
  273.77        3334.00           6626          24.00        87.18
  273.80        3334.25           6630          26.00        95.90
  273.82        3334.50           6634          30.00       113.34
  273.85        3334.75           6638          28.00       104.62
  273.88        3335.00           6641          23.00        82.82
  273.91        3335.25           6645          29.00       108.98
  273.93        3335.50           6649          33.00       126.42
  273.96        3335.75           6653          36.00       139.49
  273.99        3336.00           6656          59.00       239.76
  274.01        3336.25           6660         153.00       649.53
  274.04        3336.50           6664         338.00      1456.03
  274.07        3336.75           6668         744.00      3226.10
  274.10        3337.00           6671        1277.00      5550.12
  274.12        3337.25           6675        2440.00     10622.17
  274.15        3337.50           6679        3694.00     16092.69
  274.18        3337.75           6683        4962.00     21626.00
  274.20        3338.00           6686        5988.00     26104.52
  274.23        3338.25           6690        7316.00     31902.94
  274.26        3338.50           6694        8798.00     38376.01
  274.29        3338.75           6698       10018.00     43706.46
  274.32        3339.00           6701       10982.00     47919.53
  274.34        3339.25           6705       12333.00     53825.61
  274.37        3339.50           6709       13792.00     60206.03
  274.40        3339.75           6713       15123.00     66028.68
  274.42        3340.00           6716       16219.00     70824.71
  274.45        3340.25           6720       17445.00     76191.15
  274.48        3340.50           6724       18875.00     82452.56
  274.51        3340.75           6728       20020.00     87467.68
  274.53        3341.00           6731       21168.00     92497.32
  274.56        3341.25           6735       22049.00     96358.15
  274.59        3341.50           6739       23130.00    101096.60
  274.62        3341.75           6743       23707.00    103626.30
  274.64        3342.00           6746       23789.00    103985.90
  274.67        3342.25           6750       23415.00    102346.10
  274.70        3342.50           6754       22537.00     98497.09
  274.73        3342.75           6758       21203.00     92650.69
  274.75        3343.00           6761       20148.00     88028.39
  274.78        3343.25           6765       19047.00     83205.83
  274.81        3343.50           6769       17830.00     77876.70
  274.83        3343.75           6773       16316.00     71249.24
  274.86        3344.00           6776       15391.00     67201.31
  274.89        3344.25           6780       14059.00     61373.91
  274.92        3344.50           6784       12647.00     55198.59
  274.94        3344.75           6788       11357.00     49558.70
  274.97        3345.00           6791       10170.00     44370.70
  275.00        3345.25           6795        8750.00     38166.31
  275.03        3345.50           6799        6993.00     30492.46
  275.05        3345.75           6803        5383.00     23463.54
  275.08        3346.00           6806        4338.00     18902.77
  275.11        3346.25           6810        3295.00     14351.89
  275.13        3346.50           6814        2356.00     10255.78
  275.16        3346.75           6818        1543.00      6710.07
  275.19        3347.00           6821         887.00      3849.59
  275.22        3347.25           6825         293.00      1259.85
  275.24        3347.50           6829          62.00       252.84
  275.27        3347.75           6833          32.00       122.06
  275.30        3348.00           6836          37.00       143.85
  275.32        3348.25           6840          24.00        87.18
  275.35        3348.50           6844          31.00       117.70
  275.38        3348.75           6848          31.00       117.70
  275.41        3349.00           6851          29.00       108.98
  275.43        3349.25           6855          29.00       108.98
  275.46        3349.50           6859          29.00       108.98
  275.49        3349.75           6863          28.00       104.62
  275.51        3350.00           6867          32.00       122.06
  275.54        3350.25           6870          26.00        95.90
  275.57        3350.50           6874          26.00        95.90
  275.60        3350.75           6878          26.00        95.90
  275.62        3351.00           6882          25.00        91.54
HL scan finished at 04:36:15
end
