************************************************************
  HL Scan of (1) Internal mercury lamp
************************************************************
Integration time is 0.2294 seconds per sample
dh220219Tamanrasset 22.79-5.529 4.974364pr865
************************************************************
Dead Time -------------------------  2.8E-08 
Number of Cycles Used -------------  4 
Starting Wavelength (Angstroms) ---  3331 
Final Wavelength (Angstoms) -------  3351 
Wavelength Increment (Angstroms) --  .25 
Filter Wheel #1 Position ---------- (1) Ground quartz diffuser (ND=2.32)
Filter Wheel #2 Position ---------- (0) Clear Aperture



************************************************************
HL scan start time = 04:34:57
Dark Count =  2.4 


Time (GMT)  Wavelength (Ang)  Step Number  Raw Counts  Counts/Second

  275.45        3331.00           6581          27.00       107.24
  275.67        3331.25           6585          27.00       107.24
  275.70        3331.50           6589          19.00        72.36
  275.73        3331.75           6593          33.00       133.39
  275.76        3332.00           6596          22.00        85.44
  275.78        3332.25           6600          27.00       107.24
  275.81        3332.50           6604          24.00        94.16
  275.84        3332.75           6608          28.00       111.60
  275.86        3333.00           6611          30.00       120.31
  275.89        3333.25           6615          28.00       111.60
  275.92        3333.50           6619          30.00       120.31
  275.94        3333.75           6623          29.00       115.96
  275.97        3334.00           6626          25.00        98.52
  276.00        3334.25           6630          29.00       115.96
  276.03        3334.50           6634          34.00       137.75
  276.05        3334.75           6638          32.00       129.03
  276.08        3335.00           6641          27.00       107.24
  276.11        3335.25           6645          33.00       133.39
  276.14        3335.50           6649          31.00       124.67
  276.16        3335.75           6653          35.00       142.11
  276.19        3336.00           6656          40.00       163.91
  276.22        3336.25           6660         120.00       512.65
  276.24        3336.50           6664         399.00      1728.94
  276.27        3336.75           6668         583.00      2531.13
  276.30        3337.00           6671        1010.00      4392.87
  276.33        3337.25           6675        1973.00      8592.30
  276.35        3337.50           6679        3162.00     13778.64
  276.38        3337.75           6683        4460.00     19442.15
  276.41        3338.00           6686        5437.00     23706.23
  276.43        3338.25           6690        6778.00     29560.64
  276.46        3338.50           6694        8182.00     35692.15
  276.49        3338.75           6698        9448.00     41222.79
  276.52        3339.00           6701       10483.00     45745.57
  276.54        3339.25           6705       11788.00     51449.83
  276.57        3339.50           6709       13173.00     57505.77
  276.60        3339.75           6713       14619.00     63830.64
  276.63        3340.00           6716       15613.00     68179.73
  276.65        3340.25           6720       16807.00     73405.30
  276.68        3340.50           6724       18178.00     79407.40
  276.71        3340.75           6728       19673.00     85954.66
  276.73        3341.00           6731       20481.00     89494.25
  276.76        3341.25           6735       21699.00     94831.25
  276.79        3341.50           6739       22668.00     99078.32
  276.82        3341.75           6743       23211.00    101458.70
  276.84        3342.00           6746       23455.00    102528.40
  276.87        3342.25           6750       23523.00    102826.60
  276.90        3342.50           6754       22738.00     99385.16
  276.93        3342.75           6758       21499.00     93954.78
  276.95        3343.00           6761       20662.00     90287.26
  276.98        3343.25           6765       19426.00     84872.78
  277.01        3343.50           6769       18153.00     79297.93
  277.04        3343.75           6773       16664.00     72779.38
  277.06        3344.00           6776       15829.00     69124.95
  277.09        3344.25           6780       14534.00     63458.78
  277.12        3344.50           6784       13096.00     57169.04
  277.15        3344.75           6788       11799.00     51497.92
  277.17        3345.00           6791       10699.00     46689.60
  277.20        3345.25           6795        9265.00     40423.24
  277.23        3345.50           6799        7633.00     33294.32
  277.25        3345.75           6803        5870.00     25596.37
  277.28        3346.00           6806        4720.00     20576.81
  277.31        3346.25           6810        3536.00     15410.31
  277.34        3346.50           6814        2588.00     11274.70
  277.36        3346.75           6818        1831.00      7973.01
  277.39        3347.00           6821        1210.00      5264.94
  277.42        3347.25           6825         485.00      2103.87
  277.44        3347.50           6829         125.00       534.45
  277.47        3347.75           6833          34.00       137.75
  277.50        3348.00           6836          36.00       146.47
  277.53        3348.25           6840          32.00       129.03
  277.55        3348.50           6844          29.00       115.96
  277.58        3348.75           6848          33.00       133.39
  277.61        3349.00           6851          28.00       111.60
  277.63        3349.25           6855          26.00       102.88
  277.66        3349.50           6859          29.00       115.96
  277.69        3349.75           6863          31.00       124.67
  277.72        3350.00           6867          23.00        89.80
  277.74        3350.25           6870          29.00       115.96
  277.77        3350.50           6874          27.00       107.24
  277.80        3350.75           6878          32.00       129.03
  277.83        3351.00           6882          30.00       120.31
HL scan finished at 04:38:27
end
