************************************************************
  HL Scan of (1) Internal mercury lamp
************************************************************
Integration time is 0.2294 seconds per sample
dh100319Tamanrasset 22.79-5.529 4.974364pr865
************************************************************
Dead Time -------------------------  2.8E-08 
Number of Cycles Used -------------  4 
Starting Wavelength (Angstroms) ---  3331 
Final Wavelength (Angstoms) -------  3351 
Wavelength Increment (Angstroms) --  .25 
Filter Wheel #1 Position ---------- (1) Ground quartz diffuser (ND=2.32)
Filter Wheel #2 Position ---------- (0) Clear Aperture



************************************************************
HL scan start time = 04:20:40
Dark Count =  4.4 


Time (GMT)  Wavelength (Ang)  Step Number  Raw Counts  Counts/Second

  261.17        3331.00           6581          28.00       102.88
  261.39        3331.25           6585          28.00       102.88
  261.42        3331.50           6589          27.00        98.52
  261.44        3331.75           6593          24.00        85.44
  261.47        3332.00           6596          28.00       102.88
  261.50        3332.25           6600          25.00        89.80
  261.53        3332.50           6604          31.00       115.96
  261.55        3332.75           6608          27.00        98.52
  261.58        3333.00           6611          29.00       107.24
  261.61        3333.25           6615          30.00       111.60
  261.63        3333.50           6619          26.00        94.16
  261.66        3333.75           6623          29.00       107.24
  261.69        3334.00           6626          28.00       102.88
  261.72        3334.25           6630          26.00        94.16
  261.74        3334.50           6634          26.00        94.16
  261.77        3334.75           6638          22.00        76.72
  261.80        3335.00           6641          30.00       111.60
  261.82        3335.25           6645          35.00       133.39
  261.85        3335.50           6649          27.00        98.52
  261.88        3335.75           6653          36.00       137.75
  261.91        3336.00           6656          37.00       142.11
  261.93        3336.25           6660         119.00       499.57
  261.96        3336.50           6664         255.00      1092.45
  261.99        3336.75           6668         476.00      2055.92
  262.01        3337.00           6671         861.00      3734.48
  262.04        3337.25           6675        1804.00      7846.54
  262.07        3337.50           6679        3022.00     13159.16
  262.10        3337.75           6683        4257.00     18547.56
  262.12        3338.00           6686        5267.00     22955.47
  262.15        3338.25           6690        6549.00     28552.02
  262.18        3338.50           6694        7943.00     34639.51
  262.20        3338.75           6698        9292.00     40532.46
  262.23        3339.00           6701       10351.00     45159.94
  262.26        3339.25           6705       11741.00     51235.61
  262.29        3339.50           6709       13126.00     57291.48
  262.31        3339.75           6713       14458.00     63117.55
  262.34        3340.00           6716       15469.00     67540.86
  262.37        3340.25           6720       16948.00     74013.73
  262.40        3340.50           6724       18305.00     79954.74
  262.42        3340.75           6728       19514.00     85249.46
  262.45        3341.00           6731       20457.00     89380.34
  262.48        3341.25           6735       21543.00     94138.84
  262.50        3341.50           6739       22645.00     98968.74
  262.53        3341.75           6743       23309.00    101879.60
  262.56        3342.00           6746       23561.00    102984.40
  262.59        3342.25           6750       23488.00    102664.40
  262.61        3342.50           6754       22993.00    100494.20
  262.64        3342.75           6758       21970.00     96010.15
  262.67        3343.00           6761       20890.00     91277.46
  262.70        3343.25           6765       19782.00     86423.36
  262.72        3343.50           6769       18344.00     80125.51
  262.75        3343.75           6773       17141.00     74858.57
  262.78        3344.00           6776       15951.00     69650.08
  262.81        3344.25           6780       14722.00     64272.49
  262.83        3344.50           6784       13394.00     58463.55
  262.86        3344.75           6788       11889.00     51882.64
  262.89        3345.00           6791       10868.00     47419.50
  262.91        3345.25           6795        9558.00     41694.68
  262.94        3345.50           6799        7786.00     33953.80
  262.97        3345.75           6803        6059.00     26412.73
  263.00        3346.00           6806        4924.00     21458.40
  263.02        3346.25           6810        3810.00     16597.08
  263.05        3346.50           6814        2667.00     11610.58
  263.08        3346.75           6818        2054.00      8936.85
  263.11        3347.00           6821        1349.00      5862.34
  263.13        3347.25           6825         525.00      2269.54
  263.16        3347.50           6829         145.00       612.91
  263.19        3347.75           6833          39.00       150.83
  263.21        3348.00           6836          34.00       129.03
  263.24        3348.25           6840          33.00       124.67
  263.27        3348.50           6844          33.00       124.67
  263.30        3348.75           6848          27.00        98.52
  263.32        3349.00           6851          31.00       115.96
  263.35        3349.25           6855          31.00       115.96
  263.38        3349.50           6859          29.00       107.24
  263.40        3349.75           6863          30.00       111.60
  263.43        3350.00           6867          32.00       120.31
  263.46        3350.25           6870          23.00        81.08
  263.49        3350.50           6874          29.00       107.24
  263.51        3350.75           6878          33.00       124.67
  263.54        3351.00           6882          31.00       115.96
HL scan finished at 04:24:10
end
