************************************************************
  HL Scan of (1) Internal mercury lamp
************************************************************
Integration time is 0.2294 seconds per sample
dh030319Tamanrasset 22.79-5.529 4.974364pr865
************************************************************
Dead Time -------------------------  2.8E-08 
Number of Cycles Used -------------  4 
Starting Wavelength (Angstroms) ---  3331 
Final Wavelength (Angstoms) -------  3351 
Wavelength Increment (Angstroms) --  .25 
Filter Wheel #1 Position ---------- (1) Ground quartz diffuser (ND=2.32)
Filter Wheel #2 Position ---------- (0) Clear Aperture



************************************************************
HL scan start time = 04:26:34
Dark Count =  6 


Time (GMT)  Wavelength (Ang)  Step Number  Raw Counts  Counts/Second

  267.08        3331.00           6581          27.00        91.54
  267.30        3331.25           6585          25.00        82.82
  267.33        3331.50           6589          30.00       104.62
  267.36        3331.75           6593          26.00        87.18
  267.38        3332.00           6596          28.00        95.90
  267.41        3332.25           6600          24.00        78.47
  267.44        3332.50           6604          24.00        78.47
  267.47        3332.75           6608          26.00        87.18
  267.49        3333.00           6611          28.00        95.90
  267.52        3333.25           6615          22.00        69.75
  267.55        3333.50           6619          30.00       104.62
  267.57        3333.75           6623          31.00       108.98
  267.60        3334.00           6626          28.00        95.90
  267.63        3334.25           6630          25.00        82.82
  267.66        3334.50           6634          26.00        87.18
  267.68        3334.75           6638          25.00        82.82
  267.71        3335.00           6641          27.00        91.54
  267.74        3335.25           6645          31.00       108.98
  267.76        3335.50           6649          34.00       122.06
  267.79        3335.75           6653          37.00       135.14
  267.82        3336.00           6656          47.00       178.73
  267.85        3336.25           6660         153.00       640.81
  267.87        3336.50           6664         472.00      2031.50
  267.90        3336.75           6668         692.00      2990.66
  267.93        3337.00           6671        1207.00      5236.16
  267.95        3337.25           6675        2251.00      9789.08
  267.98        3337.50           6679        3455.00     15041.21
  268.01        3337.75           6683        4844.00     21102.27
  268.04        3338.00           6686        5759.00     25096.10
  268.06        3338.25           6690        7180.00     31300.31
  268.09        3338.50           6694        8562.00     37336.31
  268.12        3338.75           6698        9828.00     42867.47
  268.15        3339.00           6701       10771.00     46988.55
  268.17        3339.25           6705       12231.00     53370.89
  268.20        3339.50           6709       13489.00     58872.03
  268.23        3339.75           6713       14947.00     65249.88
  268.25        3340.00           6716       16101.00     70299.53
  268.28        3340.25           6720       17267.00     75403.15
  268.31        3340.50           6724       18747.00     81883.25
  268.34        3340.75           6728       19956.00     87178.55
  268.36        3341.00           6731       21111.00     92238.79
  268.39        3341.25           6735       22058.00     96388.82
  268.42        3341.50           6739       22996.00    100500.40
  268.45        3341.75           6743       23483.00    102635.40
  268.47        3342.00           6746       23628.00    103271.20
  268.50        3342.25           6750       23289.00    101784.90
  268.53        3342.50           6754       22687.00     99145.83
  268.56        3342.75           6758       21425.00     93614.72
  268.58        3343.00           6761       20561.00     89828.97
  268.61        3343.25           6765       19247.00     84073.00
  268.64        3343.50           6769       17788.00     77684.05
  268.67        3343.75           6773       16578.00     72387.21
  268.69        3344.00           6776       15512.00     67722.03
  268.72        3344.25           6780       14340.00     62594.36
  268.75        3344.50           6784       12844.00     56051.29
  268.77        3344.75           6788       11467.00     50030.81
  268.80        3345.00           6791       10349.00     45144.21
  268.83        3345.25           6795        9009.00     39289.06
  268.86        3345.50           6799        7303.00     31837.44
  268.88        3345.75           6803        5668.00     24698.85
  268.91        3346.00           6806        4421.00     19256.24
  268.94        3346.25           6810        3251.00     14151.20
  268.97        3346.50           6814        2315.00     10068.23
  268.99        3346.75           6818        1569.00      6814.73
  269.02        3347.00           6821         969.00      4198.40
  269.05        3347.25           6825         331.00      1416.80
  269.07        3347.50           6829          69.00       274.63
  269.10        3347.75           6833          34.00       122.06
  269.13        3348.00           6836          29.00       100.26
  269.16        3348.25           6840          32.00       113.34
  269.18        3348.50           6844          29.00       100.26
  269.21        3348.75           6848          29.00       100.26
  269.24        3349.00           6851          28.00        95.90
  269.26        3349.25           6855          33.00       117.70
  269.29        3349.50           6859          32.00       113.34
  269.32        3349.75           6863          34.00       122.06
  269.35        3350.00           6867          36.00       130.78
  269.37        3350.25           6870          33.00       117.70
  269.40        3350.50           6874          33.00       117.70
  269.43        3350.75           6878          38.00       139.49
  269.45        3351.00           6882          31.00       108.98
HL scan finished at 04:30:05
end
