************************************************************
  HL Scan of (1) Internal mercury lamp
************************************************************
Integration time is 0.2294 seconds per sample
dh050319Tamanrasset 22.79-5.529 4.974364pr865
************************************************************
Dead Time -------------------------  2.8E-08 
Number of Cycles Used -------------  4 
Starting Wavelength (Angstroms) ---  3331 
Final Wavelength (Angstoms) -------  3351 
Wavelength Increment (Angstroms) --  .25 
Filter Wheel #1 Position ---------- (1) Ground quartz diffuser (ND=2.32)
Filter Wheel #2 Position ---------- (0) Clear Aperture



************************************************************
HL scan start time = 04:25:36
Dark Count =  5.2 


Time (GMT)  Wavelength (Ang)  Step Number  Raw Counts  Counts/Second

  266.11        3331.00           6581          28.00        99.39
  266.32        3331.25           6585          28.00        99.39
  266.35        3331.50           6589          19.00        60.16
  266.38        3331.75           6593          32.00       116.83
  266.41        3332.00           6596          27.00        95.03
  266.43        3332.25           6600          25.00        86.31
  266.46        3332.50           6604          28.00        99.39
  266.49        3332.75           6608          28.00        99.39
  266.51        3333.00           6611          31.00       112.47
  266.54        3333.25           6615          26.00        90.67
  266.57        3333.50           6619          24.00        81.95
  266.60        3333.75           6623          25.00        86.31
  266.62        3334.00           6626          26.00        90.67
  266.65        3334.25           6630          33.00       121.19
  266.68        3334.50           6634          31.00       112.47
  266.71        3334.75           6638          24.00        81.95
  266.73        3335.00           6641          28.00        99.39
  266.76        3335.25           6645          30.00       108.11
  266.79        3335.50           6649          35.00       129.90
  266.81        3335.75           6653          38.00       142.98
  266.84        3336.00           6656          75.00       304.27
  266.87        3336.25           6660         186.00       788.16
  266.90        3336.50           6664         342.00      1468.24
  266.92        3336.75           6668         772.00      3342.95
  266.95        3337.00           6671        1381.00      5998.39
  266.98        3337.25           6675        2568.00     11175.25
  267.01        3337.50           6679        3925.00     17095.37
  267.03        3337.75           6683        5138.00     22388.92
  267.06        3338.00           6686        6164.00     26867.63
  267.09        3338.25           6690        7495.00     32679.41
  267.12        3338.50           6694        8886.00     38755.20
  267.14        3338.75           6698       10163.00     44334.87
  267.17        3339.00           6701       11160.00     48692.33
  267.20        3339.25           6705       12476.00     54445.63
  267.22        3339.50           6709       13912.00     60725.66
  267.25        3339.75           6713       15177.00     66259.71
  267.28        3340.00           6716       16269.00     71038.28
  267.31        3340.25           6720       17594.00     76838.20
  267.33        3340.50           6724       18909.00     82596.22
  267.36        3340.75           6728       20293.00     88658.35
  267.39        3341.00           6731       20961.00     91585.04
  267.42        3341.25           6735       22078.00     96479.99
  267.44        3341.50           6739       22961.00    100350.50
  267.47        3341.75           6743       23543.00    102902.00
  267.50        3342.00           6746       23461.00    102542.50
  267.53        3342.25           6750       23189.00    101350.00
  267.55        3342.50           6754       22417.00     97965.84
  267.58        3342.75           6758       21224.00     92737.46
  267.61        3343.00           6761       20206.00     88277.22
  267.63        3343.25           6765       18960.00     82819.56
  267.66        3343.50           6769       17637.00     77026.46
  267.69        3343.75           6773       16262.00     71007.65
  267.72        3344.00           6776       15317.00     66872.27
  267.74        3344.25           6780       13936.00     60830.64
  267.77        3344.50           6784       12623.00     55088.40
  267.80        3344.75           6788       11173.00     48749.15
  267.83        3345.00           6791       10007.00     43653.15
  267.85        3345.25           6795        8685.00     37877.11
  267.88        3345.50           6799        7014.00     30578.92
  267.91        3345.75           6803        5204.00     22676.99
  267.94        3346.00           6806        4125.00     17968.06
  267.96        3346.25           6810        3229.00     14058.72
  267.99        3346.50           6814        2475.00     10769.60
  268.02        3346.75           6818        1582.00      6874.91
  268.05        3347.00           6821         894.00      3874.88
  268.07        3347.25           6825         298.00      1276.42
  268.10        3347.50           6829          69.00       278.12
  268.13        3347.75           6833          34.00       125.55
  268.15        3348.00           6836          28.00        99.39
  268.18        3348.25           6840          30.00       108.11
  268.21        3348.50           6844          30.00       108.11
  268.23        3348.75           6848          26.00        90.67
  268.26        3349.00           6851          31.00       112.47
  268.29        3349.25           6855          35.00       129.90
  268.32        3349.50           6859          34.00       125.55
  268.34        3349.75           6863          30.00       108.11
  268.37        3350.00           6867          31.00       112.47
  268.40        3350.25           6870          32.00       116.83
  268.42        3350.50           6874          33.00       121.19
  268.45        3350.75           6878          27.00        95.03
  268.48        3351.00           6882          29.00       103.75
HL scan finished at 04:29:06
end
