************************************************************
  HL Scan of (1) Internal mercury lamp
************************************************************
Integration time is 0.2294 seconds per sample
dh040319Tamanrasset 22.79-5.529 4.974364pr865
************************************************************
Dead Time -------------------------  2.8E-08 
Number of Cycles Used -------------  4 
Starting Wavelength (Angstroms) ---  3331 
Final Wavelength (Angstoms) -------  3351 
Wavelength Increment (Angstroms) --  .25 
Filter Wheel #1 Position ---------- (1) Ground quartz diffuser (ND=2.32)
Filter Wheel #2 Position ---------- (0) Clear Aperture



************************************************************
HL scan start time = 04:26:36
Dark Count =  3.4 


Time (GMT)  Wavelength (Ang)  Step Number  Raw Counts  Counts/Second

  267.10        3331.00           6581          29.00       111.60
  267.32        3331.25           6585          32.00       124.67
  267.35        3331.50           6589          27.00       102.88
  267.38        3331.75           6593          27.00       102.88
  267.40        3332.00           6596          29.00       111.60
  267.43        3332.25           6600          27.00       102.88
  267.46        3332.50           6604          33.00       129.03
  267.48        3332.75           6608          32.00       124.67
  267.51        3333.00           6611          24.00        89.80
  267.54        3333.25           6615          28.00       107.24
  267.57        3333.50           6619          24.00        89.80
  267.59        3333.75           6623          26.00        98.52
  267.62        3334.00           6626          28.00       107.24
  267.65        3334.25           6630          27.00       102.88
  267.67        3334.50           6634          26.00        98.52
  267.70        3334.75           6638          31.00       120.31
  267.73        3335.00           6641          24.00        89.80
  267.76        3335.25           6645          35.00       137.75
  267.78        3335.50           6649          28.00       107.24
  267.81        3335.75           6653          31.00       120.31
  267.84        3336.00           6656          43.00       172.63
  267.86        3336.25           6660         145.00       617.27
  267.89        3336.50           6664         435.00      1881.53
  267.92        3336.75           6668         693.00      3006.36
  267.95        3337.00           6671        1191.00      5177.73
  267.97        3337.25           6675        2272.00      9892.02
  268.00        3337.50           6679        3515.00     15314.33
  268.03        3337.75           6683        4830.00     21052.51
  268.06        3338.00           6686        5710.00     24893.55
  268.08        3338.25           6690        7256.00     31643.55
  268.11        3338.50           6694        8553.00     37308.35
  268.14        3338.75           6698        9863.00     43031.76
  268.16        3339.00           6701       10952.00     47791.03
  268.19        3339.25           6705       12104.00     52826.99
  268.22        3339.50           6709       13484.00     58861.54
  268.25        3339.75           6713       14989.00     65445.01
  268.27        3340.00           6716       15952.00     69658.84
  268.30        3340.25           6720       17451.00     76220.03
  268.33        3340.50           6724       18666.00     81539.93
  268.36        3340.75           6728       19973.00     87264.40
  268.38        3341.00           6731       20926.00     91439.57
  268.41        3341.25           6735       21864.00     95549.97
  268.44        3341.50           6739       22556.00     98582.99
  268.46        3341.75           6743       23271.00    101717.40
  268.49        3342.00           6746       23324.00    101949.70
  268.52        3342.25           6750       23248.00    101616.50
  268.55        3342.50           6754       22727.00     99332.56
  268.57        3342.75           6758       21339.00     93249.25
  268.60        3343.00           6761       20416.00     89205.09
  268.63        3343.25           6765       18950.00     82783.65
  268.66        3343.50           6769       17846.00     77949.37
  268.68        3343.75           6773       16463.00     71895.25
  268.71        3344.00           6776       15608.00     68153.47
  268.74        3344.25           6780       14229.00     62120.17
  268.77        3344.50           6784       12832.00     56010.18
  268.79        3344.75           6788       11406.00     49775.51
  268.82        3345.00           6791       10426.00     45492.09
  268.85        3345.25           6795        9005.00     39282.94
  268.87        3345.50           6799        7424.00     32377.20
  268.90        3345.75           6803        5592.00     24378.45
  268.93        3346.00           6806        4359.00     18997.03
  268.96        3346.25           6810        3270.00     14245.44
  268.98        3346.50           6814        2501.00     10890.85
  269.01        3346.75           6818        1728.00      7519.46
  269.04        3347.00           6821        1063.00      4619.60
  269.07        3347.25           6825         405.00      1750.74
  269.09        3347.50           6829          93.00       390.59
  269.12        3347.75           6833          35.00       137.75
  269.15        3348.00           6836          31.00       120.31
  269.17        3348.25           6840          30.00       115.96
  269.20        3348.50           6844          30.00       115.96
  269.23        3348.75           6848          26.00        98.52
  269.26        3349.00           6851          29.00       111.60
  269.28        3349.25           6855          34.00       133.39
  269.31        3349.50           6859          25.00        94.16
  269.34        3349.75           6863          30.00       115.96
  269.36        3350.00           6867          28.00       107.24
  269.39        3350.25           6870          29.00       111.60
  269.42        3350.50           6874          32.00       124.67
  269.45        3350.75           6878          28.00       107.24
  269.47        3351.00           6882          27.00       102.88
HL scan finished at 04:30:06
end
