************************************************************
  HL Scan of (1) Internal mercury lamp
************************************************************
Integration time is 0.2294 seconds per sample
dh080319Tamanrasset 22.79-5.529 4.974364pr865
************************************************************
Dead Time -------------------------  2.8E-08 
Number of Cycles Used -------------  4 
Starting Wavelength (Angstroms) ---  3331 
Final Wavelength (Angstoms) -------  3351 
Wavelength Increment (Angstroms) --  .25 
Filter Wheel #1 Position ---------- (1) Ground quartz diffuser (ND=2.32)
Filter Wheel #2 Position ---------- (0) Clear Aperture



************************************************************
HL scan start time = 04:23:07
Dark Count =  4.7 


Time (GMT)  Wavelength (Ang)  Step Number  Raw Counts  Counts/Second

  263.62        3331.00           6581          23.00        79.77
  263.84        3331.25           6585          29.00       105.93
  263.87        3331.50           6589          22.00        75.41
  263.89        3331.75           6593          27.00        97.21
  263.92        3332.00           6596          31.00       114.65
  263.95        3332.25           6600          31.00       114.65
  263.98        3332.50           6604          34.00       127.72
  264.00        3332.75           6608          25.00        88.49
  264.03        3333.00           6611          35.00       132.08
  264.06        3333.25           6615          22.00        75.41
  264.08        3333.50           6619          33.00       123.37
  264.11        3333.75           6623          25.00        88.49
  264.14        3334.00           6626          27.00        97.21
  264.17        3334.25           6630          25.00        88.49
  264.19        3334.50           6634          27.00        97.21
  264.22        3334.75           6638          27.00        97.21
  264.25        3335.00           6641          28.00       101.57
  264.27        3335.25           6645          25.00        88.49
  264.30        3335.50           6649          33.00       123.37
  264.33        3335.75           6653          36.00       136.44
  264.36        3336.00           6656          72.00       293.38
  264.38        3336.25           6660         189.00       803.42
  264.41        3336.50           6664         400.00      1723.27
  264.44        3336.75           6668         839.00      3637.25
  264.46        3337.00           6671        1472.00      6397.40
  264.49        3337.25           6675        2603.00     11330.10
  264.52        3337.50           6679        3880.00     16901.20
  264.55        3337.75           6683        5137.00     22386.74
  264.57        3338.00           6686        6152.00     26817.43
  264.60        3338.25           6690        7619.00     33223.13
  264.63        3338.50           6694        8808.00     38416.63
  264.66        3338.75           6698       10208.00     44533.71
  264.68        3339.00           6701       11257.00     49118.51
  264.71        3339.25           6705       12579.00     54898.19
  264.74        3339.50           6709       14030.00     61243.99
  264.77        3339.75           6713       15250.00     66581.29
  264.79        3340.00           6716       16348.00     71386.23
  264.82        3340.25           6720       17584.00     76796.61
  264.85        3340.50           6724       19076.00     83329.78
  264.87        3340.75           6728       20293.00     88660.55
  264.90        3341.00           6731       21361.00     93339.97
  264.93        3341.25           6735       22316.00     97525.32
  264.96        3341.50           6739       23169.00    101264.50
  264.98        3341.75           6743       23489.00    102667.40
  265.01        3342.00           6746       23612.00    103206.70
  265.04        3342.25           6750       23074.00    100848.00
  265.07        3342.50           6754       22125.00     96688.18
  265.09        3342.75           6758       20952.00     91547.79
  265.12        3343.00           6761       19803.00     86514.02
  265.15        3343.25           6765       18506.00     80833.59
  265.18        3343.50           6769       17199.00     75111.16
  265.20        3343.75           6773       15959.00     69683.78
  265.23        3344.00           6776       14975.00     65378.07
  265.26        3344.25           6780       13608.00     59398.18
  265.28        3344.50           6784       12342.00     53861.91
  265.31        3344.75           6788       10922.00     47654.22
  265.34        3345.00           6791        9888.00     43135.33
  265.37        3345.25           6795        8461.00     36900.79
  265.39        3345.50           6799        6656.00     29017.90
  265.42        3345.75           6803        4842.00     21099.21
  265.45        3346.00           6806        3718.00     16194.35
  265.48        3346.25           6810        2912.00     12678.00
  265.50        3346.50           6814        2076.00      9031.49
  265.53        3346.75           6818        1294.00      5621.20
  265.56        3347.00           6821         694.00      3005.05
  265.58        3347.25           6825         209.00       890.61
  265.61        3347.50           6829          41.00       158.24
  265.64        3347.75           6833          35.00       132.08
  265.67        3348.00           6836          28.00       101.57
  265.69        3348.25           6840          32.00       119.01
  265.72        3348.50           6844          39.00       149.52
  265.75        3348.75           6848          32.00       119.01
  265.77        3349.00           6851          30.00       110.29
  265.80        3349.25           6855          34.00       127.72
  265.83        3349.50           6859          34.00       127.72
  265.86        3349.75           6863          31.00       114.65
  265.88        3350.00           6867          30.00       110.29
  265.91        3350.25           6870          28.00       101.57
  265.94        3350.50           6874          25.00        88.49
  265.96        3350.75           6878          26.00        92.85
  265.99        3351.00           6882          32.00       119.01
HL scan finished at 04:26:37
end
