************************************************************
  HL Scan of (1) Internal mercury lamp
************************************************************
Integration time is 0.2294 seconds per sample
dh060319Tamanrasset 22.79-5.529 4.974364pr865
************************************************************
Dead Time -------------------------  2.8E-08 
Number of Cycles Used -------------  4 
Starting Wavelength (Angstroms) ---  3331 
Final Wavelength (Angstoms) -------  3351 
Wavelength Increment (Angstroms) --  .25 
Filter Wheel #1 Position ---------- (1) Ground quartz diffuser (ND=2.32)
Filter Wheel #2 Position ---------- (0) Clear Aperture



************************************************************
HL scan start time = 04:24:35
Dark Count =  7.6 


Time (GMT)  Wavelength (Ang)  Step Number  Raw Counts  Counts/Second

  265.10        3331.00           6581          27.00        84.57
  265.32        3331.25           6585          28.00        88.93
  265.34        3331.50           6589          27.00        84.57
  265.37        3331.75           6593          29.00        93.29
  265.40        3332.00           6596          33.00       110.72
  265.42        3332.25           6600          26.00        80.21
  265.45        3332.50           6604          26.00        80.21
  265.48        3332.75           6608          24.00        71.49
  265.50        3333.00           6611          27.00        84.57
  265.53        3333.25           6615          28.00        88.93
  265.56        3333.50           6619          28.00        88.93
  265.59        3333.75           6623          26.00        80.21
  265.61        3334.00           6626          28.00        88.93
  265.64        3334.25           6630          28.00        88.93
  265.67        3334.50           6634          29.00        93.29
  265.69        3334.75           6638          26.00        80.21
  265.72        3335.00           6641          31.00       102.01
  265.75        3335.25           6645          31.00       102.01
  265.78        3335.50           6649          35.00       119.44
  265.80        3335.75           6653          32.00       106.36
  265.83        3336.00           6656          40.00       141.24
  265.86        3336.25           6660         119.00       485.62
  265.88        3336.50           6664         394.00      1684.47
  265.91        3336.75           6668         636.00      2739.53
  265.94        3337.00           6671        1101.00      4766.98
  265.97        3337.25           6675        2145.00      9319.78
  265.99        3337.50           6679        3333.00     14501.97
  266.02        3337.75           6683        4587.00     19973.68
  266.05        3338.00           6686        5592.00     24360.12
  266.08        3338.25           6690        7000.00     30507.31
  266.10        3338.50           6694        8365.00     36468.78
  266.13        3338.75           6698        9641.00     42043.37
  266.16        3339.00           6701       10706.00     46697.47
  266.18        3339.25           6705       11973.00     52235.90
  266.21        3339.50           6709       13288.00     57985.97
  266.24        3339.75           6713       14895.00     65015.38
  266.27        3340.00           6716       15909.00     69452.28
  266.29        3340.25           6720       17212.00     75155.38
  266.32        3340.50           6724       18672.00     81547.81
  266.35        3340.75           6728       19796.00     86470.66
  266.38        3341.00           6731       20810.00     90912.91
  266.40        3341.25           6735       22074.00     96451.94
  266.43        3341.50           6739       22885.00    100006.80
  266.46        3341.75           6743       23380.00    102176.80
  266.49        3342.00           6746       23508.00    102738.00
  266.51        3342.25           6750       23202.00    101396.50
  266.54        3342.50           6754       22519.00     98402.41
  266.57        3342.75           6758       21490.00     93892.56
  266.59        3343.00           6761       20538.00     89721.19
  266.62        3343.25           6765       19202.00     83868.91
  266.65        3343.50           6769       17904.00     78184.93
  266.68        3343.75           6773       16539.00     72209.50
  266.70        3344.00           6776       15523.00     67763.15
  266.73        3344.25           6780       14186.00     61913.69
  266.76        3344.50           6784       12773.00     55733.82
  266.79        3344.75           6788       11402.00     49739.67
  266.81        3345.00           6791       10303.00     44936.19
  266.84        3345.25           6795        8950.00     39024.31
  266.87        3345.50           6799        7301.00     31821.72
  266.89        3345.75           6803        5623.00     24495.43
  266.92        3346.00           6806        4396.00     19140.16
  266.95        3346.25           6810        3237.00     14083.15
  266.98        3346.50           6814        2404.00     10449.44
  267.00        3346.75           6818        1598.00      6934.22
  267.03        3347.00           6821         946.00      4091.14
  267.06        3347.25           6825         313.00      1331.35
  267.08        3347.50           6829          73.00       285.09
  267.11        3347.75           6833          35.00       119.44
  267.14        3348.00           6836          36.00       123.80
  267.17        3348.25           6840          33.00       110.72
  267.19        3348.50           6844          29.00        93.29
  267.22        3348.75           6848          33.00       110.72
  267.25        3349.00           6851          25.00        75.85
  267.28        3349.25           6855          26.00        80.21
  267.30        3349.50           6859          27.00        84.57
  267.33        3349.75           6863          35.00       119.44
  267.36        3350.00           6867          25.00        75.85
  267.38        3350.25           6870          28.00        88.93
  267.41        3350.50           6874          27.00        84.57
  267.44        3350.75           6878          33.00       110.72
  267.47        3351.00           6882          29.00        93.29
HL scan finished at 04:28:05
end
