************************************************************
  HL Scan of (1) Internal mercury lamp
************************************************************
Integration time is 0.2294 seconds per sample
dh010319Tamanrasset 22.79-5.529 4.974364pr865
************************************************************
Dead Time -------------------------  2.8E-08 
Number of Cycles Used -------------  4 
Starting Wavelength (Angstroms) ---  3331 
Final Wavelength (Angstoms) -------  3351 
Wavelength Increment (Angstroms) --  .25 
Filter Wheel #1 Position ---------- (1) Ground quartz diffuser (ND=2.32)
Filter Wheel #2 Position ---------- (0) Clear Aperture



************************************************************
HL scan start time = 04:28:54
Dark Count =  6 


Time (GMT)  Wavelength (Ang)  Step Number  Raw Counts  Counts/Second

  269.41        3331.00           6581          25.00        82.82
  269.62        3331.25           6585          32.00       113.34
  269.65        3331.50           6589          33.00       117.70
  269.68        3331.75           6593          30.00       104.62
  269.71        3332.00           6596          27.00        91.54
  269.73        3332.25           6600          28.00        95.90
  269.76        3332.50           6604          33.00       117.70
  269.79        3332.75           6608          28.00        95.90
  269.82        3333.00           6611          26.00        87.18
  269.84        3333.25           6615          21.00        65.39
  269.87        3333.50           6619          24.00        78.47
  269.90        3333.75           6623          28.00        95.90
  269.92        3334.00           6626          28.00        95.90
  269.95        3334.25           6630          33.00       117.70
  269.98        3334.50           6634          29.00       100.26
  270.00        3334.75           6638          26.00        87.18
  270.03        3335.00           6641          31.00       108.98
  270.06        3335.25           6645          31.00       108.98
  270.09        3335.50           6649          29.00       100.26
  270.11        3335.75           6653          35.00       126.42
  270.14        3336.00           6656          37.00       135.14
  270.17        3336.25           6660         130.00       540.55
  270.20        3336.50           6664         403.00      1730.69
  270.22        3336.75           6668         643.00      2777.03
  270.25        3337.00           6671        1122.00      4865.53
  270.28        3337.25           6675        2188.00      9514.31
  270.30        3337.50           6679        3480.00     15150.28
  270.33        3337.75           6683        4771.00     20783.67
  270.36        3338.00           6686        5692.00     24803.62
  270.39        3338.25           6690        7168.00     31247.91
  270.41        3338.50           6694        8459.00     36886.38
  270.44        3338.75           6698        9742.00     42491.68
  270.47        3339.00           6701       10826.00     47228.94
  270.50        3339.25           6705       12152.00     53025.49
  270.52        3339.50           6709       13607.00     59388.13
  270.55        3339.75           6713       15011.00     65529.90
  270.58        3340.00           6716       15924.00     69524.93
  270.61        3340.25           6720       17299.00     75543.23
  270.63        3340.50           6724       18609.00     81278.93
  270.66        3340.75           6728       19916.00     87003.32
  270.69        3341.00           6731       21042.00     91936.44
  270.71        3341.25           6735       22167.00     96866.56
  270.74        3341.50           6739       22886.00    100018.20
  270.77        3341.75           6743       23422.00    102368.00
  270.80        3342.00           6746       23725.00    103696.50
  270.82        3342.25           6750       23317.00    101907.60
  270.85        3342.50           6754       22626.00     98878.44
  270.88        3342.75           6758       21571.00     94254.52
  270.91        3343.00           6761       20514.00     89623.05
  270.93        3343.25           6765       19117.00     83503.65
  270.96        3343.50           6769       17958.00     78428.36
  270.99        3343.75           6773       16651.00     72706.72
  271.02        3344.00           6776       15603.00     68120.22
  271.04        3344.25           6780       14178.00     61885.70
  271.07        3344.50           6784       12842.00     56042.54
  271.10        3344.75           6788       11517.00     50249.38
  271.12        3345.00           6791       10334.00     45078.66
  271.15        3345.25           6795        9109.00     39725.95
  271.18        3345.50           6799        7371.00     32134.40
  271.21        3345.75           6803        5764.00     25117.92
  271.23        3346.00           6806        4537.00     19762.46
  271.26        3346.25           6810        3402.00     14809.98
  271.29        3346.50           6814        2412.00     10491.31
  271.32        3346.75           6818        1639.00      7119.99
  271.34        3347.00           6821        1060.00      4595.19
  271.37        3347.25           6825         342.00      1464.75
  271.40        3347.50           6829          79.00       318.22
  271.42        3347.75           6833          38.00       139.49
  271.45        3348.00           6836          32.00       113.34
  271.48        3348.25           6840          30.00       104.62
  271.51        3348.50           6844          31.00       108.98
  271.53        3348.75           6848          30.00       104.62
  271.56        3349.00           6851          29.00       100.26
  271.59        3349.25           6855          31.00       108.98
  271.62        3349.50           6859          34.00       122.06
  271.64        3349.75           6863          26.00        87.18
  271.67        3350.00           6867          31.00       108.98
  271.70        3350.25           6870          26.00        87.18
  271.72        3350.50           6874          27.00        91.54
  271.75        3350.75           6878          28.00        95.90
  271.78        3351.00           6882          28.00        95.90
HL scan finished at 04:32:24
end
