************************************************************
  HL Scan of (1) Internal mercury lamp
************************************************************
Integration time is 0.2294 seconds per sample
dh020319Tamanrasset 22.79-5.529 4.974364pr865
************************************************************
Dead Time -------------------------  2.8E-08 
Number of Cycles Used -------------  4 
Starting Wavelength (Angstroms) ---  3331 
Final Wavelength (Angstoms) -------  3351 
Wavelength Increment (Angstroms) --  .25 
Filter Wheel #1 Position ---------- (1) Ground quartz diffuser (ND=2.32)
Filter Wheel #2 Position ---------- (0) Clear Aperture



************************************************************
HL scan start time = 04:27:35
Dark Count =  3.7 


Time (GMT)  Wavelength (Ang)  Step Number  Raw Counts  Counts/Second

  268.10        3331.00           6581          31.00       119.01
  268.32        3331.25           6585          26.00        97.21
  268.34        3331.50           6589          27.00       101.57
  268.37        3331.75           6593          29.00       110.29
  268.40        3332.00           6596          28.00       105.93
  268.42        3332.25           6600          30.00       114.65
  268.45        3332.50           6604          24.00        88.49
  268.48        3332.75           6608          30.00       114.65
  268.51        3333.00           6611          26.00        97.21
  268.53        3333.25           6615          32.00       123.37
  268.56        3333.50           6619          23.00        84.13
  268.59        3333.75           6623          29.00       110.29
  268.61        3334.00           6626          25.00        92.85
  268.64        3334.25           6630          28.00       105.93
  268.67        3334.50           6634          31.00       119.01
  268.69        3334.75           6638          34.00       132.08
  268.72        3335.00           6641          26.00        97.21
  268.75        3335.25           6645          30.00       114.65
  268.78        3335.50           6649          29.00       110.29
  268.80        3335.75           6653          33.00       127.72
  268.83        3336.00           6656          40.00       158.24
  268.86        3336.25           6660         132.00       559.29
  268.89        3336.50           6664         404.00      1745.07
  268.91        3336.75           6668         750.00      3253.57
  268.94        3337.00           6671        1167.00      5071.78
  268.97        3337.25           6675        2250.00      9794.75
  268.99        3337.50           6679        3553.00     15478.81
  269.02        3337.75           6683        4792.00     20885.36
  269.05        3338.00           6686        5855.00     25525.21
  269.08        3338.25           6690        7223.00     31498.13
  269.10        3338.50           6694        8565.00     37359.47
  269.13        3338.75           6698        9910.00     43235.83
  269.16        3339.00           6701       10936.00     47719.78
  269.19        3339.25           6705       12252.00     53472.77
  269.21        3339.50           6709       13658.00     59621.25
  269.24        3339.75           6713       15046.00     65693.10
  269.27        3340.00           6716       16072.00     70182.68
  269.30        3340.25           6720       17528.00     76555.83
  269.32        3340.50           6724       19051.00     83224.68
  269.35        3340.75           6728       20058.00     87635.44
  269.38        3341.00           6731       21145.00     92397.86
  269.40        3341.25           6735       22196.00     97003.74
  269.43        3341.50           6739       23127.00    101084.80
  269.46        3341.75           6743       23604.00    103176.00
  269.49        3342.00           6746       23721.00    103689.00
  269.51        3342.25           6750       23386.00    102220.20
  269.54        3342.50           6754       22577.00     98673.74
  269.57        3342.75           6758       21373.00     93396.94
  269.60        3343.00           6761       20326.00     88809.50
  269.62        3343.25           6765       19121.00     83531.25
  269.65        3343.50           6769       17821.00     77838.61
  269.68        3343.75           6773       16615.00     72559.22
  269.70        3344.00           6776       15629.00     68244.06
  269.73        3344.25           6780       14272.00     62306.95
  269.76        3344.50           6784       12769.00     55733.38
  269.79        3344.75           6788       11479.00     50093.32
  269.81        3345.00           6791       10425.00     45486.41
  269.84        3345.25           6795        8995.00     39237.94
  269.87        3345.50           6799        7158.00     31214.28
  269.90        3345.75           6803        5484.00     23905.71
  269.92        3346.00           6806        4422.00     19270.64
  269.95        3346.25           6810        3418.00     14889.82
  269.98        3346.50           6814        2516.00     10954.97
  270.01        3346.75           6818        1571.00      6833.48
  270.03        3347.00           6821        1025.00      4452.60
  270.06        3347.25           6825         334.00      1439.90
  270.09        3347.50           6829          81.00       336.97
  270.11        3347.75           6833          37.00       145.16
  270.14        3348.00           6836          36.00       140.80
  270.17        3348.25           6840          31.00       119.01
  270.20        3348.50           6844          33.00       127.72
  270.22        3348.75           6848          35.00       136.44
  270.25        3349.00           6851          29.00       110.29
  270.28        3349.25           6855          33.00       127.72
  270.30        3349.50           6859          31.00       119.01
  270.33        3349.75           6863          27.00       101.57
  270.36        3350.00           6867          26.00        97.21
  270.39        3350.25           6870          26.00        97.21
  270.41        3350.50           6874          29.00       110.29
  270.44        3350.75           6878          29.00       110.29
  270.47        3351.00           6882          33.00       127.72
HL scan finished at 04:31:05
end
