************************************************************
  HL Scan of (1) Internal mercury lamp
************************************************************
Integration time is 0.2294 seconds per sample
dh090319Tamanrasset 22.79-5.529 4.974364pr865
************************************************************
Dead Time -------------------------  2.8E-08 
Number of Cycles Used -------------  4 
Starting Wavelength (Angstroms) ---  3331 
Final Wavelength (Angstoms) -------  3351 
Wavelength Increment (Angstroms) --  .25 
Filter Wheel #1 Position ---------- (1) Ground quartz diffuser (ND=2.32)
Filter Wheel #2 Position ---------- (0) Clear Aperture



************************************************************
HL scan start time = 04:22:06
Dark Count =  2.9 


Time (GMT)  Wavelength (Ang)  Step Number  Raw Counts  Counts/Second

  262.62        3331.00           6581          29.00       113.78
  262.84        3331.25           6585          26.00       100.70
  262.86        3331.50           6589          28.00       109.42
  262.89        3331.75           6593          31.00       122.49
  262.92        3332.00           6596          28.00       109.42
  262.94        3332.25           6600          31.00       122.49
  262.97        3332.50           6604          26.00       100.70
  263.00        3332.75           6608          21.00        78.90
  263.03        3333.00           6611          27.00       105.06
  263.05        3333.25           6615          26.00       100.70
  263.08        3333.50           6619          29.00       113.78
  263.11        3333.75           6623          29.00       113.78
  263.14        3334.00           6626          26.00       100.70
  263.16        3334.25           6630          25.00        96.34
  263.19        3334.50           6634          32.00       126.85
  263.22        3334.75           6638          28.00       109.42
  263.24        3335.00           6641          28.00       109.42
  263.27        3335.25           6645          27.00       105.06
  263.30        3335.50           6649          36.00       144.29
  263.33        3335.75           6653          42.00       170.45
  263.35        3336.00           6656          43.00       174.80
  263.38        3336.25           6660         121.00       514.83
  263.41        3336.50           6664         407.00      1761.64
  263.43        3336.75           6668         689.00      2991.10
  263.46        3337.00           6671        1052.00      4573.82
  263.49        3337.25           6675        2083.00      9069.87
  263.52        3337.50           6679        3264.00     14221.44
  263.54        3337.75           6683        4489.00     19566.52
  263.57        3338.00           6686        5499.00     23974.68
  263.60        3338.25           6690        7026.00     30641.36
  263.62        3338.50           6694        8447.00     36847.50
  263.65        3338.75           6698        9650.00     42103.23
  263.68        3339.00           6701       10717.00     46766.08
  263.71        3339.25           6705       12205.00     53270.77
  263.73        3339.50           6709       13393.00     58465.73
  263.76        3339.75           6713       14802.00     64629.06
  263.79        3340.00           6716       15707.00     68588.88
  263.82        3340.25           6720       17151.00     74908.91
  263.84        3340.50           6724       18349.00     80153.97
  263.87        3340.75           6728       19738.00     86237.19
  263.90        3341.00           6731       20768.00     90749.48
  263.92        3341.25           6735       21904.00     95727.47
  263.95        3341.50           6739       22866.00     99944.08
  263.98        3341.75           6743       23423.00    102386.00
  264.01        3342.00           6746       23452.00    102513.10
  264.03        3342.25           6750       23281.00    101763.40
  264.06        3342.50           6754       22654.00     99014.76
  264.09        3342.75           6758       21423.00     93619.54
  264.12        3343.00           6761       20579.00     89921.41
  264.14        3343.25           6765       19107.00     83473.43
  264.17        3343.50           6769       17975.00     78516.36
  264.20        3343.75           6773       16700.00     72934.75
  264.23        3344.00           6776       15590.00     68076.90
  264.25        3344.25           6780       14171.00     61868.64
  264.28        3344.50           6784       12875.00     56200.40
  264.31        3344.75           6788       11546.00     50389.71
  264.33        3345.00           6791       10430.00     45511.76
  264.36        3345.25           6795        9067.00     39555.99
  264.39        3345.50           6799        7253.00     31632.63
  264.42        3345.75           6803        5539.00     24149.28
  264.44        3346.00           6806        4456.00     19422.50
  264.47        3346.25           6810        3307.00     14409.04
  264.50        3346.50           6814        2430.00     10583.35
  264.53        3346.75           6818        1655.00      7203.28
  264.55        3347.00           6821        1131.00      4918.29
  264.58        3347.25           6825         389.00      1683.17
  264.61        3347.50           6829         101.00       427.64
  264.63        3347.75           6833          35.00       139.93
  264.66        3348.00           6836          25.00        96.34
  264.69        3348.25           6840          35.00       139.93
  264.72        3348.50           6844          29.00       113.78
  264.74        3348.75           6848          29.00       113.78
  264.77        3349.00           6851          30.00       118.13
  264.80        3349.25           6855          31.00       122.49
  264.82        3349.50           6859          31.00       122.49
  264.85        3349.75           6863          24.00        91.98
  264.88        3350.00           6867          25.00        96.34
  264.91        3350.25           6870          30.00       118.13
  264.93        3350.50           6874          34.00       135.57
  264.96        3350.75           6878          31.00       122.49
  264.99        3351.00           6882          30.00       118.13
HL scan finished at 04:25:37
end
