************************************************************
  HL Scan of (1) Internal mercury lamp
************************************************************
Integration time is 0.2294 seconds per sample
dh070319Tamanrasset 22.79-5.529 4.974364pr865
************************************************************
Dead Time -------------------------  2.8E-08 
Number of Cycles Used -------------  4 
Starting Wavelength (Angstroms) ---  3331 
Final Wavelength (Angstoms) -------  3351 
Wavelength Increment (Angstroms) --  .25 
Filter Wheel #1 Position ---------- (1) Ground quartz diffuser (ND=2.32)
Filter Wheel #2 Position ---------- (0) Clear Aperture



************************************************************
HL scan start time = 04:23:38
Dark Count =  3.4 


Time (GMT)  Wavelength (Ang)  Step Number  Raw Counts  Counts/Second

  264.14        3331.00           6581          28.00       107.24
  264.36        3331.25           6585          30.00       115.96
  264.39        3331.50           6589          33.00       129.03
  264.42        3331.75           6593          28.00       107.24
  264.44        3332.00           6596          25.00        94.16
  264.47        3332.25           6600          23.00        85.44
  264.50        3332.50           6604          31.00       120.31
  264.52        3332.75           6608          29.00       111.60
  264.55        3333.00           6611          27.00       102.88
  264.58        3333.25           6615          23.00        85.44
  264.61        3333.50           6619          28.00       107.24
  264.63        3333.75           6623          27.00       102.88
  264.66        3334.00           6626          27.00       102.88
  264.69        3334.25           6630          27.00       102.88
  264.71        3334.50           6634          29.00       111.60
  264.74        3334.75           6638          28.00       107.24
  264.77        3335.00           6641          24.00        89.80
  264.80        3335.25           6645          29.00       111.60
  264.82        3335.50           6649          32.00       124.67
  264.85        3335.75           6653          33.00       129.03
  264.88        3336.00           6656          45.00       181.34
  264.91        3336.25           6660         129.00       547.52
  264.93        3336.50           6664         406.00      1755.10
  264.96        3336.75           6668         742.00      3219.99
  264.99        3337.00           6671        1227.00      5334.71
  265.01        3337.25           6675        2239.00      9748.08
  265.04        3337.50           6679        3566.00     15536.84
  265.07        3337.75           6683        4733.00     20629.18
  265.10        3338.00           6686        5773.00     25168.56
  265.12        3338.25           6690        7183.00     31324.76
  265.15        3338.50           6694        8465.00     36923.94
  265.18        3338.75           6698        9711.00     42367.58
  265.20        3339.00           6701       10876.00     47458.85
  265.23        3339.25           6705       12092.00     52774.53
  265.26        3339.50           6709       13595.00     59347.01
  265.29        3339.75           6713       14984.00     65423.14
  265.31        3340.00           6716       15899.00     69426.90
  265.34        3340.25           6720       17325.00     75668.43
  265.37        3340.50           6724       18555.00     81053.85
  265.40        3340.75           6728       19858.00     86760.64
  265.42        3341.00           6731       20846.00     91089.04
  265.45        3341.25           6735       21849.00     95484.24
  265.48        3341.50           6739       22684.00     99144.06
  265.51        3341.75           6743       23356.00    102090.00
  265.53        3342.00           6746       23299.00    101840.10
  265.56        3342.25           6750       23210.00    101449.90
  265.59        3342.50           6754       22564.00     98618.07
  265.61        3342.75           6758       21447.00     93722.53
  265.64        3343.00           6761       20415.00     89200.72
  265.67        3343.25           6765       18988.00     82950.07
  265.70        3343.50           6769       18021.00     78715.58
  265.72        3343.75           6773       16588.00     72442.35
  265.75        3344.00           6776       15521.00     67772.78
  265.78        3344.25           6780       14293.00     62400.12
  265.81        3344.50           6784       12800.00     55870.24
  265.83        3344.75           6788       11549.00     50400.64
  265.86        3345.00           6791       10479.00     45723.72
  265.89        3345.25           6795        9051.00     39483.90
  265.92        3345.50           6799        7376.00     32167.59
  265.94        3345.75           6803        5411.00     23588.37
  265.97        3346.00           6806        4343.00     18927.20
  266.00        3346.25           6810        3473.00     15131.08
  266.02        3346.50           6814        2676.00     11654.20
  266.05        3346.75           6818        1713.00      7454.04
  266.08        3347.00           6821        1066.00      4632.68
  266.11        3347.25           6825         395.00      1707.14
  266.13        3347.50           6829          95.00       399.31
  266.16        3347.75           6833          32.00       124.67
  266.19        3348.00           6836          32.00       124.67
  266.22        3348.25           6840          31.00       120.31
  266.24        3348.50           6844          27.00       102.88
  266.27        3348.75           6848          28.00       107.24
  266.30        3349.00           6851          35.00       137.75
  266.32        3349.25           6855          30.00       115.96
  266.35        3349.50           6859          32.00       124.67
  266.38        3349.75           6863          28.00       107.24
  266.41        3350.00           6867          24.00        89.80
  266.43        3350.25           6870          25.00        94.16
  266.46        3350.50           6874          27.00       102.88
  266.49        3350.75           6878          28.00       107.24
  266.51        3351.00           6882          34.00       133.39
HL scan finished at 04:27:08
end
