************************************************************
  HL Scan of (1) Internal mercury lamp
************************************************************
Integration time is 0.2294 seconds per sample
dh180317Tamanrasset 22.79-5.529 2.848368pr865
************************************************************
Dead Time -------------------------  2.8E-08 
Number of Cycles Used -------------  4 
Starting Wavelength (Angstroms) ---  3331 
Final Wavelength (Angstoms) -------  3351 
Wavelength Increment (Angstroms) --  .25 
Filter Wheel #1 Position ---------- (1) Ground quartz diffuser (ND=2.32)
Filter Wheel #2 Position ---------- (0) Clear Aperture



************************************************************
HL scan start time = 03:45:45
Dark Count =  3.8 


Time (GMT)  Wavelength (Ang)  Step Number  Raw Counts  Counts/Second

  226.26        3331.00           6581           8.00        18.31
  226.48        3331.25           6585           1.00         2.00
  226.51        3331.50           6589           0.00         2.00
  226.53        3331.75           6593           8.00        18.31
  226.56        3332.00           6596           8.00        18.31
  226.59        3332.25           6600           1.00         2.00
  226.62        3332.50           6604           8.00        18.31
  226.64        3332.75           6608           1.00         2.00
  226.67        3333.00           6611           1.00         2.00
  226.70        3333.25           6615           4.00         2.00
  226.72        3333.50           6619           7.00        13.95
  226.75        3333.75           6623           8.00        18.31
  226.78        3334.00           6626           2.00         2.00
  226.81        3334.25           6630           8.00        18.31
  226.83        3334.50           6634           6.00         9.59
  226.86        3334.75           6638           0.00         2.00
  226.89        3335.00           6641           8.00        18.31
  226.91        3335.25           6645           5.00         5.23
  226.94        3335.50           6649           0.00         2.00
  226.97        3335.75           6653           8.00        18.31
  226.99        3336.00           6656           8.00        18.31
  227.02        3336.25           6660           5.00         5.23
  227.05        3336.50           6664           2.00         2.00
  227.08        3336.75           6668           3.00         2.00
  227.10        3337.00           6671           2.00         2.00
  227.13        3337.25           6675           0.00         2.00
  227.16        3337.50           6679           0.00         2.00
  227.18        3337.75           6683           8.00        18.31
  227.21        3338.00           6686           3.00         2.00
  227.24        3338.25           6690           2.00         2.00
  227.27        3338.50           6694           8.00        18.31
  227.29        3338.75           6698           2.00         2.00
  227.32        3339.00           6701           7.00        13.95
  227.35        3339.25           6705           7.00        13.95
  227.37        3339.50           6709           0.00         2.00
  227.40        3339.75           6713           8.00        18.31
  227.43        3340.00           6716           1.00         2.00
  227.46        3340.25           6720           6.00         9.59
  227.48        3340.50           6724           0.00         2.00
  227.51        3340.75           6728           8.00        18.31
  227.54        3341.00           6731           8.00        18.31
  227.56        3341.25           6735           6.00         9.59
  227.59        3341.50           6739           2.00         2.00
  227.62        3341.75           6743           8.00        18.31
  227.65        3342.00           6746           4.00         2.00
  227.67        3342.25           6750           0.00         2.00
  227.70        3342.50           6754           6.00         9.59
  227.73        3342.75           6758           8.00        18.31
  227.75        3343.00           6761           8.00        18.31
  227.78        3343.25           6765           2.00         2.00
  227.81        3343.50           6769           2.00         2.00
  227.84        3343.75           6773           9.00        22.67
  227.86        3344.00           6776           8.00        18.31
  227.89        3344.25           6780           0.00         2.00
  227.92        3344.50           6784           5.00         5.23
  227.94        3344.75           6788           6.00         9.59
  227.97        3345.00           6791           3.00         2.00
  228.00        3345.25           6795           6.00         9.59
  228.03        3345.50           6799           0.00         2.00
  228.05        3345.75           6803           3.00         2.00
  228.08        3346.00           6806           8.00        18.31
  228.11        3346.25           6810           6.00         9.59
  228.13        3346.50           6814           4.00         2.00
  228.16        3346.75           6818           8.00        18.31
  228.19        3347.00           6821           3.00         2.00
  228.21        3347.25           6825           7.00        13.95
  228.24        3347.50           6829           2.00         2.00
  228.27        3347.75           6833           6.00         9.59
  228.30        3348.00           6836           8.00        18.31
  228.32        3348.25           6840           0.00         2.00
  228.35        3348.50           6844           8.00        18.31
  228.38        3348.75           6848           5.00         5.23
  228.40        3349.00           6851           8.00        18.31
  228.43        3349.25           6855           7.00        13.95
  228.46        3349.50           6859           4.00         2.00
  228.49        3349.75           6863           7.00        13.95
  228.51        3350.00           6867           0.00         2.00
  228.54        3350.25           6870           6.00         9.59
  228.57        3350.50           6874           1.00         2.00
  228.59        3350.75           6878           4.00         2.00
  228.62        3351.00           6882           7.00        13.95
HL scan finished at 03:49:15
end
