************************************************************
  HL Scan of (1) Internal mercury lamp
************************************************************
Integration time is 0.2294 seconds per sample
dh120319Tamanrasset 22.79-5.529 4.974364pr865
************************************************************
Dead Time -------------------------  2.8E-08 
Number of Cycles Used -------------  4 
Starting Wavelength (Angstroms) ---  3331 
Final Wavelength (Angstoms) -------  3351 
Wavelength Increment (Angstroms) --  .25 
Filter Wheel #1 Position ---------- (1) Ground quartz diffuser (ND=2.32)
Filter Wheel #2 Position ---------- (0) Clear Aperture



************************************************************
HL scan start time = 04:18:40
Dark Count =  3.1 


Time (GMT)  Wavelength (Ang)  Step Number  Raw Counts  Counts/Second

  259.18        3331.00           6581          31.00       121.62
  259.40        3331.25           6585          28.00       108.54
  259.43        3331.50           6589          26.00        99.83
  259.46        3331.75           6593          23.00        86.75
  259.48        3332.00           6596          24.00        91.11
  259.51        3332.25           6600          29.00       112.90
  259.54        3332.50           6604          30.00       117.26
  259.57        3332.75           6608          25.00        95.47
  259.59        3333.00           6611          26.00        99.83
  259.62        3333.25           6615          29.00       112.90
  259.65        3333.50           6619          29.00       112.90
  259.67        3333.75           6623          25.00        95.47
  259.70        3334.00           6626          28.00       108.54
  259.73        3334.25           6630          23.00        86.75
  259.76        3334.50           6634          28.00       108.54
  259.78        3334.75           6638          25.00        95.47
  259.81        3335.00           6641          31.00       121.62
  259.84        3335.25           6645          30.00       117.26
  259.86        3335.50           6649          33.00       130.34
  259.89        3335.75           6653          38.00       152.14
  259.92        3336.00           6656          58.00       239.32
  259.95        3336.25           6660         136.00       579.35
  259.97        3336.50           6664         337.00      1455.60
  260.00        3336.75           6668         778.00      3378.26
  260.03        3337.00           6671        1266.00      5506.08
  260.05        3337.25           6675        2408.00     10486.51
  260.08        3337.50           6679        3707.00     16153.34
  260.11        3337.75           6683        5005.00     21817.60
  260.14        3338.00           6686        6069.00     26462.06
  260.16        3338.25           6690        7443.00     32461.49
  260.19        3338.50           6694        8737.00     38113.45
  260.22        3338.75           6698       10030.00     43762.84
  260.25        3339.00           6701       11152.00     48666.54
  260.27        3339.25           6705       12584.00     54927.05
  260.30        3339.50           6709       13963.00     60957.92
  260.33        3339.75           6713       15311.00     66855.21
  260.35        3340.00           6716       16257.00     70994.96
  260.38        3340.25           6720       17576.00     76768.59
  260.41        3340.50           6724       19140.00     83617.08
  260.44        3340.75           6728       20325.00     88807.74
  260.46        3341.00           6731       21140.00     92378.58
  260.49        3341.25           6735       22329.00     97589.32
  260.52        3341.50           6739       23152.00    101197.00
  260.55        3341.75           6743       23721.00    103691.70
  260.57        3342.00           6746       23655.00    103402.30
  260.60        3342.25           6750       23300.00    101845.80
  260.63        3342.50           6754       22686.00     99154.16
  260.65        3342.75           6758       21414.00     93579.24
  260.68        3343.00           6761       20390.00     89092.51
  260.71        3343.25           6765       19163.00     83717.81
  260.74        3343.50           6769       17783.00     77674.86
  260.76        3343.75           6773       16428.00     71743.37
  260.79        3344.00           6776       15499.00     67677.82
  260.82        3344.25           6780       14099.00     61552.82
  260.85        3344.50           6784       12698.00     55425.54
  260.87        3344.75           6788       11367.00     49606.35
  260.90        3345.00           6791       10359.00     45200.59
  260.93        3345.25           6795        8765.00     38235.77
  260.96        3345.50           6799        7054.00     30762.76
  260.98        3345.75           6803        5352.00     23332.15
  261.01        3346.00           6806        4299.00     18736.50
  261.04        3346.25           6810        3386.00     14752.82
  261.06        3346.50           6814        2421.00     10543.22
  261.09        3346.75           6818        1587.00      6905.87
  261.12        3347.00           6821         978.00      4250.29
  261.15        3347.25           6825         336.00      1451.24
  261.17        3347.50           6829          75.00       313.43
  261.20        3347.75           6833          29.00       112.90
  261.23        3348.00           6836          40.00       160.86
  261.26        3348.25           6840          34.00       134.70
  261.28        3348.50           6844          26.00        99.83
  261.31        3348.75           6848          23.00        86.75
  261.34        3349.00           6851          32.00       125.98
  261.36        3349.25           6855          35.00       139.06
  261.39        3349.50           6859          32.00       125.98
  261.42        3349.75           6863          31.00       121.62
  261.45        3350.00           6867          27.00       104.19
  261.47        3350.25           6870          29.00       112.90
  261.50        3350.50           6874          25.00        95.47
  261.53        3350.75           6878          37.00       147.78
  261.55        3351.00           6882          32.00       125.98
HL scan finished at 04:22:10
end
