************************************************************
  HL Scan of (1) Internal mercury lamp
************************************************************
Integration time is 0.2294 seconds per sample
dh170319Tamanrasset 22.79-5.529 4.974364pr865
************************************************************
Dead Time -------------------------  2.8E-08 
Number of Cycles Used -------------  4 
Starting Wavelength (Angstroms) ---  3331 
Final Wavelength (Angstoms) -------  3351 
Wavelength Increment (Angstroms) --  .25 
Filter Wheel #1 Position ---------- (1) Ground quartz diffuser (ND=2.32)
Filter Wheel #2 Position ---------- (0) Clear Aperture



************************************************************
HL scan start time = 04:14:41
Dark Count =  1.9 


Time (GMT)  Wavelength (Ang)  Step Number  Raw Counts  Counts/Second

  255.20        3331.00           6581          29.00       118.13
  255.42        3331.25           6585          31.00       126.85
  255.45        3331.50           6589          27.00       109.42
  255.47        3331.75           6593          23.00        91.98
  255.50        3332.00           6596          29.00       118.13
  255.53        3332.25           6600          26.00       105.06
  255.55        3332.50           6604          26.00       105.06
  255.58        3332.75           6608          28.00       113.78
  255.61        3333.00           6611          30.00       122.49
  255.64        3333.25           6615          27.00       109.42
  255.66        3333.50           6619          31.00       126.85
  255.69        3333.75           6623          26.00       105.06
  255.72        3334.00           6626          30.00       122.49
  255.74        3334.25           6630          25.00       100.70
  255.77        3334.50           6634          23.00        91.98
  255.80        3334.75           6638          29.00       118.13
  255.83        3335.00           6641          25.00       100.70
  255.85        3335.25           6645          33.00       135.57
  255.88        3335.50           6649          39.00       161.73
  255.91        3335.75           6653          37.00       153.01
  255.93        3336.00           6656          37.00       153.01
  255.96        3336.25           6660         102.00       436.36
  255.99        3336.50           6664         401.00      1739.84
  256.02        3336.75           6668         606.00      2633.59
  256.04        3337.00           6671        1010.00      4395.05
  256.07        3337.25           6675        1995.00      8690.43
  256.10        3337.50           6679        3303.00     14395.95
  256.12        3337.75           6683        4409.00     19221.76
  256.15        3338.00           6686        5494.00     23957.22
  256.18        3338.25           6690        6905.00     30117.37
  256.21        3338.50           6694        8230.00     35903.99
  256.23        3338.75           6698        9477.00     41351.68
  256.26        3339.00           6701       10578.00     46162.95
  256.29        3339.25           6705       11985.00     52313.28
  256.32        3339.50           6709       13339.00     58233.94
  256.34        3339.75           6713       14843.00     64812.81
  256.37        3340.00           6716       15836.00     69157.77
  256.40        3340.25           6720       17095.00     74668.15
  256.42        3340.50           6724       18441.00     80561.21
  256.45        3340.75           6728       19658.00     85891.14
  256.48        3341.00           6731       20638.00     90184.28
  256.51        3341.25           6735       21902.00     95723.09
  256.53        3341.50           6739       22837.00     99821.33
  256.56        3341.75           6743       23438.00    102456.10
  256.59        3342.00           6746       23767.00    103898.60
  256.62        3342.25           6750       23595.00    103144.50
  256.64        3342.50           6754       22876.00     99992.29
  256.67        3342.75           6758       21691.00     94798.38
  256.70        3343.00           6761       20889.00     91284.02
  256.72        3343.25           6765       19503.00     85212.22
  256.75        3343.50           6769       18352.00     80171.49
  256.78        3343.75           6773       16899.00     73810.20
  256.81        3344.00           6776       15931.00     69573.50
  256.83        3344.25           6780       14626.00     63863.45
  256.86        3344.50           6784       13188.00     57573.56
  256.89        3344.75           6788       11876.00     51836.73
  256.92        3345.00           6791       10720.00     46783.57
  256.94        3345.25           6795        9335.00     40731.25
  256.97        3345.50           6799        7631.00     33287.77
  257.00        3345.75           6803        5978.00     26070.03
  257.03        3346.00           6806        4795.00     20906.31
  257.05        3346.25           6810        3690.00     16084.40
  257.08        3346.50           6814        2587.00     11272.52
  257.11        3346.75           6818        1776.00      7735.33
  257.13        3347.00           6821        1212.00      5275.84
  257.16        3347.25           6825         498.00      2162.73
  257.19        3347.50           6829         122.00       523.55
  257.22        3347.75           6833          37.00       153.01
  257.24        3348.00           6836          36.00       148.65
  257.27        3348.25           6840          31.00       126.85
  257.30        3348.50           6844          31.00       126.85
  257.32        3348.75           6848          30.00       122.49
  257.35        3349.00           6851          33.00       135.57
  257.38        3349.25           6855          27.00       109.42
  257.41        3349.50           6859          32.00       131.21
  257.43        3349.75           6863          30.00       122.49
  257.46        3350.00           6867          28.00       113.78
  257.49        3350.25           6870          31.00       126.85
  257.51        3350.50           6874          32.00       131.21
  257.54        3350.75           6878          28.00       113.78
  257.57        3351.00           6882          27.00       109.42
HL scan finished at 04:18:11
end
