************************************************************
  HL Scan of (1) Internal mercury lamp
************************************************************
Integration time is 0.2294 seconds per sample
dh180319Tamanrasset 22.79-5.529 4.974364pr865
************************************************************
Dead Time -------------------------  2.8E-08 
Number of Cycles Used -------------  4 
Starting Wavelength (Angstroms) ---  3331 
Final Wavelength (Angstoms) -------  3351 
Wavelength Increment (Angstroms) --  .25 
Filter Wheel #1 Position ---------- (1) Ground quartz diffuser (ND=2.32)
Filter Wheel #2 Position ---------- (0) Clear Aperture



************************************************************
HL scan start time = 04:14:12
Dark Count =  4.1 


Time (GMT)  Wavelength (Ang)  Step Number  Raw Counts  Counts/Second

  254.71        3331.00           6581          25.00        91.11
  254.93        3331.25           6585          27.00        99.83
  254.96        3331.50           6589          28.00       104.19
  254.98        3331.75           6593          26.00        95.47
  255.01        3332.00           6596          28.00       104.19
  255.04        3332.25           6600          25.00        91.11
  255.07        3332.50           6604          28.00       104.19
  255.09        3332.75           6608          25.00        91.11
  255.12        3333.00           6611          26.00        95.47
  255.15        3333.25           6615          20.00        69.31
  255.17        3333.50           6619          30.00       112.90
  255.20        3333.75           6623          28.00       104.19
  255.23        3334.00           6626          25.00        91.11
  255.26        3334.25           6630          29.00       108.54
  255.28        3334.50           6634          29.00       108.54
  255.31        3334.75           6638          30.00       112.90
  255.34        3335.00           6641          28.00       104.19
  255.36        3335.25           6645          31.00       117.26
  255.39        3335.50           6649          32.00       121.62
  255.42        3335.75           6653          38.00       147.78
  255.45        3336.00           6656          53.00       213.17
  255.47        3336.25           6660         172.00       731.92
  255.50        3336.50           6664         564.00      2440.88
  255.53        3336.75           6668         977.00      4241.57
  255.56        3337.00           6671        1280.00      5562.77
  255.58        3337.25           6675        2529.00     11009.93
  255.61        3337.50           6679        4050.00     17645.60
  255.64        3337.75           6683        5570.00     24279.36
  255.66        3338.00           6686        6845.00     29845.77
  255.69        3338.25           6690        8471.00     36947.10
  255.72        3338.50           6694       10057.00     43876.46
  255.75        3338.75           6698       11706.00     51083.92
  255.77        3339.00           6701       12805.00     55889.06
  255.80        3339.25           6705       14413.00     62922.01
  255.83        3339.50           6709       16174.00     70627.33
  255.86        3339.75           6713       17894.00     78156.47
  255.88        3340.00           6716       18856.00     82368.91
  255.91        3340.25           6720       20615.00     90073.88
  255.94        3340.50           6724       22109.00     96620.68
  255.96        3340.75           6728       23606.00    103183.00
  255.99        3341.00           6731       24930.00    108989.00
  256.02        3341.25           6735       26145.00    114318.70
  256.05        3341.50           6739       27431.00    119961.60
  256.07        3341.75           6743       27979.00    122366.70
  256.10        3342.00           6746       28068.00    122757.30
  256.13        3342.25           6750       27898.00    122011.20
  256.16        3342.50           6754       27244.00    119140.90
  256.18        3342.75           6758       25661.00    112195.40
  256.21        3343.00           6761       24292.00    106191.00
  256.24        3343.25           6765       22823.00     99750.31
  256.27        3343.50           6769       21304.00     93092.82
  256.29        3343.75           6773       19759.00     86323.92
  256.32        3344.00           6776       18544.00     81002.61
  256.35        3344.25           6780       16932.00     73945.01
  256.38        3344.50           6784       15441.00     67419.66
  256.40        3344.75           6788       13680.00     59715.73
  256.43        3345.00           6791       12354.00     53917.00
  256.46        3345.25           6795       10787.00     47066.78
  256.48        3345.50           6799        8563.00     37348.98
  256.51        3345.75           6803        6565.00     28623.19
  256.54        3346.00           6806        5322.00     23196.84
  256.57        3346.25           6810        4036.00     17584.50
  256.59        3346.50           6814        2850.00     12410.15
  256.62        3346.75           6818        1828.00      7952.51
  256.65        3347.00           6821        1326.00      5763.35
  256.68        3347.25           6825         493.00      2131.34
  256.70        3347.50           6829         119.00       500.88
  256.73        3347.75           6833          42.00       165.21
  256.76        3348.00           6836          36.00       139.06
  256.78        3348.25           6840          30.00       112.90
  256.81        3348.50           6844          28.00       104.19
  256.84        3348.75           6848          30.00       112.90
  256.87        3349.00           6851          33.00       125.98
  256.89        3349.25           6855          37.00       143.42
  256.92        3349.50           6859          31.00       117.26
  256.95        3349.75           6863          31.00       117.26
  256.97        3350.00           6867          29.00       108.54
  257.00        3350.25           6870          36.00       139.06
  257.03        3350.50           6874          28.00       104.19
  257.06        3350.75           6878          33.00       125.98
  257.08        3351.00           6882          27.00        99.83
HL scan finished at 04:17:42
end
