************************************************************
  HL Scan of (1) Internal mercury lamp
************************************************************
Integration time is 0.2294 seconds per sample
dh190319Tamanrasset 22.79-5.529 4.974364pr865
************************************************************
Dead Time -------------------------  2.8E-08 
Number of Cycles Used -------------  4 
Starting Wavelength (Angstroms) ---  3331 
Final Wavelength (Angstoms) -------  3351 
Wavelength Increment (Angstroms) --  .25 
Filter Wheel #1 Position ---------- (1) Ground quartz diffuser (ND=2.32)
Filter Wheel #2 Position ---------- (0) Clear Aperture



************************************************************
HL scan start time = 04:12:42
Dark Count =  2 


Time (GMT)  Wavelength (Ang)  Step Number  Raw Counts  Counts/Second

  253.22        3331.00           6581          28.00       113.34
  253.44        3331.25           6585          28.00       113.34
  253.46        3331.50           6589          26.00       104.62
  253.49        3331.75           6593          30.00       122.06
  253.52        3332.00           6596          26.00       104.62
  253.54        3332.25           6600          26.00       104.62
  253.57        3332.50           6604          30.00       122.06
  253.60        3332.75           6608          30.00       122.06
  253.63        3333.00           6611          28.00       113.34
  253.65        3333.25           6615          33.00       135.14
  253.68        3333.50           6619          29.00       117.70
  253.71        3333.75           6623          26.00       104.62
  253.73        3334.00           6626          27.00       108.98
  253.76        3334.25           6630          33.00       135.14
  253.79        3334.50           6634          27.00       108.98
  253.82        3334.75           6638          27.00       108.98
  253.84        3335.00           6641          33.00       135.14
  253.87        3335.25           6645          31.00       126.42
  253.90        3335.50           6649          39.00       161.29
  253.92        3335.75           6653          39.00       161.29
  253.95        3336.00           6656          72.00       305.15
  253.98        3336.25           6660         266.00      1150.87
  254.01        3336.50           6664         730.00      3173.78
  254.03        3336.75           6668        1001.00      4355.37
  254.06        3337.00           6671        1547.00      6736.23
  254.09        3337.25           6675        2850.00     12419.32
  254.11        3337.50           6679        4427.00     19299.88
  254.14        3337.75           6683        5937.00     25890.60
  254.17        3338.00           6686        7150.00     31186.77
  254.20        3338.25           6690        8919.00     38913.35
  254.22        3338.50           6694       10426.00     45498.21
  254.25        3338.75           6698       11984.00     52308.47
  254.28        3339.00           6701       13134.00     57336.97
  254.31        3339.25           6705       14840.00     64799.25
  254.33        3339.50           6709       16589.00     72452.85
  254.36        3339.75           6713       18302.00     79952.10
  254.39        3340.00           6716       19409.00     84800.07
  254.42        3340.25           6720       21076.00     92102.96
  254.44        3340.50           6724       22691.00     99180.89
  254.47        3340.75           6728       24305.00    106257.30
  254.50        3341.00           6731       25292.00    110586.00
  254.52        3341.25           6735       26826.00    117315.90
  254.55        3341.50           6739       28009.00    122507.60
  254.58        3341.75           6743       28444.00    124417.00
  254.61        3342.00           6746       28522.00    124759.40
  254.63        3342.25           6750       28239.00    123517.10
  254.66        3342.50           6754       27331.00    119531.90
  254.69        3342.75           6758       25642.00    112121.30
  254.72        3343.00           6761       24575.00    107441.30
  254.74        3343.25           6765       23055.00    100776.60
  254.77        3343.50           6769       21527.00     94079.24
  254.80        3343.75           6773       19978.00     87292.43
  254.82        3344.00           6776       18571.00     81130.04
  254.85        3344.25           6780       17034.00     74400.70
  254.88        3344.50           6784       15517.00     67761.41
  254.91        3344.75           6788       13718.00     59891.11
  254.93        3345.00           6791       12250.00     53471.46
  254.96        3345.25           6795       10720.00     46783.13
  254.99        3345.50           6799        8628.00     37642.10
  255.02        3345.75           6803        6308.00     27510.29
  255.04        3346.00           6806        5074.00     22123.55
  255.07        3346.25           6810        3666.00     15979.25
  255.10        3346.50           6814        2740.00     11939.48
  255.12        3346.75           6818        1824.00      7944.23
  255.15        3347.00           6821        1142.00      4970.18
  255.18        3347.25           6825         396.00      1717.61
  255.21        3347.50           6829          95.00       405.41
  255.23        3347.75           6833          38.00       156.93
  255.26        3348.00           6836          34.00       139.49
  255.29        3348.25           6840          29.00       117.70
  255.31        3348.50           6844          27.00       108.98
  255.34        3348.75           6848          33.00       135.14
  255.37        3349.00           6851          36.00       148.21
  255.40        3349.25           6855          29.00       117.70
  255.42        3349.50           6859          34.00       139.49
  255.45        3349.75           6863          35.00       143.85
  255.48        3350.00           6867          30.00       122.06
  255.50        3350.25           6870          39.00       161.29
  255.53        3350.50           6874          33.00       135.14
  255.56        3350.75           6878          27.00       108.98
  255.59        3351.00           6882          38.00       156.93
HL scan finished at 04:16:13
end
