************************************************************
  HL Scan of (1) Internal mercury lamp
************************************************************
Integration time is 0.2294 seconds per sample
dh150319Tamanrasset 22.79-5.529 4.974364pr865
************************************************************
Dead Time -------------------------  2.8E-08 
Number of Cycles Used -------------  4 
Starting Wavelength (Angstroms) ---  3331 
Final Wavelength (Angstoms) -------  3351 
Wavelength Increment (Angstroms) --  .25 
Filter Wheel #1 Position ---------- (1) Ground quartz diffuser (ND=2.32)
Filter Wheel #2 Position ---------- (0) Clear Aperture



************************************************************
HL scan start time = 04:17:08
Dark Count =  6.2 


Time (GMT)  Wavelength (Ang)  Step Number  Raw Counts  Counts/Second

  257.64        3331.00           6581          29.00        99.39
  257.86        3331.25           6585          29.00        99.39
  257.89        3331.50           6589          21.00        64.52
  257.92        3331.75           6593          26.00        86.31
  257.94        3332.00           6596          30.00       103.75
  257.97        3332.25           6600          29.00        99.39
  258.00        3332.50           6604          26.00        86.31
  258.03        3332.75           6608          33.00       116.83
  258.05        3333.00           6611          25.00        81.95
  258.08        3333.25           6615          27.00        90.67
  258.11        3333.50           6619          24.00        77.59
  258.13        3333.75           6623          27.00        90.67
  258.16        3334.00           6626          25.00        81.95
  258.19        3334.25           6630          25.00        81.95
  258.22        3334.50           6634          25.00        81.95
  258.24        3334.75           6638          31.00       108.11
  258.27        3335.00           6641          31.00       108.11
  258.30        3335.25           6645          26.00        86.31
  258.32        3335.50           6649          32.00       112.47
  258.35        3335.75           6653          37.00       134.26
  258.38        3336.00           6656          40.00       147.34
  258.41        3336.25           6660         111.00       456.85
  258.43        3336.50           6664         358.00      1533.63
  258.46        3336.75           6668         584.00      2518.92
  258.49        3337.00           6671        1053.00      4563.79
  258.51        3337.25           6675        2012.00      8745.82
  258.54        3337.50           6679        3239.00     14097.98
  258.57        3337.75           6683        4574.00     19923.06
  258.60        3338.00           6686        5624.00     24505.91
  258.62        3338.25           6690        7033.00     30657.52
  258.65        3338.50           6694        8195.00     35732.33
  258.68        3338.75           6698        9589.00     41822.27
  258.71        3339.00           6701       10538.00     45969.33
  258.73        3339.25           6705       11996.00     52342.57
  258.76        3339.50           6709       13352.00     58271.99
  258.79        3339.75           6713       14677.00     64067.75
  258.81        3340.00           6716       15614.00     68167.49
  258.84        3340.25           6720       16927.00     73913.94
  258.87        3340.50           6724       18362.00     80196.46
  258.90        3340.75           6728       19581.00     85535.05
  258.92        3341.00           6731       20572.00     89876.29
  258.95        3341.25           6735       21646.00     94582.33
  258.98        3341.50           6739       22586.00     98702.22
  259.01        3341.75           6743       23180.00    101306.20
  259.03        3342.00           6746       23353.00    102064.60
  259.06        3342.25           6750       23240.00    101569.20
  259.09        3342.50           6754       22487.00     98268.28
  259.12        3342.75           6758       21349.00     93280.81
  259.14        3343.00           6761       20747.00     90643.02
  259.17        3343.25           6765       19271.00     84177.25
  259.20        3343.50           6769       17834.00     77884.58
  259.22        3343.75           6773       16494.00     72018.66
  259.25        3344.00           6776       15558.00     67922.43
  259.28        3344.25           6780       14149.00     61757.97
  259.31        3344.50           6784       12809.00     55897.37
  259.33        3344.75           6788       11479.00     50082.39
  259.36        3345.00           6791       10443.00     45554.15
  259.39        3345.25           6795        9114.00     39746.92
  259.42        3345.50           6799        7463.00     32535.29
  259.44        3345.75           6803        5752.00     25064.67
  259.47        3346.00           6806        4622.00     20132.53
  259.50        3346.25           6810        3558.00     15489.72
  259.52        3346.50           6814        2634.00     11458.78
  259.55        3346.75           6818        1830.00      7952.08
  259.58        3347.00           6821        1152.00      4995.47
  259.61        3347.25           6825         426.00      1830.09
  259.63        3347.50           6829         100.00       408.90
  259.66        3347.75           6833          38.00       138.62
  259.69        3348.00           6836          32.00       112.47
  259.71        3348.25           6840          32.00       112.47
  259.74        3348.50           6844          33.00       116.83
  259.77        3348.75           6848          37.00       134.26
  259.80        3349.00           6851          32.00       112.47
  259.82        3349.25           6855          29.00        99.39
  259.85        3349.50           6859          24.00        77.59
  259.88        3349.75           6863          29.00        99.39
  259.91        3350.00           6867          32.00       112.47
  259.93        3350.25           6870          26.00        86.31
  259.96        3350.50           6874          31.00       108.11
  259.99        3350.75           6878          31.00       108.11
  260.01        3351.00           6882          31.00       108.11
HL scan finished at 04:20:38
end
