************************************************************
  HL Scan of (1) Internal mercury lamp
************************************************************
Integration time is 0.2294 seconds per sample
dh200319Tamanrasset 22.79-5.529 1.784871pr865
************************************************************
Dead Time -------------------------  2.8E-08 
Number of Cycles Used -------------  4 
Starting Wavelength (Angstroms) ---  3331 
Final Wavelength (Angstoms) -------  3351 
Wavelength Increment (Angstroms) --  .25 
Filter Wheel #1 Position ---------- (1) Ground quartz diffuser (ND=2.32)
Filter Wheel #2 Position ---------- (0) Clear Aperture



************************************************************
HL scan start time = 04:12:55
Dark Count =  4.6 


Time (GMT)  Wavelength (Ang)  Step Number  Raw Counts  Counts/Second

  253.43        3331.00           6581          26.00        93.29
  253.64        3331.25           6585          29.00       106.36
  253.67        3331.50           6589          27.00        97.65
  253.70        3331.75           6593          25.00        88.93
  253.73        3332.00           6596          26.00        93.29
  253.75        3332.25           6600          27.00        97.65
  253.78        3332.50           6604          33.00       123.80
  253.81        3332.75           6608          27.00        97.65
  253.83        3333.00           6611          25.00        88.93
  253.86        3333.25           6615          26.00        93.29
  253.89        3333.50           6619          25.00        88.93
  253.92        3333.75           6623          31.00       115.08
  253.94        3334.00           6626          31.00       115.08
  253.97        3334.25           6630          24.00        84.57
  254.00        3334.50           6634          27.00        97.65
  254.02        3334.75           6638          26.00        93.29
  254.05        3335.00           6641          31.00       115.08
  254.08        3335.25           6645          30.00       110.72
  254.10        3335.50           6649          32.00       119.44
  254.13        3335.75           6653          32.00       119.44
  254.16        3336.00           6656          40.00       154.32
  254.19        3336.25           6660         124.00       520.50
  254.21        3336.50           6664         412.00      1776.03
  254.24        3336.75           6668         616.00      2665.41
  254.27        3337.00           6671        1104.00      4793.15
  254.29        3337.25           6675        2104.00      9154.05
  254.32        3337.50           6679        3359.00     14628.49
  254.35        3337.75           6683        4623.00     20143.88
  254.38        3338.00           6686        5615.00     24473.61
  254.40        3338.25           6690        6941.00     30262.77
  254.43        3338.50           6694        8321.00     36289.69
  254.46        3338.75           6698        9558.00     41693.81
  254.49        3339.00           6701       10568.00     46107.44
  254.51        3339.25           6705       11991.00     52327.71
  254.54        3339.50           6709       13353.00     58283.36
  254.57        3339.75           6713       14710.00     64219.12
  254.59        3340.00           6716       15598.00     68104.47
  254.62        3340.25           6720       16913.00     73859.65
  254.65        3340.50           6724       18279.00     79840.02
  254.68        3340.75           6728       19508.00     85222.31
  254.70        3341.00           6731       20550.00     89786.91
  254.73        3341.25           6735       21661.00     94655.07
  254.76        3341.50           6739       22699.00     99204.57
  254.79        3341.75           6743       23155.00    101203.60
  254.81        3342.00           6746       23413.00    102334.70
  254.84        3342.25           6750       23229.00    101528.00
  254.87        3342.50           6754       22619.00     98853.89
  254.90        3342.75           6758       21482.00     93870.64
  254.92        3343.00           6761       20675.00     90334.57
  254.95        3343.25           6765       19288.00     84258.72
  254.98        3343.50           6769       17964.00     78460.77
  255.01        3343.75           6773       16620.00     72577.16
  255.03        3344.00           6776       15610.00     68156.98
  255.06        3344.25           6780       14368.00     62722.97
  255.09        3344.50           6784       12930.00     56433.49
  255.11        3344.75           6788       11633.00     50762.60
  255.14        3345.00           6791       10460.00     45635.44
  255.17        3345.25           6795        9042.00     39439.35
  255.20        3345.50           6799        7366.00     32118.67
  255.22        3345.75           6803        5654.00     24643.85
  255.25        3346.00           6806        4666.00     20331.54
  255.28        3346.25           6810        3487.00     15186.93
  255.31        3346.50           6814        2582.00     11238.93
  255.33        3346.75           6818        1774.00      7714.83
  255.36        3347.00           6821        1126.00      4889.07
  255.39        3347.25           6825         423.00      1823.98
  255.41        3347.50           6829          99.00       411.51
  255.44        3347.75           6833          35.00       132.52
  255.47        3348.00           6836          33.00       123.80
  255.50        3348.25           6840          31.00       115.08
  255.52        3348.50           6844          31.00       115.08
  255.55        3348.75           6848          33.00       123.80
  255.58        3349.00           6851          33.00       123.80
  255.60        3349.25           6855          30.00       110.72
  255.63        3349.50           6859          29.00       106.36
  255.66        3349.75           6863          32.00       119.44
  255.69        3350.00           6867          31.00       115.08
  255.71        3350.25           6870          26.00        93.29
  255.74        3350.50           6874          28.00       102.01
  255.77        3350.75           6878          34.00       128.16
  255.79        3351.00           6882          30.00       110.72
HL scan finished at 04:16:25
end
