************************************************************
  HL Scan of (1) Internal mercury lamp
************************************************************
Integration time is 0.2294 seconds per sample
dh170317Tamanrasset 22.79-5.529 2.741303pr865
************************************************************
Dead Time -------------------------  2.8E-08 
Number of Cycles Used -------------  4 
Starting Wavelength (Angstroms) ---  3331 
Final Wavelength (Angstoms) -------  3351 
Wavelength Increment (Angstroms) --  .25 
Filter Wheel #1 Position ---------- (1) Ground quartz diffuser (ND=2.32)
Filter Wheel #2 Position ---------- (0) Clear Aperture



************************************************************
HL scan start time = 03:46:44
Dark Count =  4.5 


Time (GMT)  Wavelength (Ang)  Step Number  Raw Counts  Counts/Second

  227.24        3331.00           6581           6.00         6.54
  227.46        3331.25           6585           8.00        15.26
  227.48        3331.50           6589           2.00         2.00
  227.51        3331.75           6593           0.00         2.00
  227.54        3332.00           6596           8.00        15.26
  227.56        3332.25           6600           7.00        10.90
  227.59        3332.50           6604           2.00         2.00
  227.62        3332.75           6608           0.00         2.00
  227.65        3333.00           6611           5.00         2.18
  227.67        3333.25           6615           0.00         2.00
  227.70        3333.50           6619           8.00        15.26
  227.73        3333.75           6623           7.00        10.90
  227.75        3334.00           6626           0.00         2.00
  227.78        3334.25           6630           0.00         2.00
  227.81        3334.50           6634           0.00         2.00
  227.84        3334.75           6638           1.00         2.00
  227.86        3335.00           6641           4.00         2.00
  227.89        3335.25           6645           0.00         2.00
  227.92        3335.50           6649           2.00         2.00
  227.94        3335.75           6653           6.00         6.54
  227.97        3336.00           6656           0.00         2.00
  228.00        3336.25           6660           8.00        15.26
  228.02        3336.50           6664           2.00         2.00
  228.05        3336.75           6668           8.00        15.26
  228.08        3337.00           6671           7.00        10.90
  228.11        3337.25           6675           0.00         2.00
  228.13        3337.50           6679           2.00         2.00
  228.16        3337.75           6683           0.00         2.00
  228.19        3338.00           6686           8.00        15.26
  228.21        3338.25           6690           0.00         2.00
  228.24        3338.50           6694           5.00         2.18
  228.27        3338.75           6698           8.00        15.26
  228.30        3339.00           6701           7.00        10.90
  228.32        3339.25           6705           0.00         2.00
  228.35        3339.50           6709           0.00         2.00
  228.38        3339.75           6713           8.00        15.26
  228.40        3340.00           6716           0.00         2.00
  228.43        3340.25           6720           5.00         2.18
  228.46        3340.50           6724           0.00         2.00
  228.49        3340.75           6728           6.00         6.54
  228.51        3341.00           6731           8.00        15.26
  228.54        3341.25           6735           0.00         2.00
  228.57        3341.50           6739           8.00        15.26
  228.59        3341.75           6743           8.00        15.26
  228.62        3342.00           6746           6.00         6.54
  228.65        3342.25           6750           8.00        15.26
  228.68        3342.50           6754           4.00         2.00
  228.70        3342.75           6758           4.00         2.00
  228.73        3343.00           6761           1.00         2.00
  228.76        3343.25           6765           3.00         2.00
  228.78        3343.50           6769           4.00         2.00
  228.81        3343.75           6773           8.00        15.26
  228.84        3344.00           6776           8.00        15.26
  228.87        3344.25           6780           7.00        10.90
  228.89        3344.50           6784           8.00        15.26
  228.92        3344.75           6788           0.00         2.00
  228.95        3345.00           6791           8.00        15.26
  228.97        3345.25           6795           3.00         2.00
  229.00        3345.50           6799           8.00        15.26
  229.03        3345.75           6803           4.00         2.00
  229.05        3346.00           6806           5.00         2.18
  229.08        3346.25           6810           8.00        15.26
  229.11        3346.50           6814           0.00         2.00
  229.14        3346.75           6818           4.00         2.00
  229.16        3347.00           6821           0.00         2.00
  229.19        3347.25           6825           0.00         2.00
  229.22        3347.50           6829           5.00         2.18
  229.24        3347.75           6833           0.00         2.00
  229.27        3348.00           6836           1.00         2.00
  229.30        3348.25           6840           5.00         2.18
  229.33        3348.50           6844           6.00         6.54
  229.35        3348.75           6848           0.00         2.00
  229.38        3349.00           6851           8.00        15.26
  229.41        3349.25           6855           4.00         2.00
  229.43        3349.50           6859           4.00         2.00
  229.46        3349.75           6863           6.00         6.54
  229.49        3350.00           6867           0.00         2.00
  229.52        3350.25           6870           0.00         2.00
  229.54        3350.50           6874           3.00         2.00
  229.57        3350.75           6878           8.00        15.26
  229.60        3351.00           6882           0.00         2.00
HL scan finished at 03:50:13
end
