************************************************************
  HL Scan of (1) Internal mercury lamp
************************************************************
Integration time is 0.2294 seconds per sample
dh160319Tamanrasset 22.79-5.529 4.974364pr865
************************************************************
Dead Time -------------------------  2.8E-08 
Number of Cycles Used -------------  4 
Starting Wavelength (Angstroms) ---  3331 
Final Wavelength (Angstoms) -------  3351 
Wavelength Increment (Angstroms) --  .25 
Filter Wheel #1 Position ---------- (1) Ground quartz diffuser (ND=2.32)
Filter Wheel #2 Position ---------- (0) Clear Aperture



************************************************************
HL scan start time = 04:16:10
Dark Count =  3.6 


Time (GMT)  Wavelength (Ang)  Step Number  Raw Counts  Counts/Second

  256.67        3331.00           6581          28.00       106.36
  256.89        3331.25           6585          26.00        97.65
  256.92        3331.50           6589          30.00       115.08
  256.95        3331.75           6593          25.00        93.29
  256.97        3332.00           6596          28.00       106.36
  257.00        3332.25           6600          25.00        93.29
  257.03        3332.50           6604          27.00       102.01
  257.05        3332.75           6608          24.00        88.93
  257.08        3333.00           6611          25.00        93.29
  257.11        3333.25           6615          28.00       106.36
  257.14        3333.50           6619          27.00       102.01
  257.16        3333.75           6623          25.00        93.29
  257.19        3334.00           6626          33.00       128.16
  257.22        3334.25           6630          29.00       110.72
  257.24        3334.50           6634          28.00       106.36
  257.27        3334.75           6638          27.00       102.01
  257.30        3335.00           6641          23.00        84.57
  257.33        3335.25           6645          29.00       110.72
  257.35        3335.50           6649          32.00       123.80
  257.38        3335.75           6653          40.00       158.68
  257.41        3336.00           6656          70.00       289.45
  257.43        3336.25           6660         222.00       952.07
  257.46        3336.50           6664         459.00      1985.29
  257.49        3336.75           6668         875.00      3799.01
  257.52        3337.00           6671        1505.00      6546.10
  257.54        3337.25           6675        2682.00     11679.50
  257.57        3337.50           6679        3958.00     17246.34
  257.60        3337.75           6683        5225.00     22775.64
  257.63        3338.00           6686        6265.00     27315.57
  257.65        3338.25           6690        7623.00     33245.40
  257.68        3338.50           6694        8888.00     38770.92
  257.71        3338.75           6698       10423.00     45478.11
  257.73        3339.00           6701       11346.00     49512.37
  257.76        3339.25           6705       12692.00     55397.12
  257.79        3339.50           6709       14159.00     61813.09
  257.82        3339.75           6713       15386.00     67181.18
  257.84        3340.00           6716       16477.00     71955.65
  257.87        3340.25           6720       17951.00     78408.23
  257.90        3340.50           6724       18997.00     82988.61
  257.93        3340.75           6728       20363.00     88972.03
  257.95        3341.00           6731       21256.00     92884.68
  257.98        3341.25           6735       22508.00     98371.72
  258.01        3341.50           6739       23296.00    101826.10
  258.03        3341.75           6743       23451.00    102505.60
  258.06        3342.00           6746       23675.00    103487.80
  258.09        3342.25           6750       23194.00    101378.90
  258.12        3342.50           6754       22363.00     97736.16
  258.14        3342.75           6758       21074.00     92087.18
  258.17        3343.00           6761       20051.00     87605.21
  258.20        3343.25           6765       18942.00     82747.73
  258.23        3343.50           6769       17564.00     76713.87
  258.25        3343.75           6773       16240.00     70918.38
  258.28        3344.00           6776       15134.00     66078.56
  258.31        3344.25           6780       13771.00     60115.93
  258.34        3344.50           6784       12425.00     54229.63
  258.36        3344.75           6788       11072.00     48314.67
  258.39        3345.00           6791        9892.00     43157.62
  258.42        3345.25           6795        8501.00     37080.33
  258.44        3345.50           6799        7001.00     30529.14
  258.47        3345.75           6803        5187.00     22609.78
  258.50        3346.00           6806        3880.00     16906.00
  258.53        3346.25           6810        2927.00     12748.23
  258.55        3346.50           6814        2208.00      9612.00
  258.58        3346.75           6818        1483.00      6450.16
  258.61        3347.00           6821         837.00      3633.33
  258.64        3347.25           6825         258.00      1109.01
  258.66        3347.50           6829          63.00       258.94
  258.69        3347.75           6833          29.00       110.72
  258.72        3348.00           6836          31.00       119.44
  258.74        3348.25           6840          35.00       136.88
  258.77        3348.50           6844          27.00       102.01
  258.80        3348.75           6848          33.00       128.16
  258.83        3349.00           6851          26.00        97.65
  258.85        3349.25           6855          34.00       132.52
  258.88        3349.50           6859          29.00       110.72
  258.91        3349.75           6863          29.00       110.72
  258.94        3350.00           6867          30.00       115.08
  258.96        3350.25           6870          28.00       106.36
  258.99        3350.50           6874          27.00       102.01
  259.02        3350.75           6878          29.00       110.72
  259.04        3351.00           6882          29.00       110.72
HL scan finished at 04:19:40
end
