************************************************************
  HL Scan of (1) Internal mercury lamp
************************************************************
Integration time is 0.2294 seconds per sample
dh130319Tamanrasset 22.79-5.529 4.974364pr865
************************************************************
Dead Time -------------------------  2.8E-08 
Number of Cycles Used -------------  4 
Starting Wavelength (Angstroms) ---  3331 
Final Wavelength (Angstoms) -------  3351 
Wavelength Increment (Angstroms) --  .25 
Filter Wheel #1 Position ---------- (1) Ground quartz diffuser (ND=2.32)
Filter Wheel #2 Position ---------- (0) Clear Aperture



************************************************************
HL scan start time = 04:18:08
Dark Count =  5.7 


Time (GMT)  Wavelength (Ang)  Step Number  Raw Counts  Counts/Second

  258.64        3331.00           6581          31.00       110.29
  258.86        3331.25           6585          32.00       114.65
  258.88        3331.50           6589          28.00        97.21
  258.91        3331.75           6593          22.00        71.06
  258.94        3332.00           6596          30.00       105.93
  258.96        3332.25           6600          27.00        92.85
  258.99        3332.50           6604          24.00        79.77
  259.02        3332.75           6608          30.00       105.93
  259.05        3333.00           6611          28.00        97.21
  259.07        3333.25           6615          27.00        92.85
  259.10        3333.50           6619          27.00        92.85
  259.13        3333.75           6623          27.00        92.85
  259.16        3334.00           6626          24.00        79.77
  259.18        3334.25           6630          20.00        62.34
  259.21        3334.50           6634          28.00        97.21
  259.24        3334.75           6638          26.00        88.49
  259.26        3335.00           6641          25.00        84.13
  259.29        3335.25           6645          29.00       101.57
  259.32        3335.50           6649          35.00       127.72
  259.34        3335.75           6653          33.00       119.01
  259.37        3336.00           6656          39.00       145.16
  259.40        3336.25           6660         132.00       550.58
  259.43        3336.50           6664         411.00      1766.87
  259.45        3336.75           6668         601.00      2595.22
  259.48        3337.00           6671        1050.00      4552.89
  259.51        3337.25           6675        2097.00      9118.72
  259.54        3337.50           6679        3286.00     14305.21
  259.56        3337.75           6683        4593.00     20008.15
  259.59        3338.00           6686        5593.00     24372.78
  259.62        3338.25           6690        7097.00     30939.17
  259.65        3338.50           6694        8324.00     36297.99
  259.67        3338.75           6698        9640.00     42047.30
  259.70        3339.00           6701       10711.00     46727.62
  259.73        3339.25           6705       11984.00     52292.29
  259.75        3339.50           6709       13231.00     57744.99
  259.78        3339.75           6713       14736.00     64328.06
  259.81        3340.00           6716       15704.00     68563.50
  259.84        3340.25           6720       17305.00     75570.81
  259.86        3340.50           6724       18556.00     81048.16
  259.89        3340.75           6728       19758.00     86312.53
  259.92        3341.00           6731       20745.00     90636.44
  259.95        3341.25           6735       21937.00     95859.84
  259.97        3341.50           6739       22766.00     99493.44
  260.00        3341.75           6743       23299.00    101830.00
  260.03        3342.00           6746       23477.00    102610.40
  260.06        3342.25           6750       23299.00    101830.00
  260.08        3342.50           6754       22663.00     99041.94
  260.11        3342.75           6758       21371.00     93379.41
  260.14        3343.00           6761       20581.00     89917.92
  260.17        3343.25           6765       19238.00     84034.90
  260.19        3343.50           6769       17855.00     77978.71
  260.22        3343.75           6773       16453.00     71841.41
  260.25        3344.00           6776       15577.00     68007.76
  260.27        3344.25           6780       14303.00     62433.81
  260.30        3344.50           6784       12849.00     56074.46
  260.33        3344.75           6788       11413.00     49796.06
  260.36        3345.00           6791       10498.00     45796.71
  260.38        3345.25           6795        9085.00     39622.40
  260.41        3345.50           6799        7404.00     32279.82
  260.44        3345.75           6803        5692.00     24804.93
  260.46        3346.00           6806        4445.00     19362.28
  260.49        3346.25           6810        3410.00     14846.19
  260.52        3346.50           6814        2567.00     11168.71
  260.55        3346.75           6818        1735.00      7539.95
  260.57        3347.00           6821        1135.00      4923.52
  260.60        3347.25           6825         435.00      1871.50
  260.63        3347.50           6829         106.00       437.23
  260.66        3347.75           6833          31.00       110.29
  260.68        3348.00           6836          32.00       114.65
  260.71        3348.25           6840          27.00        92.85
  260.74        3348.50           6844          33.00       119.01
  260.76        3348.75           6848          32.00       114.65
  260.79        3349.00           6851          27.00        92.85
  260.82        3349.25           6855          28.00        97.21
  260.85        3349.50           6859          30.00       105.93
  260.87        3349.75           6863          33.00       119.01
  260.90        3350.00           6867          30.00       105.93
  260.93        3350.25           6870          31.00       110.29
  260.96        3350.50           6874          35.00       127.72
  260.98        3350.75           6878          27.00        92.85
  261.01        3351.00           6882          31.00       110.29
HL scan finished at 04:21:38
end
