************************************************************
  HL Scan of (1) Internal mercury lamp
************************************************************
Integration time is 0.2294 seconds per sample
dh110319Tamanrasset 22.79-5.529 4.974364pr865
************************************************************
Dead Time -------------------------  2.8E-08 
Number of Cycles Used -------------  4 
Starting Wavelength (Angstroms) ---  3331 
Final Wavelength (Angstoms) -------  3351 
Wavelength Increment (Angstroms) --  .25 
Filter Wheel #1 Position ---------- (1) Ground quartz diffuser (ND=2.32)
Filter Wheel #2 Position ---------- (0) Clear Aperture



************************************************************
HL scan start time = 04:19:40
Dark Count =  4.5 


Time (GMT)  Wavelength (Ang)  Step Number  Raw Counts  Counts/Second

  260.18        3331.00           6581          24.00        85.00
  260.39        3331.25           6585          31.00       115.52
  260.42        3331.50           6589          26.00        93.72
  260.45        3331.75           6593          30.00       111.16
  260.48        3332.00           6596          32.00       119.88
  260.50        3332.25           6600          33.00       124.24
  260.53        3332.50           6604          26.00        93.72
  260.56        3332.75           6608          33.00       124.24
  260.59        3333.00           6611          28.00       102.44
  260.61        3333.25           6615          30.00       111.16
  260.64        3333.50           6619          26.00        93.72
  260.67        3333.75           6623          30.00       111.16
  260.69        3334.00           6626          29.00       106.80
  260.72        3334.25           6630          23.00        80.65
  260.75        3334.50           6634          28.00       102.44
  260.78        3334.75           6638          30.00       111.16
  260.80        3335.00           6641          27.00        98.08
  260.83        3335.25           6645          29.00       106.80
  260.86        3335.50           6649          26.00        93.72
  260.88        3335.75           6653          32.00       119.88
  260.91        3336.00           6656          57.00       228.86
  260.94        3336.25           6660         141.00       595.04
  260.97        3336.50           6664         336.00      1445.13
  260.99        3336.75           6668         696.00      3014.64
  261.02        3337.00           6671        1322.00      5744.17
  261.05        3337.25           6675        2397.00     10432.43
  261.07        3337.50           6679        3686.00     16055.60
  261.10        3337.75           6683        4985.00     21724.20
  261.13        3338.00           6686        6102.00     26600.01
  261.16        3338.25           6690        7263.00     31669.31
  261.18        3338.50           6694        8632.00     37648.65
  261.21        3338.75           6698       10032.00     43765.46
  261.24        3339.00           6701       11172.00     48747.84
  261.26        3339.25           6705       12505.00     54575.49
  261.29        3339.50           6709       13805.00     60260.71
  261.32        3339.75           6713       15316.00     66870.95
  261.35        3340.00           6716       16369.00     71479.01
  261.37        3340.25           6720       17519.00     76512.91
  261.40        3340.50           6724       18993.00     82967.15
  261.43        3340.75           6728       20268.00     88551.90
  261.46        3341.00           6731       21196.00     92617.81
  261.48        3341.25           6735       22335.00     97609.48
  261.51        3341.50           6739       23191.00    101361.80
  261.54        3341.75           6743       23637.00    103317.20
  261.57        3342.00           6746       23640.00    103330.40
  261.59        3342.25           6750       23434.00    102427.20
  261.62        3342.50           6754       22764.00     99489.93
  261.65        3342.75           6758       21401.00     93516.12
  261.68        3343.00           6761       20362.00     88963.71
  261.70        3343.25           6765       19140.00     83610.96
  261.73        3343.50           6769       17802.00     77751.91
  261.76        3343.75           6773       16415.00     71680.34
  261.78        3344.00           6776       15551.00     67899.24
  261.81        3344.25           6780       14122.00     61647.30
  261.84        3344.50           6784       12703.00     55441.28
  261.87        3344.75           6788       11267.00     49163.10
  261.89        3345.00           6791       10143.00     44250.53
  261.92        3345.25           6795        8828.00     38504.88
  261.95        3345.50           6799        7082.00     30878.91
  261.98        3345.75           6803        5396.00     23518.10
  262.00        3346.00           6806        4305.00     18756.58
  262.03        3346.25           6810        3227.00     14053.04
  262.06        3346.50           6814        2445.00     10641.79
  262.08        3346.75           6818        1511.00      6568.34
  262.11        3347.00           6821         883.00      3829.97
  262.14        3347.25           6825         317.00      1362.30
  262.17        3347.50           6829          78.00       320.40
  262.19        3347.75           6833          36.00       137.32
  262.22        3348.00           6836          36.00       137.32
  262.25        3348.25           6840          29.00       106.80
  262.27        3348.50           6844          31.00       115.52
  262.30        3348.75           6848          30.00       111.16
  262.33        3349.00           6851          30.00       111.16
  262.36        3349.25           6855          29.00       106.80
  262.38        3349.50           6859          33.00       124.24
  262.41        3349.75           6863          35.00       132.96
  262.44        3350.00           6867          32.00       119.88
  262.46        3350.25           6870          28.00       102.44
  262.49        3350.50           6874          26.00        93.72
  262.52        3350.75           6878          24.00        85.00
  262.55        3351.00           6882          34.00       128.60
HL scan finished at 04:23:10
end
