************************************************************
  HL Scan of (1) Internal mercury lamp
************************************************************
Integration time is 0.2294 seconds per sample
dh140319Tamanrasset 22.79-5.529 4.974364pr865
************************************************************
Dead Time -------------------------  2.8E-08 
Number of Cycles Used -------------  4 
Starting Wavelength (Angstroms) ---  3331 
Final Wavelength (Angstoms) -------  3351 
Wavelength Increment (Angstroms) --  .25 
Filter Wheel #1 Position ---------- (1) Ground quartz diffuser (ND=2.32)
Filter Wheel #2 Position ---------- (0) Clear Aperture



************************************************************
HL scan start time = 04:17:41
Dark Count =  3.8 


Time (GMT)  Wavelength (Ang)  Step Number  Raw Counts  Counts/Second

  258.20        3331.00           6581          31.00       118.57
  258.41        3331.25           6585          22.00        79.34
  258.44        3331.50           6589          30.00       114.21
  258.47        3331.75           6593          27.00       101.13
  258.50        3332.00           6596          26.00        96.77
  258.52        3332.25           6600          25.00        92.42
  258.55        3332.50           6604          29.00       109.85
  258.58        3332.75           6608          28.00       105.49
  258.60        3333.00           6611          29.00       109.85
  258.63        3333.25           6615          24.00        88.06
  258.66        3333.50           6619          31.00       118.57
  258.69        3333.75           6623          25.00        92.42
  258.71        3334.00           6626          23.00        83.70
  258.74        3334.25           6630          26.00        96.77
  258.77        3334.50           6634          32.00       122.93
  258.79        3334.75           6638          25.00        92.42
  258.82        3335.00           6641          28.00       105.49
  258.85        3335.25           6645          26.00        96.77
  258.88        3335.50           6649          33.00       127.29
  258.90        3335.75           6653          39.00       153.44
  258.93        3336.00           6656          76.00       314.74
  258.96        3336.25           6660         276.00      1186.61
  258.98        3336.50           6664         760.00      3296.73
  259.01        3336.75           6668        1008.00      4378.04
  259.04        3337.00           6671        1664.00      7238.61
  259.07        3337.25           6675        2834.00     12341.67
  259.09        3337.50           6679        4037.00     17590.18
  259.12        3337.75           6683        5252.00     22892.61
  259.15        3338.00           6686        6307.00     27498.06
  259.18        3338.25           6690        7675.00     33471.64
  259.20        3338.50           6694        8926.00     38936.06
  259.23        3338.75           6698       10270.00     44808.58
  259.26        3339.00           6701       11168.00     48733.41
  259.29        3339.25           6705       12557.00     54805.93
  259.31        3339.50           6709       13948.00     60889.26
  259.34        3339.75           6713       15236.00     66523.98
  259.37        3340.00           6716       16331.00     71315.76
  259.39        3340.25           6720       17734.00     77457.26
  259.42        3340.50           6724       18969.00     82865.10
  259.45        3340.75           6728       20237.00     88419.16
  259.48        3341.00           6731       21065.00     92046.87
  259.50        3341.25           6735       22126.00     96696.50
  259.53        3341.50           6739       22901.00    100093.60
  259.56        3341.75           6743       23326.00    101956.70
  259.59        3342.00           6746       23336.00    102000.60
  259.61        3342.25           6750       23001.00    100531.90
  259.64        3342.50           6754       22051.00     96367.80
  259.67        3342.75           6758       20903.00     91337.04
  259.70        3343.00           6761       20052.00     87608.72
  259.72        3343.25           6765       18570.00     81117.78
  259.75        3343.50           6769       17318.00     75636.03
  259.78        3343.75           6773       15978.00     69770.88
  259.80        3344.00           6776       14915.00     65119.50
  259.83        3344.25           6780       13747.00     60010.08
  259.86        3344.50           6784       12349.00     53896.45
  259.89        3344.75           6788       10979.00     47907.29
  259.91        3345.00           6791        9956.00     43436.41
  259.94        3345.25           6795        8658.00     37765.29
  259.97        3345.50           6799        6921.00     30178.93
  260.00        3345.75           6803        5150.00     22447.41
  260.02        3346.00           6806        4009.00     17468.00
  260.05        3346.25           6810        2877.00     12529.24
  260.08        3346.50           6814        2153.00      9371.25
  260.10        3346.75           6818        1431.00      6222.53
  260.13        3347.00           6821         844.00      3662.97
  260.16        3347.25           6825         278.00      1195.33
  260.19        3347.50           6829          61.00       249.35
  260.21        3347.75           6833          24.00        88.06
  260.24        3348.00           6836          29.00       109.85
  260.27        3348.25           6840          31.00       118.57
  260.30        3348.50           6844          31.00       118.57
  260.32        3348.75           6848          34.00       131.65
  260.35        3349.00           6851          30.00       114.21
  260.38        3349.25           6855          32.00       122.93
  260.40        3349.50           6859          27.00       101.13
  260.43        3349.75           6863          30.00       114.21
  260.46        3350.00           6867          26.00        96.77
  260.48        3350.25           6870          30.00       114.21
  260.51        3350.50           6874          30.00       114.21
  260.54        3350.75           6878          30.00       114.21
  260.57        3351.00           6882          26.00        96.77
HL scan finished at 04:21:11
end
