************************************************************
  HL Scan of (1) Internal mercury lamp
************************************************************
Integration time is 0.2294 seconds per sample
dh250319Tamanrasset 22.79-5.529 4.974364pr865
************************************************************
Dead Time -------------------------  2.8E-08 
Number of Cycles Used -------------  4 
Starting Wavelength (Angstroms) ---  3331 
Final Wavelength (Angstoms) -------  3351 
Wavelength Increment (Angstroms) --  .25 
Filter Wheel #1 Position ---------- (1) Ground quartz diffuser (ND=2.32)
Filter Wheel #2 Position ---------- (0) Clear Aperture



************************************************************
HL scan start time = 04:07:15
Dark Count =  5.8 


Time (GMT)  Wavelength (Ang)  Step Number  Raw Counts  Counts/Second

  247.76        3331.00           6581          28.00        96.77
  247.98        3331.25           6585          30.00       105.49
  248.00        3331.50           6589          28.00        96.77
  248.03        3331.75           6593          30.00       105.49
  248.06        3332.00           6596          23.00        74.98
  248.09        3332.25           6600          22.00        70.62
  248.11        3332.50           6604          25.00        83.70
  248.14        3332.75           6608          30.00       105.49
  248.17        3333.00           6611          26.00        88.06
  248.19        3333.25           6615          29.00       101.13
  248.22        3333.50           6619          25.00        83.70
  248.25        3333.75           6623          24.00        79.34
  248.28        3334.00           6626          23.00        74.98
  248.30        3334.25           6630          22.00        70.62
  248.33        3334.50           6634          30.00       105.49
  248.36        3334.75           6638          29.00       101.13
  248.38        3335.00           6641          30.00       105.49
  248.41        3335.25           6645          32.00       114.21
  248.44        3335.50           6649          36.00       131.65
  248.47        3335.75           6653          34.00       122.93
  248.49        3336.00           6656          42.00       157.80
  248.52        3336.25           6660          91.00       371.41
  248.55        3336.50           6664         322.00      1378.43
  248.58        3336.75           6668         597.00      2577.34
  248.60        3337.00           6671        1035.00      4487.05
  248.63        3337.25           6675        1991.00      8655.98
  248.66        3337.50           6679        3343.00     14553.45
  248.69        3337.75           6683        4541.00     19780.79
  248.71        3338.00           6686        5575.00     24293.77
  248.74        3338.25           6690        6937.00     30240.07
  248.77        3338.50           6694        8233.00     35900.06
  248.79        3338.75           6698        9563.00     41710.42
  248.82        3339.00           6701       10650.00     46460.58
  248.85        3339.25           6705       11926.00     52038.28
  248.88        3339.50           6709       13376.00     58378.70
  248.90        3339.75           6713       14729.00     64297.00
  248.93        3340.00           6716       15655.00     68348.65
  248.96        3340.25           6720       17142.00     74856.82
  248.99        3340.50           6724       18350.00     80145.66
  249.01        3340.75           6728       19656.00     85865.30
  249.04        3341.00           6731       20741.00     90618.48
  249.07        3341.25           6735       21755.00     95061.76
  249.10        3341.50           6739       22829.00     99769.16
  249.12        3341.75           6743       23451.00    102496.00
  249.15        3342.00           6746       23632.00    103289.60
  249.18        3342.25           6750       23447.00    102478.50
  249.21        3342.50           6754       22885.00    100014.70
  249.23        3342.75           6758       21688.00     94768.14
  249.26        3343.00           6761       20781.00     90793.74
  249.29        3343.25           6765       19280.00     84218.42
  249.32        3343.50           6769       18090.00     79007.19
  249.34        3343.75           6773       16626.00     72598.16
  249.37        3344.00           6776       15719.00     68628.71
  249.40        3344.25           6780       14409.00     62897.07
  249.43        3344.50           6784       12985.00     56668.75
  249.45        3344.75           6788       11632.00     50752.98
  249.48        3345.00           6791       10583.00     46167.75
  249.51        3345.25           6795        9256.00     40369.06
  249.54        3345.50           6799        7377.00     32161.47
  249.56        3345.75           6803        5656.00     24647.35
  249.59        3346.00           6806        4609.00     20077.55
  249.62        3346.25           6810        3640.00     15849.23
  249.64        3346.50           6814        2642.00     11495.42
  249.67        3346.75           6818        1694.00      7360.71
  249.70        3347.00           6821        1097.00      4757.39
  249.73        3347.25           6825         441.00      1897.22
  249.76        3347.50           6829         123.00       510.91
  249.78        3347.75           6833          33.00       118.57
  249.81        3348.00           6836          31.00       109.85
  249.84        3348.25           6840          32.00       114.21
  249.86        3348.50           6844          32.00       114.21
  249.89        3348.75           6848          25.00        83.70
  249.92        3349.00           6851          29.00       101.13
  249.95        3349.25           6855          35.00       127.29
  249.97        3349.50           6859          25.00        83.70
  250.00        3349.75           6863          32.00       114.21
  250.03        3350.00           6867          24.00        79.34
  250.06        3350.25           6870          29.00       101.13
  250.08        3350.50           6874          33.00       118.57
  250.11        3350.75           6878          29.00       101.13
  250.14        3351.00           6882          32.00       114.21
HL scan finished at 04:10:46
end
