************************************************************
  HL Scan of (1) Internal mercury lamp
************************************************************
Integration time is 0.2294 seconds per sample
dh300319Tamanrasset 22.79-5.529 4.974364pr865
************************************************************
Dead Time -------------------------  2.8E-08 
Number of Cycles Used -------------  4 
Starting Wavelength (Angstroms) ---  3331 
Final Wavelength (Angstoms) -------  3351 
Wavelength Increment (Angstroms) --  .25 
Filter Wheel #1 Position ---------- (1) Ground quartz diffuser (ND=2.32)
Filter Wheel #2 Position ---------- (0) Clear Aperture



************************************************************
HL scan start time = 04:02:15
Dark Count =  4.8 


Time (GMT)  Wavelength (Ang)  Step Number  Raw Counts  Counts/Second

  242.75        3331.00           6581          27.00        96.77
  242.97        3331.25           6585          34.00       127.29
  243.00        3331.50           6589          32.00       118.57
  243.03        3331.75           6593          30.00       109.85
  243.05        3332.00           6596          30.00       109.85
  243.08        3332.25           6600          28.00       101.13
  243.11        3332.50           6604          31.00       114.21
  243.14        3332.75           6608          25.00        88.06
  243.16        3333.00           6611          29.00       105.49
  243.19        3333.25           6615          25.00        88.06
  243.22        3333.50           6619          32.00       118.57
  243.24        3333.75           6623          28.00       101.13
  243.27        3334.00           6626          30.00       109.85
  243.30        3334.25           6630          31.00       114.21
  243.32        3334.50           6634          27.00        96.77
  243.35        3334.75           6638          30.00       109.85
  243.38        3335.00           6641          32.00       118.57
  243.41        3335.25           6645          36.00       136.01
  243.43        3335.50           6649          40.00       153.44
  243.46        3335.75           6653          45.00       175.24
  243.49        3336.00           6656         108.00       449.87
  243.52        3336.25           6660         350.00      1504.86
  243.54        3336.50           6664         926.00      4016.14
  243.57        3336.75           6668        1341.00      5825.71
  243.60        3337.00           6671        1996.00      8682.15
  243.62        3337.25           6675        3589.00     15631.08
  243.65        3337.50           6679        5237.00     22822.78
  243.68        3337.75           6683        6955.00     30323.03
  243.71        3338.00           6686        8379.00     36542.17
  243.73        3338.25           6690       10159.00     44319.13
  243.76        3338.50           6694       12080.00     52715.94
  243.79        3338.75           6698       13939.00     60845.51
  243.82        3339.00           6701       15348.00     67009.66
  243.84        3339.25           6705       17253.00     75347.10
  243.87        3339.50           6709       19134.00     83583.35
  243.90        3339.75           6713       20914.00     91380.86
  243.92        3340.00           6716       22184.00     96946.33
  243.95        3340.25           6720       24333.00    106367.80
  243.98        3340.50           6724       25959.00    113499.60
  244.01        3340.75           6728       27861.00    121845.70
  244.03        3341.00           6731       28971.00    126718.20
  244.06        3341.25           6735       30585.00    133805.50
  244.09        3341.50           6739       31672.00    138580.30
  244.12        3341.75           6743       32274.00    141225.20
  244.14        3342.00           6746       32298.00    141330.60
  244.17        3342.25           6750       31897.00    139568.80
  244.20        3342.50           6754       30943.00    135377.90
  244.23        3342.75           6758       28822.00    126064.10
  244.25        3343.00           6761       27783.00    121503.30
  244.28        3343.25           6765       25759.00    112622.30
  244.31        3343.50           6769       24294.00    106196.70
  244.33        3343.75           6773       22503.00     98344.54
  244.36        3344.00           6776       20769.00     90745.55
  244.39        3344.25           6780       19196.00     83854.90
  244.42        3344.50           6784       17340.00     75727.97
  244.44        3344.75           6788       15295.00     66777.75
  244.47        3345.00           6791       13882.00     60596.19
  244.50        3345.25           6795       11963.00     52204.42
  244.53        3345.50           6799        9343.00     40753.54
  244.55        3345.75           6803        6973.00     30401.63
  244.58        3346.00           6806        5526.00     24084.24
  244.61        3346.25           6810        4035.00     17577.09
  244.64        3346.50           6814        3102.00     13506.41
  244.66        3346.75           6818        1880.00      8176.24
  244.69        3347.00           6821        1185.00      5145.47
  244.72        3347.25           6825         389.00      1674.88
  244.74        3347.50           6829          85.00       349.61
  244.77        3347.75           6833          38.00       144.73
  244.80        3348.00           6836          33.00       122.93
  244.83        3348.25           6840          33.00       122.93
  244.85        3348.50           6844          34.00       127.29
  244.88        3348.75           6848          27.00        96.77
  244.91        3349.00           6851          33.00       122.93
  244.93        3349.25           6855          39.00       149.09
  244.96        3349.50           6859          31.00       114.21
  244.99        3349.75           6863          34.00       127.29
  245.02        3350.00           6867          34.00       127.29
  245.04        3350.25           6870          35.00       131.65
  245.07        3350.50           6874          28.00       101.13
  245.10        3350.75           6878          35.00       131.65
  245.12        3351.00           6882          34.00       127.29
HL scan finished at 04:05:45
end
