************************************************************
  HL Scan of (1) Internal mercury lamp
************************************************************
Integration time is 0.2294 seconds per sample
dh230319Tamanrasset 22.79-5.529 4.974364pr865
************************************************************
Dead Time -------------------------  2.8E-08 
Number of Cycles Used -------------  4 
Starting Wavelength (Angstroms) ---  3331 
Final Wavelength (Angstoms) -------  3351 
Wavelength Increment (Angstroms) --  .25 
Filter Wheel #1 Position ---------- (1) Ground quartz diffuser (ND=2.32)
Filter Wheel #2 Position ---------- (0) Clear Aperture



************************************************************
HL scan start time = 04:08:47
Dark Count =  2.6 


Time (GMT)  Wavelength (Ang)  Step Number  Raw Counts  Counts/Second

  249.29        3331.00           6581          35.00       141.24
  249.51        3331.25           6585          30.00       119.44
  249.54        3331.50           6589          26.00       102.01
  249.56        3331.75           6593          30.00       119.44
  249.59        3332.00           6596          25.00        97.65
  249.62        3332.25           6600          29.00       115.08
  249.64        3332.50           6604          25.00        97.65
  249.67        3332.75           6608          28.00       110.72
  249.70        3333.00           6611          29.00       115.08
  249.73        3333.25           6615          25.00        97.65
  249.75        3333.50           6619          26.00       102.01
  249.78        3333.75           6623          29.00       115.08
  249.81        3334.00           6626          28.00       110.72
  249.84        3334.25           6630          25.00        97.65
  249.86        3334.50           6634          24.00        93.29
  249.89        3334.75           6638          30.00       119.44
  249.92        3335.00           6641          29.00       115.08
  249.95        3335.25           6645          28.00       110.72
  249.97        3335.50           6649          30.00       119.44
  250.00        3335.75           6653          27.00       106.36
  250.03        3336.00           6656          38.00       154.32
  250.05        3336.25           6660         117.00       498.70
  250.08        3336.50           6664         409.00      1771.67
  250.11        3336.75           6668         693.00      3009.84
  250.14        3337.00           6671        1059.00      4605.65
  250.16        3337.25           6675        2014.00      8770.24
  250.19        3337.50           6679        3431.00     14951.33
  250.22        3337.75           6683        4691.00     20449.37
  250.25        3338.00           6686        5720.00     24940.69
  250.27        3338.25           6690        7167.00     31258.38
  250.30        3338.50           6694        8642.00     37700.63
  250.33        3338.75           6698        9914.00     43258.13
  250.36        3339.00           6701       10933.00     47711.48
  250.38        3339.25           6705       12389.00     54076.59
  250.41        3339.50           6709       13814.00     60308.38
  250.44        3339.75           6713       15259.00     66629.87
  250.47        3340.00           6716       16193.00     70717.06
  250.49        3340.25           6720       17679.00     77221.72
  250.52        3340.50           6724       18982.00     82927.30
  250.55        3340.75           6728       20306.00     88726.69
  250.58        3341.00           6731       21209.00     92683.11
  250.60        3341.25           6735       22436.00     98060.51
  250.63        3341.50           6739       23687.00    103544.80
  250.66        3341.75           6743       24220.00    105881.90
  250.68        3342.00           6746       24262.00    106066.10
  250.71        3342.25           6750       24413.00    106728.20
  250.74        3342.50           6754       23685.00    103536.00
  250.77        3342.75           6758       22389.00     97854.50
  250.79        3343.00           6761       21428.00     93642.78
  250.82        3343.25           6765       20153.00     88056.42
  250.85        3343.50           6769       18821.00     82222.21
  250.88        3343.75           6773       17441.00     76179.76
  250.90        3344.00           6776       16239.00     70918.38
  250.93        3344.25           6780       15026.00     65610.40
  250.96        3344.50           6784       13572.00     59249.92
  250.99        3344.75           6788       12177.00     53149.66
  251.01        3345.00           6791       11064.00     48284.07
  251.04        3345.25           6795        9679.00     42231.25
  251.07        3345.50           6799        7756.00     33830.64
  251.10        3345.75           6803        5985.00     26097.53
  251.12        3346.00           6806        4783.00     20850.88
  251.15        3346.25           6810        3744.00     16316.96
  251.18        3346.50           6814        2823.00     12298.92
  251.21        3346.75           6818        1804.00      7854.39
  251.23        3347.00           6821        1260.00      5482.10
  251.26        3347.25           6825         499.00      2164.04
  251.29        3347.50           6829         123.00       524.86
  251.32        3347.75           6833          36.00       145.60
  251.34        3348.00           6836          36.00       145.60
  251.37        3348.25           6840          30.00       119.44
  251.40        3348.50           6844          36.00       145.60
  251.43        3348.75           6848          29.00       115.08
  251.45        3349.00           6851          27.00       106.36
  251.48        3349.25           6855          29.00       115.08
  251.51        3349.50           6859          33.00       132.52
  251.54        3349.75           6863          27.00       106.36
  251.56        3350.00           6867          27.00       106.36
  251.59        3350.25           6870          29.00       115.08
  251.62        3350.50           6874          30.00       119.44
  251.64        3350.75           6878          25.00        97.65
  251.67        3351.00           6882          28.00       110.72
HL scan finished at 04:12:18
end
