************************************************************
  HL Scan of (1) Internal mercury lamp
************************************************************
Integration time is 0.2294 seconds per sample
dh260319Tamanrasset 22.79-5.529 4.974364pr865
************************************************************
Dead Time -------------------------  2.8E-08 
Number of Cycles Used -------------  4 
Starting Wavelength (Angstroms) ---  3331 
Final Wavelength (Angstoms) -------  3351 
Wavelength Increment (Angstroms) --  .25 
Filter Wheel #1 Position ---------- (1) Ground quartz diffuser (ND=2.32)
Filter Wheel #2 Position ---------- (0) Clear Aperture



************************************************************
HL scan start time = 04:06:15
Dark Count =  4.7 


Time (GMT)  Wavelength (Ang)  Step Number  Raw Counts  Counts/Second

  246.77        3331.00           6581          28.00       101.57
  246.98        3331.25           6585          31.00       114.65
  247.01        3331.50           6589          29.00       105.93
  247.04        3331.75           6593          28.00       101.57
  247.07        3332.00           6596          25.00        88.49
  247.09        3332.25           6600          29.00       105.93
  247.12        3332.50           6604          30.00       110.29
  247.15        3332.75           6608          32.00       119.01
  247.18        3333.00           6611          28.00       101.57
  247.20        3333.25           6615          32.00       119.01
  247.23        3333.50           6619          25.00        88.49
  247.26        3333.75           6623          30.00       110.29
  247.28        3334.00           6626          31.00       114.65
  247.31        3334.25           6630          30.00       110.29
  247.34        3334.50           6634          32.00       119.01
  247.37        3334.75           6638          29.00       105.93
  247.39        3335.00           6641          33.00       123.37
  247.42        3335.25           6645          36.00       136.44
  247.45        3335.50           6649          37.00       140.80
  247.48        3335.75           6653          37.00       140.80
  247.50        3336.00           6656          47.00       184.40
  247.53        3336.25           6660         154.00       650.84
  247.56        3336.50           6664         553.00      2390.31
  247.58        3336.75           6668         971.00      4212.79
  247.61        3337.00           6671        1323.00      5747.66
  247.64        3337.25           6675        2517.00     10954.97
  247.67        3337.50           6679        4058.00     17677.89
  247.69        3337.75           6683        5534.00     24119.60
  247.72        3338.00           6686        6746.00     29410.87
  247.75        3338.25           6690        8292.00     36162.58
  247.78        3338.50           6694        9929.00     43314.49
  247.80        3338.75           6698       11493.00     50150.15
  247.83        3339.00           6701       12563.00     54828.23
  247.86        3339.25           6705       14095.00     61528.32
  247.89        3339.50           6709       15869.00     69289.93
  247.91        3339.75           6713       17574.00     76752.83
  247.94        3340.00           6716       18636.00     81402.86
  247.97        3340.25           6720       20318.00     88770.07
  248.00        3340.50           6724       21950.00     95921.19
  248.02        3340.75           6728       23523.00    102816.50
  248.05        3341.00           6731       24513.00    107157.60
  248.08        3341.25           6735       25802.00    112811.30
  248.11        3341.50           6739       26931.00    117764.80
  248.13        3341.75           6743       27543.00    120450.50
  248.16        3342.00           6746       27604.00    120718.20
  248.19        3342.25           6750       27569.00    120564.60
  248.22        3342.50           6754       26816.00    117260.10
  248.24        3342.75           6758       25190.00    110126.80
  248.27        3343.00           6761       24036.00    105065.80
  248.30        3343.25           6765       22557.00     98581.69
  248.33        3343.50           6769       21234.00     92783.46
  248.35        3343.75           6773       19579.00     85532.84
  248.38        3344.00           6776       18560.00     81070.04
  248.41        3344.25           6780       16923.00     73903.00
  248.44        3344.50           6784       15214.00     66423.78
  248.46        3344.75           6788       13601.00     59367.57
  248.49        3345.00           6791       12387.00     54058.67
  248.52        3345.25           6795       10837.00     47282.70
  248.55        3345.50           6799        8646.00     37708.93
  248.57        3345.75           6803        6488.00     28284.38
  248.60        3346.00           6806        5170.00     22530.77
  248.63        3346.25           6810        3985.00     17359.35
  248.66        3346.50           6814        2836.00     12346.46
  248.68        3346.75           6818        1765.00      7675.15
  248.71        3347.00           6821        1235.00      5363.93
  248.74        3347.25           6825         485.00      2093.85
  248.76        3347.50           6829         120.00       502.62
  248.79        3347.75           6833          33.00       123.37
  248.82        3348.00           6836          41.00       158.24
  248.85        3348.25           6840          28.00       101.57
  248.87        3348.50           6844          32.00       119.01
  248.90        3348.75           6848          34.00       127.72
  248.93        3349.00           6851          30.00       110.29
  248.96        3349.25           6855          30.00       110.29
  248.98        3349.50           6859          33.00       123.37
  249.01        3349.75           6863          32.00       119.01
  249.04        3350.00           6867          32.00       119.01
  249.06        3350.25           6870          23.00        79.77
  249.09        3350.50           6874          32.00       119.01
  249.12        3350.75           6878          32.00       119.01
  249.15        3351.00           6882          30.00       110.29
HL scan finished at 04:09:46
end
