************************************************************
  HL Scan of (1) Internal mercury lamp
************************************************************
Integration time is 0.2294 seconds per sample
dh290317Tamanrasset 22.79-5.529 2.991121pr865
************************************************************
Dead Time -------------------------  2.8E-08 
Number of Cycles Used -------------  4 
Starting Wavelength (Angstroms) ---  3331 
Final Wavelength (Angstoms) -------  3351 
Wavelength Increment (Angstroms) --  .25 
Filter Wheel #1 Position ---------- (1) Ground quartz diffuser (ND=2.32)
Filter Wheel #2 Position ---------- (0) Clear Aperture



************************************************************
HL scan start time = 03:34:45
Dark Count =  4.2 


Time (GMT)  Wavelength (Ang)  Step Number  Raw Counts  Counts/Second

  215.27        3331.00           6581           8.00        16.56
  215.48        3331.25           6585           8.00        16.56
  215.51        3331.50           6589           3.00         2.00
  215.54        3331.75           6593           5.00         3.49
  215.57        3332.00           6596           6.00         7.85
  215.59        3332.25           6600           6.00         7.85
  215.62        3332.50           6604           3.00         2.00
  215.65        3332.75           6608           7.00        12.21
  215.67        3333.00           6611           0.00         2.00
  215.70        3333.25           6615           4.00         2.00
  215.73        3333.50           6619           9.00        20.92
  215.76        3333.75           6623           1.00         2.00
  215.78        3334.00           6626           4.00         2.00
  215.81        3334.25           6630           2.00         2.00
  215.84        3334.50           6634           5.00         3.49
  215.86        3334.75           6638           6.00         7.85
  215.89        3335.00           6641           3.00         2.00
  215.92        3335.25           6645           4.00         2.00
  215.95        3335.50           6649           6.00         7.85
  215.97        3335.75           6653           8.00        16.56
  216.00        3336.00           6656           7.00        12.21
  216.03        3336.25           6660           6.00         7.85
  216.05        3336.50           6664           0.00         2.00
  216.08        3336.75           6668           5.00         3.49
  216.11        3337.00           6671           8.00        16.56
  216.13        3337.25           6675           6.00         7.85
  216.16        3337.50           6679           0.00         2.00
  216.19        3337.75           6683           0.00         2.00
  216.22        3338.00           6686           8.00        16.56
  216.24        3338.25           6690           7.00        12.21
  216.27        3338.50           6694           8.00        16.56
  216.30        3338.75           6698           4.00         2.00
  216.32        3339.00           6701           7.00        12.21
  216.35        3339.25           6705           4.00         2.00
  216.38        3339.50           6709           6.00         7.85
  216.41        3339.75           6713           4.00         2.00
  216.43        3340.00           6716           6.00         7.85
  216.46        3340.25           6720           4.00         2.00
  216.49        3340.50           6724           5.00         3.49
  216.51        3340.75           6728           5.00         3.49
  216.54        3341.00           6731           0.00         2.00
  216.57        3341.25           6735           5.00         3.49
  216.60        3341.50           6739           4.00         2.00
  216.62        3341.75           6743           5.00         3.49
  216.65        3342.00           6746           8.00        16.56
  216.68        3342.25           6750           6.00         7.85
  216.70        3342.50           6754           2.00         2.00
  216.73        3342.75           6758           0.00         2.00
  216.76        3343.00           6761           1.00         2.00
  216.79        3343.25           6765           8.00        16.56
  216.81        3343.50           6769           3.00         2.00
  216.84        3343.75           6773           5.00         3.49
  216.87        3344.00           6776           8.00        16.56
  216.89        3344.25           6780           5.00         3.49
  216.92        3344.50           6784           8.00        16.56
  216.95        3344.75           6788           0.00         2.00
  216.98        3345.00           6791           0.00         2.00
  217.00        3345.25           6795           5.00         3.49
  217.03        3345.50           6799           2.00         2.00
  217.06        3345.75           6803           4.00         2.00
  217.08        3346.00           6806           6.00         7.85
  217.11        3346.25           6810           1.00         2.00
  217.14        3346.50           6814           8.00        16.56
  217.17        3346.75           6818           8.00        16.56
  217.19        3347.00           6821           2.00         2.00
  217.22        3347.25           6825           1.00         2.00
  217.25        3347.50           6829           2.00         2.00
  217.27        3347.75           6833           1.00         2.00
  217.30        3348.00           6836           3.00         2.00
  217.33        3348.25           6840           0.00         2.00
  217.35        3348.50           6844           2.00         2.00
  217.38        3348.75           6848           8.00        16.56
  217.41        3349.00           6851           3.00         2.00
  217.44        3349.25           6855           8.00        16.56
  217.46        3349.50           6859           4.00         2.00
  217.49        3349.75           6863           5.00         3.49
  217.52        3350.00           6867           8.00        16.56
  217.55        3350.25           6870           5.00         3.49
  217.57        3350.50           6874           0.00         2.00
  217.60        3350.75           6878           8.00        16.56
  217.63        3351.00           6882           4.00         2.00
HL scan finished at 03:38:15
end
