************************************************************
  HL Scan of (1) Internal mercury lamp
************************************************************
Integration time is 0.2294 seconds per sample
dh220317Tamanrasset 22.79-5.529 2.72091pr865
************************************************************
Dead Time -------------------------  2.8E-08 
Number of Cycles Used -------------  4 
Starting Wavelength (Angstroms) ---  3331 
Final Wavelength (Angstoms) -------  3351 
Wavelength Increment (Angstroms) --  .25 
Filter Wheel #1 Position ---------- (1) Ground quartz diffuser (ND=2.32)
Filter Wheel #2 Position ---------- (0) Clear Aperture



************************************************************
HL scan start time = 03:42:09
Dark Count =  3.4 


Time (GMT)  Wavelength (Ang)  Step Number  Raw Counts  Counts/Second

  222.66        3331.00           6581           0.00         2.00
  222.87        3331.25           6585           2.00         2.00
  222.90        3331.50           6589           4.00         2.62
  222.93        3331.75           6593           5.00         6.97
  222.96        3332.00           6596           1.00         2.00
  222.98        3332.25           6600           7.00        15.69
  223.01        3332.50           6604           2.00         2.00
  223.04        3332.75           6608           8.00        20.05
  223.06        3333.00           6611           9.00        24.41
  223.09        3333.25           6615           7.00        15.69
  223.12        3333.50           6619           4.00         2.62
  223.15        3333.75           6623           0.00         2.00
  223.17        3334.00           6626           0.00         2.00
  223.20        3334.25           6630           8.00        20.05
  223.23        3334.50           6634           0.00         2.00
  223.25        3334.75           6638           0.00         2.00
  223.28        3335.00           6641           7.00        15.69
  223.31        3335.25           6645           0.00         2.00
  223.33        3335.50           6649           8.00        20.05
  223.36        3335.75           6653           8.00        20.05
  223.39        3336.00           6656           3.00         2.00
  223.42        3336.25           6660           8.00        20.05
  223.44        3336.50           6664           1.00         2.00
  223.47        3336.75           6668           0.00         2.00
  223.50        3337.00           6671           8.00        20.05
  223.52        3337.25           6675           3.00         2.00
  223.55        3337.50           6679           8.00        20.05
  223.58        3337.75           6683           5.00         6.97
  223.61        3338.00           6686           0.00         2.00
  223.63        3338.25           6690           8.00        20.05
  223.66        3338.50           6694           8.00        20.05
  223.69        3338.75           6698           0.00         2.00
  223.71        3339.00           6701           1.00         2.00
  223.74        3339.25           6705           8.00        20.05
  223.77        3339.50           6709           8.00        20.05
  223.80        3339.75           6713           0.00         2.00
  223.82        3340.00           6716           7.00        15.69
  223.85        3340.25           6720           3.00         2.00
  223.88        3340.50           6724           8.00        20.05
  223.90        3340.75           6728           0.00         2.00
  223.93        3341.00           6731           0.00         2.00
  223.96        3341.25           6735           5.00         6.97
  223.99        3341.50           6739           6.00        11.33
  224.01        3341.75           6743           4.00         2.62
  224.04        3342.00           6746           1.00         2.00
  224.07        3342.25           6750           8.00        20.05
  224.09        3342.50           6754           8.00        20.05
  224.12        3342.75           6758           8.00        20.05
  224.15        3343.00           6761           0.00         2.00
  224.18        3343.25           6765           8.00        20.05
  224.20        3343.50           6769           0.00         2.00
  224.23        3343.75           6773           0.00         2.00
  224.26        3344.00           6776           4.00         2.62
  224.28        3344.25           6780           6.00        11.33
  224.31        3344.50           6784           0.00         2.00
  224.34        3344.75           6788           0.00         2.00
  224.37        3345.00           6791           7.00        15.69
  224.39        3345.25           6795           2.00         2.00
  224.42        3345.50           6799           8.00        20.05
  224.45        3345.75           6803           3.00         2.00
  224.47        3346.00           6806           8.00        20.05
  224.50        3346.25           6810           8.00        20.05
  224.53        3346.50           6814           8.00        20.05
  224.56        3346.75           6818           8.00        20.05
  224.58        3347.00           6821           7.00        15.69
  224.61        3347.25           6825           8.00        20.05
  224.64        3347.50           6829           8.00        20.05
  224.66        3347.75           6833           0.00         2.00
  224.69        3348.00           6836           3.00         2.00
  224.72        3348.25           6840           8.00        20.05
  224.75        3348.50           6844           8.00        20.05
  224.77        3348.75           6848           8.00        20.05
  224.80        3349.00           6851           0.00         2.00
  224.83        3349.25           6855           1.00         2.00
  224.85        3349.50           6859           0.00         2.00
  224.88        3349.75           6863           8.00        20.05
  224.91        3350.00           6867           8.00        20.05
  224.94        3350.25           6870           1.00         2.00
  224.96        3350.50           6874           8.00        20.05
  224.99        3350.75           6878           5.00         6.97
  225.02        3351.00           6882           3.00         2.00
HL scan finished at 03:45:38
end
