************************************************************
  HL Scan of (1) Internal mercury lamp
************************************************************
Integration time is 0.2294 seconds per sample
dh220319Tamanrasset 22.79-5.529 4.974364pr865
************************************************************
Dead Time -------------------------  2.8E-08 
Number of Cycles Used -------------  4 
Starting Wavelength (Angstroms) ---  3331 
Final Wavelength (Angstoms) -------  3351 
Wavelength Increment (Angstroms) --  .25 
Filter Wheel #1 Position ---------- (1) Ground quartz diffuser (ND=2.32)
Filter Wheel #2 Position ---------- (0) Clear Aperture



************************************************************
HL scan start time = 04:09:46
Dark Count =  4.2 


Time (GMT)  Wavelength (Ang)  Step Number  Raw Counts  Counts/Second

  250.28        3331.00           6581          29.00       108.11
  250.49        3331.25           6585          31.00       116.83
  250.52        3331.50           6589          23.00        81.95
  250.55        3331.75           6593          25.00        90.67
  250.58        3332.00           6596          26.00        95.03
  250.60        3332.25           6600          22.00        77.59
  250.63        3332.50           6604          25.00        90.67
  250.66        3332.75           6608          25.00        90.67
  250.69        3333.00           6611          31.00       116.83
  250.71        3333.25           6615          32.00       121.19
  250.74        3333.50           6619          27.00        99.39
  250.77        3333.75           6623          31.00       116.83
  250.79        3334.00           6626          28.00       103.75
  250.82        3334.25           6630          26.00        95.03
  250.85        3334.50           6634          24.00        86.31
  250.88        3334.75           6638          19.00        64.52
  250.90        3335.00           6641          24.00        86.31
  250.93        3335.25           6645          29.00       108.11
  250.96        3335.50           6649          35.00       134.26
  250.99        3335.75           6653          36.00       138.62
  251.01        3336.00           6656          41.00       160.42
  251.04        3336.25           6660         159.00       674.82
  251.07        3336.50           6664         458.00      1978.31
  251.09        3336.75           6668         917.00      3979.52
  251.12        3337.00           6671        1316.00      5719.31
  251.15        3337.25           6675        2414.00     10507.89
  251.18        3337.50           6679        3638.00     15847.49
  251.20        3337.75           6683        4821.00     21009.74
  251.23        3338.00           6686        5865.00     25566.68
  251.26        3338.25           6690        7242.00     31578.92
  251.29        3338.50           6694        8584.00     37440.28
  251.31        3338.75           6698       10009.00     43666.26
  251.34        3339.00           6701       10934.00     47708.85
  251.37        3339.25           6705       12384.00     54047.73
  251.40        3339.50           6709       13797.00     60227.03
  251.42        3339.75           6713       15110.00     65970.93
  251.45        3340.00           6716       15993.00     69834.77
  251.48        3340.25           6720       17418.00     76072.06
  251.51        3340.50           6724       18747.00     81891.15
  251.53        3340.75           6728       20059.00     87637.64
  251.56        3341.00           6731       21108.00     92233.54
  251.59        3341.25           6735       22083.00     96506.29
  251.62        3341.50           6739       22986.00    100464.40
  251.64        3341.75           6743       23452.00    102507.40
  251.67        3342.00           6746       23433.00    102424.10
  251.70        3342.25           6750       23374.00    102165.40
  251.72        3342.50           6754       22737.00     99372.89
  251.75        3342.75           6758       21358.00     93329.02
  251.78        3343.00           6761       20437.00     89293.60
  251.81        3343.25           6765       19020.00     83086.71
  251.84        3343.50           6769       17760.00     77569.35
  251.86        3343.75           6773       16404.00     71633.51
  251.89        3344.00           6776       15531.00     67813.04
  251.92        3344.25           6780       14099.00     61548.00
  251.95        3344.50           6784       12777.00     55766.18
  251.97        3344.75           6788       11399.00     49741.42
  252.00        3345.00           6791       10283.00     44863.65
  252.03        3345.25           6795        8879.00     38728.99
  252.05        3345.50           6799        7055.00     30762.32
  252.08        3345.75           6803        5425.00     23645.99
  252.11        3346.00           6806        4317.00     18810.25
  252.14        3346.25           6810        3257.00     14185.23
  252.16        3346.50           6814        2380.00     10359.59
  252.19        3346.75           6818        1385.00      6020.20
  252.22        3347.00           6821         972.00      4219.33
  252.25        3347.25           6825         332.00      1429.00
  252.27        3347.50           6829          69.00       282.48
  252.30        3347.75           6833          37.00       142.98
  252.33        3348.00           6836          36.00       138.62
  252.36        3348.25           6840          27.00        99.39
  252.38        3348.50           6844          24.00        86.31
  252.41        3348.75           6848          27.00        99.39
  252.44        3349.00           6851          38.00       147.34
  252.46        3349.25           6855          28.00       103.75
  252.49        3349.50           6859          27.00        99.39
  252.52        3349.75           6863          27.00        99.39
  252.55        3350.00           6867          35.00       134.26
  252.57        3350.25           6870          29.00       108.11
  252.60        3350.50           6874          29.00       108.11
  252.63        3350.75           6878          28.00       103.75
  252.66        3351.00           6882          31.00       116.83
HL scan finished at 04:13:17
end
