************************************************************
  HL Scan of (1) Internal mercury lamp
************************************************************
Integration time is 0.2294 seconds per sample
dh290319Tamanrasset 22.79-5.529 4.974364pr865
************************************************************
Dead Time -------------------------  2.8E-08 
Number of Cycles Used -------------  4 
Starting Wavelength (Angstroms) ---  3331 
Final Wavelength (Angstoms) -------  3351 
Wavelength Increment (Angstroms) --  .25 
Filter Wheel #1 Position ---------- (1) Ground quartz diffuser (ND=2.32)
Filter Wheel #2 Position ---------- (0) Clear Aperture



************************************************************
HL scan start time = 04:03:29
Dark Count =  4.6 


Time (GMT)  Wavelength (Ang)  Step Number  Raw Counts  Counts/Second

  243.99        3331.00           6581          33.00       123.80
  244.21        3331.25           6585          33.00       123.80
  244.24        3331.50           6589          29.00       106.36
  244.26        3331.75           6593          26.00        93.29
  244.29        3332.00           6596          26.00        93.29
  244.32        3332.25           6600          30.00       110.72
  244.35        3332.50           6604          28.00       102.01
  244.37        3332.75           6608          28.00       102.01
  244.40        3333.00           6611          28.00       102.01
  244.43        3333.25           6615          32.00       119.44
  244.45        3333.50           6619          34.00       128.16
  244.48        3333.75           6623          31.00       115.08
  244.51        3334.00           6626          26.00        93.29
  244.54        3334.25           6630          33.00       123.80
  244.56        3334.50           6634          28.00       102.01
  244.59        3334.75           6638          30.00       110.72
  244.62        3335.00           6641          30.00       110.72
  244.64        3335.25           6645          29.00       106.36
  244.67        3335.50           6649          46.00       180.47
  244.70        3335.75           6653          36.00       136.88
  244.73        3336.00           6656          93.00       385.36
  244.75        3336.25           6660         404.00      1741.15
  244.78        3336.50           6664        1048.00      4548.97
  244.81        3336.75           6668        1550.00      6737.98
  244.83        3337.00           6671        2127.00      9254.36
  244.86        3337.25           6675        3610.00     15723.57
  244.89        3337.50           6679        5335.00     23251.40
  244.92        3337.75           6683        6976.00     30415.61
  244.94        3338.00           6686        8242.00     35944.62
  244.97        3338.25           6690       10104.00     44079.66
  245.00        3338.50           6694       11822.00     51588.85
  245.03        3338.75           6698       13536.00     59083.72
  245.05        3339.00           6701       14972.00     65365.39
  245.08        3339.25           6705       16664.00     72769.75
  245.11        3339.50           6709       18607.00     81276.30
  245.13        3339.75           6713       20251.00     88476.99
  245.16        3340.00           6716       21456.00     93756.71
  245.19        3340.25           6720       23356.00    102084.80
  245.22        3340.50           6724       25282.00    110530.80
  245.24        3340.75           6728       26711.00    116799.90
  245.27        3341.00           6731       27955.00    122259.10
  245.30        3341.25           6735       29279.00    128071.40
  245.33        3341.50           6739       30509.00    133472.60
  245.35        3341.75           6743       30889.00    135141.60
  245.38        3342.00           6746       30836.00    134908.80
  245.41        3342.25           6750       30377.00    132892.90
  245.44        3342.50           6754       29181.00    127641.10
  245.46        3342.75           6758       27226.00    119059.70
  245.49        3343.00           6761       26205.00    114579.80
  245.52        3343.25           6765       24538.00    107267.70
  245.54        3343.50           6769       23087.00    100905.40
  245.57        3343.75           6773       21286.00     93011.75
  245.60        3344.00           6776       19800.00     86501.33
  245.63        3344.25           6780       18111.00     79104.40
  245.65        3344.50           6784       16180.00     70651.40
  245.68        3344.75           6788       14409.00     62902.33
  245.71        3345.00           6791       13128.00     57299.36
  245.74        3345.25           6795       11260.00     49132.07
  245.76        3345.50           6799        8772.00     38259.80
  245.79        3345.75           6803        6446.00     28101.44
  245.82        3346.00           6806        5086.00     22164.58
  245.85        3346.25           6810        3417.00     14881.53
  245.87        3346.50           6814        2461.00     10711.15
  245.90        3346.75           6818        1561.00      6785.95
  245.93        3347.00           6821        1017.00      4413.80
  245.95        3347.25           6825         313.00      1344.43
  245.98        3347.50           6829          62.00       250.22
  246.01        3347.75           6833          32.00       119.44
  246.04        3348.00           6836          36.00       136.88
  246.06        3348.25           6840          34.00       128.16
  246.09        3348.50           6844          32.00       119.44
  246.12        3348.75           6848          29.00       106.36
  246.14        3349.00           6851          36.00       136.88
  246.17        3349.25           6855          33.00       123.80
  246.20        3349.50           6859          27.00        97.65
  246.22        3349.75           6863          35.00       132.52
  246.25        3350.00           6867          35.00       132.52
  246.28        3350.25           6870          38.00       145.60
  246.31        3350.50           6874          29.00       106.36
  246.33        3350.75           6878          34.00       128.16
  246.36        3351.00           6882          30.00       110.72
HL scan finished at 04:06:59
end
