************************************************************
  HL Scan of (1) Internal mercury lamp
************************************************************
Integration time is 0.2294 seconds per sample
dh280317Tamanrasset 22.79-5.529 2.889154pr865
************************************************************
Dead Time -------------------------  2.8E-08 
Number of Cycles Used -------------  4 
Starting Wavelength (Angstroms) ---  3331 
Final Wavelength (Angstoms) -------  3351 
Wavelength Increment (Angstroms) --  .25 
Filter Wheel #1 Position ---------- (1) Ground quartz diffuser (ND=2.32)
Filter Wheel #2 Position ---------- (0) Clear Aperture



************************************************************
HL scan start time = 03:35:59
Dark Count =  4.5 


Time (GMT)  Wavelength (Ang)  Step Number  Raw Counts  Counts/Second

  216.49        3331.00           6581           1.00         2.00
  216.71        3331.25           6585           2.00         2.00
  216.73        3331.50           6589           8.00        15.26
  216.76        3331.75           6593           6.00         6.54
  216.79        3332.00           6596           1.00         2.00
  216.82        3332.25           6600           3.00         2.00
  216.84        3332.50           6604           8.00        15.26
  216.87        3332.75           6608           8.00        15.26
  216.90        3333.00           6611           0.00         2.00
  216.92        3333.25           6615           0.00         2.00
  216.95        3333.50           6619           3.00         2.00
  216.98        3333.75           6623           6.00         6.54
  217.01        3334.00           6626           8.00        15.26
  217.03        3334.25           6630           6.00         6.54
  217.06        3334.50           6634           6.00         6.54
  217.09        3334.75           6638           8.00        15.26
  217.11        3335.00           6641           8.00        15.26
  217.14        3335.25           6645           0.00         2.00
  217.17        3335.50           6649           5.00         2.18
  217.19        3335.75           6653           8.00        15.26
  217.22        3336.00           6656           4.00         2.00
  217.25        3336.25           6660           0.00         2.00
  217.28        3336.50           6664           6.00         6.54
  217.30        3336.75           6668           8.00        15.26
  217.33        3337.00           6671           3.00         2.00
  217.36        3337.25           6675           8.00        15.26
  217.38        3337.50           6679           4.00         2.00
  217.41        3337.75           6683           0.00         2.00
  217.44        3338.00           6686           7.00        10.90
  217.47        3338.25           6690           8.00        15.26
  217.49        3338.50           6694           1.00         2.00
  217.52        3338.75           6698           0.00         2.00
  217.55        3339.00           6701           3.00         2.00
  217.57        3339.25           6705           8.00        15.26
  217.60        3339.50           6709           8.00        15.26
  217.63        3339.75           6713           5.00         2.18
  217.66        3340.00           6716           8.00        15.26
  217.68        3340.25           6720           3.00         2.00
  217.71        3340.50           6724           6.00         6.54
  217.74        3340.75           6728           6.00         6.54
  217.76        3341.00           6731           8.00        15.26
  217.79        3341.25           6735           4.00         2.00
  217.82        3341.50           6739           0.00         2.00
  217.85        3341.75           6743           3.00         2.00
  217.87        3342.00           6746           8.00        15.26
  217.90        3342.25           6750           8.00        15.26
  217.93        3342.50           6754           3.00         2.00
  217.95        3342.75           6758           4.00         2.00
  217.98        3343.00           6761           3.00         2.00
  218.01        3343.25           6765           1.00         2.00
  218.04        3343.50           6769           0.00         2.00
  218.06        3343.75           6773           3.00         2.00
  218.09        3344.00           6776           7.00        10.90
  218.12        3344.25           6780           1.00         2.00
  218.14        3344.50           6784           7.00        10.90
  218.17        3344.75           6788           8.00        15.26
  218.20        3345.00           6791           4.00         2.00
  218.22        3345.25           6795           0.00         2.00
  218.25        3345.50           6799           8.00        15.26
  218.28        3345.75           6803           3.00         2.00
  218.31        3346.00           6806           2.00         2.00
  218.33        3346.25           6810           6.00         6.54
  218.36        3346.50           6814           3.00         2.00
  218.39        3346.75           6818           7.00        10.90
  218.41        3347.00           6821           2.00         2.00
  218.44        3347.25           6825           8.00        15.26
  218.47        3347.50           6829           5.00         2.18
  218.50        3347.75           6833           6.00         6.54
  218.52        3348.00           6836           6.00         6.54
  218.55        3348.25           6840           4.00         2.00
  218.58        3348.50           6844           7.00        10.90
  218.60        3348.75           6848           0.00         2.00
  218.63        3349.00           6851           8.00        15.26
  218.66        3349.25           6855           1.00         2.00
  218.69        3349.50           6859           8.00        15.26
  218.71        3349.75           6863           7.00        10.90
  218.74        3350.00           6867           2.00         2.00
  218.77        3350.25           6870           6.00         6.54
  218.79        3350.50           6874           1.00         2.00
  218.82        3350.75           6878           8.00        15.26
  218.85        3351.00           6882           0.00         2.00
HL scan finished at 03:39:28
end
