************************************************************
  HL Scan of (1) Internal mercury lamp
************************************************************
Integration time is 0.2294 seconds per sample
dh280319Tamanrasset 22.79-5.529 4.974364pr865
************************************************************
Dead Time -------------------------  2.8E-08 
Number of Cycles Used -------------  4 
Starting Wavelength (Angstroms) ---  3331 
Final Wavelength (Angstoms) -------  3351 
Wavelength Increment (Angstroms) --  .25 
Filter Wheel #1 Position ---------- (1) Ground quartz diffuser (ND=2.32)
Filter Wheel #2 Position ---------- (0) Clear Aperture



************************************************************
HL scan start time = 04:04:13
Dark Count =  4.6 


Time (GMT)  Wavelength (Ang)  Step Number  Raw Counts  Counts/Second

  244.74        3331.00           6581          28.00       102.01
  244.95        3331.25           6585          30.00       110.72
  244.98        3331.50           6589          24.00        84.57
  245.01        3331.75           6593          31.00       115.08
  245.03        3332.00           6596          31.00       115.08
  245.06        3332.25           6600          30.00       110.72
  245.09        3332.50           6604          33.00       123.80
  245.12        3332.75           6608          29.00       106.36
  245.14        3333.00           6611          28.00       102.01
  245.17        3333.25           6615          27.00        97.65
  245.20        3333.50           6619          29.00       106.36
  245.23        3333.75           6623          35.00       132.52
  245.25        3334.00           6626          30.00       110.72
  245.28        3334.25           6630          28.00       102.01
  245.31        3334.50           6634          27.00        97.65
  245.33        3334.75           6638          28.00       102.01
  245.36        3335.00           6641          35.00       132.52
  245.39        3335.25           6645          35.00       132.52
  245.42        3335.50           6649          37.00       141.24
  245.44        3335.75           6653          35.00       132.52
  245.47        3336.00           6656          64.00       258.94
  245.50        3336.25           6660         305.00      1309.55
  245.52        3336.50           6664         883.00      3829.53
  245.55        3336.75           6668        1386.00      6022.81
  245.58        3337.00           6671        1966.00      8552.18
  245.61        3337.25           6675        3358.00     14624.12
  245.63        3337.50           6679        5025.00     21898.34
  245.66        3337.75           6683        6654.00     29009.61
  245.69        3338.00           6686        7932.00     34590.60
  245.72        3338.25           6690        9615.00     41942.86
  245.74        3338.50           6694       11353.00     49538.60
  245.77        3338.75           6698       12896.00     56284.81
  245.80        3339.00           6701       14413.00     62919.83
  245.82        3339.25           6705       16265.00     71023.41
  245.85        3339.50           6709       18064.00     78898.60
  245.88        3339.75           6713       19780.00     86413.72
  245.91        3340.00           6716       21098.00     92187.97
  245.93        3340.25           6720       22881.00    100002.40
  245.96        3340.50           6724       24598.00    107530.80
  245.99        3340.75           6728       26272.00    114873.70
  246.02        3341.00           6731       27473.00    120143.70
  246.04        3341.25           6735       28826.00    126082.50
  246.07        3341.50           6739       29863.00    130635.60
  246.10        3341.75           6743       30602.00    133881.10
  246.13        3342.00           6746       30447.00    133200.30
  246.15        3342.25           6750       30158.00    131931.10
  246.18        3342.50           6754       29049.00    127061.50
  246.21        3342.75           6758       27300.00    119384.50
  246.23        3343.00           6761       26124.00    114224.40
  246.26        3343.25           6765       24268.00    106083.60
  246.29        3343.50           6769       22823.00     99748.13
  246.32        3343.75           6773       20931.00     91456.22
  246.34        3344.00           6776       19657.00     85874.94
  246.37        3344.25           6780       17873.00     78062.33
  246.40        3344.50           6784       16136.00     70458.84
  246.43        3344.75           6788       14534.00     63449.16
  246.45        3345.00           6791       13113.00     57233.76
  246.48        3345.25           6795       11326.00     49420.57
  246.51        3345.50           6799        8890.00     38775.30
  246.53        3345.75           6803        6485.00     28271.72
  246.56        3346.00           6806        5118.00     22304.25
  246.59        3346.25           6810        3578.00     15583.96
  246.62        3346.50           6814        2694.00     11727.48
  246.64        3346.75           6818        1734.00      7540.39
  246.67        3347.00           6821        1135.00      4928.32
  246.70        3347.25           6825         375.00      1614.72
  246.73        3347.50           6829          78.00       319.97
  246.75        3347.75           6833          36.00       136.88
  246.78        3348.00           6836          35.00       132.52
  246.81        3348.25           6840          30.00       110.72
  246.83        3348.50           6844          37.00       141.24
  246.86        3348.75           6848          31.00       115.08
  246.89        3349.00           6851          31.00       115.08
  246.92        3349.25           6855          26.00        93.29
  246.94        3349.50           6859          28.00       102.01
  246.97        3349.75           6863          30.00       110.72
  247.00        3350.00           6867          31.00       115.08
  247.02        3350.25           6870          31.00       115.08
  247.05        3350.50           6874          30.00       110.72
  247.08        3350.75           6878          33.00       123.80
  247.11        3351.00           6882          31.00       115.08
HL scan finished at 04:07:44
end
