************************************************************
  HL Scan of (1) Internal mercury lamp
************************************************************
Integration time is 0.2294 seconds per sample
dh240319Tamanrasset 22.79-5.529 4.974364pr865
************************************************************
Dead Time -------------------------  2.8E-08 
Number of Cycles Used -------------  4 
Starting Wavelength (Angstroms) ---  3331 
Final Wavelength (Angstoms) -------  3351 
Wavelength Increment (Angstroms) --  .25 
Filter Wheel #1 Position ---------- (1) Ground quartz diffuser (ND=2.32)
Filter Wheel #2 Position ---------- (0) Clear Aperture



************************************************************
HL scan start time = 04:08:15
Dark Count =  5.9 


Time (GMT)  Wavelength (Ang)  Step Number  Raw Counts  Counts/Second

  248.76        3331.00           6581          26.00        87.62
  248.97        3331.25           6585          28.00        96.34
  249.00        3331.50           6589          29.00       100.70
  249.03        3331.75           6593          33.00       118.13
  249.06        3332.00           6596          25.00        83.26
  249.08        3332.25           6600          26.00        87.62
  249.11        3332.50           6604          25.00        83.26
  249.14        3332.75           6608          28.00        96.34
  249.17        3333.00           6611          29.00       100.70
  249.19        3333.25           6615          26.00        87.62
  249.22        3333.50           6619          24.00        78.90
  249.25        3333.75           6623          26.00        87.62
  249.27        3334.00           6626          27.00        91.98
  249.30        3334.25           6630          25.00        83.26
  249.33        3334.50           6634          28.00        96.34
  249.36        3334.75           6638          24.00        78.90
  249.38        3335.00           6641          29.00       100.70
  249.41        3335.25           6645          33.00       118.13
  249.44        3335.50           6649          33.00       118.13
  249.47        3335.75           6653          41.00       153.01
  249.49        3336.00           6656          53.00       205.32
  249.52        3336.25           6660         192.00       811.27
  249.55        3336.50           6664         629.00      2716.42
  249.57        3336.75           6668         920.00      3985.19
  249.60        3337.00           6671        1390.00      6034.59
  249.63        3337.25           6675        2600.00     11311.78
  249.66        3337.50           6679        3931.00     17118.49
  249.68        3337.75           6683        5420.00     23616.75
  249.71        3338.00           6686        6499.00     28327.17
  249.74        3338.25           6690        7987.00     34825.14
  249.77        3338.50           6694        9452.00     41224.98
  249.79        3338.75           6698       10832.00     47255.60
  249.82        3339.00           6701       12000.00     52361.37
  249.85        3339.25           6705       13514.00     58981.81
  249.88        3339.50           6709       14899.00     65040.31
  249.90        3339.75           6713       16350.00     71389.73
  249.93        3340.00           6716       17583.00     76786.97
  249.96        3340.25           6720       19119.00     83512.85
  249.99        3340.50           6724       20657.00     90250.01
  250.01        3340.75           6728       22131.00     96709.21
  250.04        3341.00           6731       22880.00     99992.29
  250.07        3341.25           6735       24151.00    105564.90
  250.10        3341.50           6739       25102.00    109735.50
  250.12        3341.75           6743       25784.00    112727.10
  250.15        3342.00           6746       25890.00    113192.10
  250.18        3342.25           6750       25560.00    111744.50
  250.21        3342.50           6754       24793.00    108380.30
  250.23        3342.75           6758       23354.00    102070.30
  250.26        3343.00           6761       22166.00     96862.62
  250.29        3343.25           6765       20911.00     91362.89
  250.32        3343.50           6769       19618.00     85698.41
  250.34        3343.75           6773       18136.00     79208.18
  250.37        3344.00           6776       16892.00     73762.03
  250.40        3344.25           6780       15426.00     67346.15
  250.42        3344.50           6784       14144.00     61737.40
  250.45        3344.75           6788       12452.00     54337.63
  250.48        3345.00           6791       11326.00     49414.88
  250.51        3345.25           6795        9594.00     41845.42
  250.53        3345.50           6799        7791.00     33969.09
  250.56        3345.75           6803        5683.00     24764.77
  250.59        3346.00           6806        4641.00     20216.76
  250.62        3346.25           6810        3465.00     15085.27
  250.64        3346.50           6814        2583.00     11237.63
  250.67        3346.75           6818        1669.00      7251.25
  250.70        3347.00           6821        1066.00      4621.78
  250.73        3347.25           6825         378.00      1622.13
  250.75        3347.50           6829          88.00       357.89
  250.78        3347.75           6833          33.00       118.13
  250.81        3348.00           6836          30.00       105.06
  250.84        3348.25           6840          30.00       105.06
  250.86        3348.50           6844          33.00       118.13
  250.89        3348.75           6848          27.00        91.98
  250.92        3349.00           6851          30.00       105.06
  250.94        3349.25           6855          34.00       122.49
  250.97        3349.50           6859          34.00       122.49
  251.00        3349.75           6863          31.00       109.42
  251.03        3350.00           6867          31.00       109.42
  251.05        3350.25           6870          27.00        91.98
  251.08        3350.50           6874          27.00        91.98
  251.11        3350.75           6878          28.00        96.34
  251.14        3351.00           6882          29.00       100.70
HL scan finished at 04:11:45
end
