************************************************************
  HL Scan of (1) Internal mercury lamp
************************************************************
Integration time is 0.2294 seconds per sample
dh270319Tamanrasset 22.79-5.529 4.974364pr865
************************************************************
Dead Time -------------------------  2.8E-08 
Number of Cycles Used -------------  4 
Starting Wavelength (Angstroms) ---  3331 
Final Wavelength (Angstoms) -------  3351 
Wavelength Increment (Angstroms) --  .25 
Filter Wheel #1 Position ---------- (1) Ground quartz diffuser (ND=2.32)
Filter Wheel #2 Position ---------- (0) Clear Aperture



************************************************************
HL scan start time = 04:05:30
Dark Count =  5.3 


Time (GMT)  Wavelength (Ang)  Step Number  Raw Counts  Counts/Second

  246.02        3331.00           6581          25.00        85.88
  246.24        3331.25           6585          27.00        94.59
  246.27        3331.50           6589          29.00       103.31
  246.29        3331.75           6593          26.00        90.24
  246.32        3332.00           6596          29.00       103.31
  246.35        3332.25           6600          27.00        94.59
  246.38        3332.50           6604          31.00       112.03
  246.40        3332.75           6608          30.00       107.67
  246.43        3333.00           6611          28.00        98.95
  246.46        3333.25           6615          28.00        98.95
  246.48        3333.50           6619          30.00       107.67
  246.51        3333.75           6623          30.00       107.67
  246.54        3334.00           6626          31.00       112.03
  246.57        3334.25           6630          31.00       112.03
  246.59        3334.50           6634          30.00       107.67
  246.62        3334.75           6638          28.00        98.95
  246.65        3335.00           6641          23.00        77.16
  246.68        3335.25           6645          31.00       112.03
  246.70        3335.50           6649          36.00       133.83
  246.73        3335.75           6653          38.00       142.55
  246.76        3336.00           6656          62.00       247.17
  246.79        3336.25           6660         232.00       988.26
  246.81        3336.50           6664         655.00      2832.40
  246.84        3336.75           6668        1062.00      4606.96
  246.87        3337.00           6671        1511.00      6564.85
  246.89        3337.25           6675        2846.00     12387.47
  246.92        3337.50           6679        4476.00     19499.31
  246.95        3337.75           6683        5992.00     26116.30
  246.98        3338.00           6686        7443.00     32451.88
  247.00        3338.25           6690        9293.00     40532.90
  247.03        3338.50           6694       10798.00     47109.62
  247.06        3338.75           6698       12478.00     54453.94
  247.09        3339.00           6701       13758.00     60051.64
  247.11        3339.25           6705       15448.00     67445.04
  247.14        3339.50           6709       17243.00     75301.15
  247.17        3339.75           6713       18731.00     81816.25
  247.20        3340.00           6716       20164.00     88092.79
  247.22        3340.25           6720       21660.00     94647.62
  247.25        3340.50           6724       23506.00    102739.30
  247.28        3340.75           6728       25176.00    110062.70
  247.31        3341.00           6731       26454.00    115669.10
  247.33        3341.25           6735       27831.00    121711.80
  247.36        3341.50           6739       28883.00    126329.70
  247.39        3341.75           6743       29524.00    129144.00
  247.42        3342.00           6746       29797.00    130342.70
  247.44        3342.25           6750       29340.00    128336.10
  247.47        3342.50           6754       28482.00    124569.30
  247.50        3342.75           6758       26591.00    116270.20
  247.53        3343.00           6761       25738.00    112527.90
  247.55        3343.25           6765       23931.00    104602.80
  247.58        3343.50           6769       22264.00     97294.78
  247.61        3343.75           6773       20829.00     91006.24
  247.64        3344.00           6776       19486.00     85122.88
  247.66        3344.25           6780       17766.00     77590.79
  247.69        3344.50           6784       16009.00     69899.97
  247.72        3344.75           6788       14176.00     61880.01
  247.75        3345.00           6791       12890.00     56255.51
  247.77        3345.25           6795       11386.00     49679.79
  247.80        3345.50           6799        8950.00     39034.36
  247.83        3345.75           6803        6682.00     29128.81
  247.86        3346.00           6806        5287.00     23038.84
  247.88        3346.25           6810        3896.00     16968.39
  247.91        3346.50           6814        2906.00     12649.21
  247.94        3346.75           6818        1850.00      8043.22
  247.97        3347.00           6821        1248.00      5418.00
  247.99        3347.25           6825         416.00      1790.41
  248.02        3347.50           6829         102.00       421.54
  248.05        3347.75           6833          48.00       186.14
  248.07        3348.00           6836          34.00       125.11
  248.10        3348.25           6840          34.00       125.11
  248.13        3348.50           6844          30.00       107.67
  248.16        3348.75           6848          27.00        94.59
  248.18        3349.00           6851          29.00       103.31
  248.21        3349.25           6855          39.00       146.91
  248.24        3349.50           6859          33.00       120.75
  248.27        3349.75           6863          29.00       103.31
  248.29        3350.00           6867          32.00       116.39
  248.32        3350.25           6870          37.00       138.19
  248.35        3350.50           6874          31.00       112.03
  248.37        3350.75           6878          33.00       120.75
  248.40        3351.00           6882          32.00       116.39
HL scan finished at 04:09:01
end
