************************************************************
  HL Scan of (1) Internal mercury lamp
************************************************************
Integration time is 0.2294 seconds per sample
dh020417Tamanrasset 22.79-5.529 2.756598pr865
************************************************************
Dead Time -------------------------  2.8E-08 
Number of Cycles Used -------------  4 
Starting Wavelength (Angstroms) ---  3331 
Final Wavelength (Angstoms) -------  3351 
Wavelength Increment (Angstroms) --  .25 
Filter Wheel #1 Position ---------- (1) Ground quartz diffuser (ND=2.32)
Filter Wheel #2 Position ---------- (0) Clear Aperture



************************************************************
HL scan start time = 03:30:46
Dark Count =  5 


Time (GMT)  Wavelength (Ang)  Step Number  Raw Counts  Counts/Second

  211.27        3331.00           6581           8.00        13.08
  211.49        3331.25           6585           7.00         8.72
  211.52        3331.50           6589           8.00        13.08
  211.54        3331.75           6593           0.00         2.00
  211.57        3332.00           6596           8.00        13.08
  211.60        3332.25           6600           1.00         2.00
  211.62        3332.50           6604           7.00         8.72
  211.65        3332.75           6608           7.00         8.72
  211.68        3333.00           6611           4.00         2.00
  211.71        3333.25           6615           0.00         2.00
  211.73        3333.50           6619           3.00         2.00
  211.76        3333.75           6623           8.00        13.08
  211.79        3334.00           6626           6.00         4.36
  211.81        3334.25           6630           8.00        13.08
  211.84        3334.50           6634           8.00        13.08
  211.87        3334.75           6638           7.00         8.72
  211.90        3335.00           6641           0.00         2.00
  211.92        3335.25           6645           5.00         2.00
  211.95        3335.50           6649           7.00         8.72
  211.98        3335.75           6653           0.00         2.00
  212.00        3336.00           6656           1.00         2.00
  212.03        3336.25           6660           2.00         2.00
  212.06        3336.50           6664           3.00         2.00
  212.09        3336.75           6668           0.00         2.00
  212.11        3337.00           6671           0.00         2.00
  212.14        3337.25           6675           0.00         2.00
  212.17        3337.50           6679           3.00         2.00
  212.19        3337.75           6683           7.00         8.72
  212.22        3338.00           6686           0.00         2.00
  212.25        3338.25           6690           7.00         8.72
  212.27        3338.50           6694           3.00         2.00
  212.30        3338.75           6698           8.00        13.08
  212.33        3339.00           6701           8.00        13.08
  212.36        3339.25           6705           5.00         2.00
  212.38        3339.50           6709           8.00        13.08
  212.41        3339.75           6713           1.00         2.00
  212.44        3340.00           6716           8.00        13.08
  212.46        3340.25           6720           8.00        13.08
  212.49        3340.50           6724           8.00        13.08
  212.52        3340.75           6728           8.00        13.08
  212.55        3341.00           6731           0.00         2.00
  212.57        3341.25           6735           6.00         4.36
  212.60        3341.50           6739           6.00         4.36
  212.63        3341.75           6743           8.00        13.08
  212.65        3342.00           6746           8.00        13.08
  212.68        3342.25           6750           1.00         2.00
  212.71        3342.50           6754           0.00         2.00
  212.74        3342.75           6758           3.00         2.00
  212.76        3343.00           6761           0.00         2.00
  212.79        3343.25           6765           8.00        13.08
  212.82        3343.50           6769           0.00         2.00
  212.84        3343.75           6773           0.00         2.00
  212.87        3344.00           6776           8.00        13.08
  212.90        3344.25           6780           0.00         2.00
  212.93        3344.50           6784           1.00         2.00
  212.95        3344.75           6788           8.00        13.08
  212.98        3345.00           6791           8.00        13.08
  213.01        3345.25           6795           0.00         2.00
  213.03        3345.50           6799           0.00         2.00
  213.06        3345.75           6803           8.00        13.08
  213.09        3346.00           6806           1.00         2.00
  213.12        3346.25           6810           4.00         2.00
  213.14        3346.50           6814           0.00         2.00
  213.17        3346.75           6818           3.00         2.00
  213.20        3347.00           6821           8.00        13.08
  213.22        3347.25           6825           1.00         2.00
  213.25        3347.50           6829           0.00         2.00
  213.28        3347.75           6833           0.00         2.00
  213.30        3348.00           6836           0.00         2.00
  213.33        3348.25           6840           6.00         4.36
  213.36        3348.50           6844           2.00         2.00
  213.39        3348.75           6848           8.00        13.08
  213.41        3349.00           6851           1.00         2.00
  213.44        3349.25           6855           8.00        13.08
  213.47        3349.50           6859           0.00         2.00
  213.49        3349.75           6863           5.00         2.00
  213.52        3350.00           6867           8.00        13.08
  213.55        3350.25           6870           8.00        13.08
  213.58        3350.50           6874           1.00         2.00
  213.60        3350.75           6878           0.00         2.00
  213.63        3351.00           6882           8.00        13.08
HL scan finished at 03:34:15
end
