************************************************************
  HL Scan of (1) Internal mercury lamp
************************************************************
Integration time is 0.2294 seconds per sample
dh070419Tamanrasset 22.79-5.529 4.974364pr865
************************************************************
Dead Time -------------------------  2.8E-08 
Number of Cycles Used -------------  4 
Starting Wavelength (Angstroms) ---  3331 
Final Wavelength (Angstoms) -------  3351 
Wavelength Increment (Angstroms) --  .25 
Filter Wheel #1 Position ---------- (1) Ground quartz diffuser (ND=2.32)
Filter Wheel #2 Position ---------- (0) Clear Aperture



************************************************************
HL scan start time = 03:53:45
Dark Count =  2.5 


Time (GMT)  Wavelength (Ang)  Step Number  Raw Counts  Counts/Second

  234.26        3331.00           6581          26.00       102.44
  234.48        3331.25           6585          28.00       111.16
  234.51        3331.50           6589          32.00       128.60
  234.54        3331.75           6593          30.00       119.88
  234.56        3332.00           6596          23.00        89.36
  234.59        3332.25           6600          27.00       106.80
  234.62        3332.50           6604          26.00       102.44
  234.64        3332.75           6608          26.00       102.44
  234.67        3333.00           6611          29.00       115.52
  234.70        3333.25           6615          29.00       115.52
  234.73        3333.50           6619          23.00        89.36
  234.75        3333.75           6623          33.00       132.96
  234.78        3334.00           6626          27.00       106.80
  234.81        3334.25           6630          26.00       102.44
  234.83        3334.50           6634          25.00        98.08
  234.86        3334.75           6638          30.00       119.88
  234.89        3335.00           6641          29.00       115.52
  234.92        3335.25           6645          27.00       106.80
  234.94        3335.50           6649          36.00       146.03
  234.97        3335.75           6653          35.00       141.67
  235.00        3336.00           6656          41.00       167.83
  235.03        3336.25           6660         150.00       642.99
  235.05        3336.50           6664         473.00      2051.12
  235.08        3336.75           6668         868.00      3773.28
  235.11        3337.00           6671        1161.00      5050.84
  235.13        3337.25           6675        2243.00      9769.46
  235.16        3337.50           6679        3558.00     15505.86
  235.19        3337.75           6683        4787.00     20868.77
  235.22        3338.00           6686        5844.00     25482.43
  235.24        3338.25           6690        7256.00     31647.48
  235.27        3338.50           6694        8712.00     38006.86
  235.30        3338.75           6698        9996.00     43616.88
  235.33        3339.00           6701       11057.00     48253.91
  235.35        3339.25           6705       12375.00     54015.82
  235.38        3339.50           6709       13865.00     60531.89
  235.41        3339.75           6713       15203.00     66385.28
  235.43        3340.00           6716       16171.00     70621.21
  235.46        3340.25           6720       17585.00     76810.63
  235.49        3340.50           6724       18954.00     82805.11
  235.52        3340.75           6728       20353.00     88933.04
  235.54        3341.00           6731       21088.00     92153.34
  235.57        3341.25           6735       22356.00     97710.30
  235.60        3341.50           6739       23331.00    101984.40
  235.63        3341.75           6743       23806.00    104067.00
  235.65        3342.00           6746       23818.00    104119.60
  235.68        3342.25           6750       23540.00    102900.70
  235.71        3342.50           6754       22814.00     99717.88
  235.73        3342.75           6758       21476.00     93853.55
  235.76        3343.00           6761       20662.00     90286.81
  235.79        3343.25           6765       19346.00     84521.94
  235.82        3343.50           6769       18070.00     78934.08
  235.84        3343.75           6773       16632.00     72638.88
  235.87        3344.00           6776       15649.00     68336.83
  235.90        3344.25           6780       14330.00     62565.92
  235.93        3344.50           6784       12843.00     56062.22
  235.95        3344.75           6788       11555.00     50430.80
  235.98        3345.00           6791       10519.00     45902.47
  236.01        3345.25           6795        9078.00     39605.80
  236.03        3345.50           6799        7246.00     31603.81
  236.06        3345.75           6803        5476.00     23876.03
  236.09        3346.00           6806        4482.00     19537.71
  236.12        3346.25           6810        3304.00     14397.70
  236.14        3346.50           6814        2259.00      9839.24
  236.17        3346.75           6818        1545.00      6725.33
  236.20        3347.00           6821        1011.00      4396.79
  236.23        3347.25           6825         347.00      1501.81
  236.25        3347.50           6829          82.00       346.56
  236.28        3347.75           6833          35.00       141.67
  236.31        3348.00           6836          32.00       128.60
  236.33        3348.25           6840          29.00       115.52
  236.36        3348.50           6844          25.00        98.08
  236.39        3348.75           6848          24.00        93.72
  236.42        3349.00           6851          34.00       137.32
  236.44        3349.25           6855          33.00       132.96
  236.47        3349.50           6859          25.00        98.08
  236.50        3349.75           6863          30.00       119.88
  236.52        3350.00           6867          27.00       106.80
  236.55        3350.25           6870          32.00       128.60
  236.58        3350.50           6874          26.00       102.44
  236.61        3350.75           6878          29.00       115.52
  236.63        3351.00           6882          31.00       124.24
HL scan finished at 03:57:15
end
