************************************************************
  HL Scan of (1) Internal mercury lamp
************************************************************
Integration time is 0.2294 seconds per sample
dh040419Tamanrasset 22.79-5.529 4.974364pr865
************************************************************
Dead Time -------------------------  2.8E-08 
Number of Cycles Used -------------  4 
Starting Wavelength (Angstroms) ---  3331 
Final Wavelength (Angstoms) -------  3351 
Wavelength Increment (Angstroms) --  .25 
Filter Wheel #1 Position ---------- (1) Ground quartz diffuser (ND=2.32)
Filter Wheel #2 Position ---------- (0) Clear Aperture



************************************************************
HL scan start time = 03:56:46
Dark Count =  4.8 


Time (GMT)  Wavelength (Ang)  Step Number  Raw Counts  Counts/Second

  237.28        3331.00           6581          29.00       105.49
  237.50        3331.25           6585          26.00        92.42
  237.52        3331.50           6589          29.00       105.49
  237.55        3331.75           6593          26.00        92.42
  237.58        3332.00           6596          26.00        92.42
  237.61        3332.25           6600          30.00       109.85
  237.63        3332.50           6604          32.00       118.57
  237.66        3332.75           6608          34.00       127.29
  237.69        3333.00           6611          26.00        92.42
  237.71        3333.25           6615          25.00        88.06
  237.74        3333.50           6619          32.00       118.57
  237.77        3333.75           6623          30.00       109.85
  237.80        3334.00           6626          29.00       105.49
  237.82        3334.25           6630          28.00       101.13
  237.85        3334.50           6634          25.00        88.06
  237.88        3334.75           6638          27.00        96.77
  237.90        3335.00           6641          34.00       127.29
  237.93        3335.25           6645          31.00       114.21
  237.96        3335.50           6649          33.00       122.93
  237.99        3335.75           6653          39.00       149.09
  238.01        3336.00           6656          72.00       292.94
  238.04        3336.25           6660         247.00      1055.83
  238.07        3336.50           6664         682.00      2952.29
  238.10        3336.75           6668         992.00      4303.92
  238.12        3337.00           6671        1591.00      6915.90
  238.15        3337.25           6675        2858.00     12442.00
  238.18        3337.50           6679        4439.00     19340.03
  238.20        3337.75           6683        6097.00     26576.88
  238.23        3338.00           6686        7331.00     31964.95
  238.26        3338.25           6690        9031.00     39390.42
  238.29        3338.50           6694       10760.00     46945.72
  238.31        3338.75           6698       12342.00     53861.47
  238.34        3339.00           6701       13599.00     59358.39
  238.37        3339.25           6705       15243.00     66550.24
  238.39        3339.50           6709       16830.00     73495.46
  238.42        3339.75           6713       18517.00     80881.31
  238.45        3340.00           6716       19736.00     86220.10
  238.48        3340.25           6720       21429.00     93637.52
  238.50        3340.50           6724       23166.00    101250.90
  238.53        3340.75           6728       24778.00    108319.30
  238.56        3341.00           6731       25948.00    113451.40
  238.59        3341.25           6735       27409.00    119861.90
  238.61        3341.50           6739       28393.00    124180.80
  238.64        3341.75           6743       29094.00    127258.20
  238.67        3342.00           6746       29110.00    127328.50
  238.70        3342.25           6750       28772.00    125844.60
  238.72        3342.50           6754       27956.00    122262.60
  238.75        3342.75           6758       26318.00    115074.60
  238.78        3343.00           6761       25514.00    111547.50
  238.81        3343.25           6765       23789.00    103982.30
  238.83        3343.50           6769       22114.00     96639.52
  238.86        3343.75           6773       20496.00     89549.46
  238.89        3344.00           6776       19109.00     83473.85
  238.91        3344.25           6780       17648.00     77076.35
  238.94        3344.50           6784       15953.00     69657.09
  238.97        3344.75           6788       14189.00     61939.07
  239.00        3345.00           6791       12865.00     56148.37
  239.02        3345.25           6795       11347.00     49511.49
  239.05        3345.50           6799        8942.00     39001.60
  239.08        3345.75           6803        6638.00     28938.87
  239.11        3346.00           6806        5460.00     23796.15
  239.13        3346.25           6810        3910.00     17031.66
  239.16        3346.50           6814        3258.00     14186.98
  239.19        3346.75           6818        2110.00      9179.34
  239.21        3347.00           6821        1306.00      5673.09
  239.24        3347.25           6825         466.00      2010.58
  239.27        3347.50           6829         103.00       428.08
  239.30        3347.75           6833          38.00       144.73
  239.32        3348.00           6836          30.00       109.85
  239.35        3348.25           6840          33.00       122.93
  239.38        3348.50           6844          34.00       127.29
  239.41        3348.75           6848          30.00       109.85
  239.43        3349.00           6851          30.00       109.85
  239.46        3349.25           6855          30.00       109.85
  239.49        3349.50           6859          30.00       109.85
  239.51        3349.75           6863          32.00       118.57
  239.54        3350.00           6867          30.00       109.85
  239.57        3350.25           6870          35.00       131.65
  239.60        3350.50           6874          30.00       109.85
  239.62        3350.75           6878          35.00       131.65
  239.65        3351.00           6882          35.00       131.65
HL scan finished at 04:00:16
end
