************************************************************
  HL Scan of (1) Internal mercury lamp
************************************************************
Integration time is 0.2294 seconds per sample
dh030419Tamanrasset 22.79-5.529 4.974364pr865
************************************************************
Dead Time -------------------------  2.8E-08 
Number of Cycles Used -------------  4 
Starting Wavelength (Angstroms) ---  3331 
Final Wavelength (Angstoms) -------  3351 
Wavelength Increment (Angstroms) --  .25 
Filter Wheel #1 Position ---------- (1) Ground quartz diffuser (ND=2.32)
Filter Wheel #2 Position ---------- (0) Clear Aperture



************************************************************
HL scan start time = 03:58:14
Dark Count =  4.6 


Time (GMT)  Wavelength (Ang)  Step Number  Raw Counts  Counts/Second

  238.74        3331.00           6581          32.00       119.44
  238.96        3331.25           6585          26.00        93.29
  238.99        3331.50           6589          28.00       102.01
  239.02        3331.75           6593          31.00       115.08
  239.04        3332.00           6596          28.00       102.01
  239.07        3332.25           6600          26.00        93.29
  239.10        3332.50           6604          31.00       115.08
  239.12        3332.75           6608          30.00       110.72
  239.15        3333.00           6611          25.00        88.93
  239.18        3333.25           6615          37.00       141.24
  239.21        3333.50           6619          30.00       110.72
  239.23        3333.75           6623          30.00       110.72
  239.26        3334.00           6626          29.00       106.36
  239.29        3334.25           6630          26.00        93.29
  239.31        3334.50           6634          30.00       110.72
  239.34        3334.75           6638          26.00        93.29
  239.37        3335.00           6641          34.00       128.16
  239.40        3335.25           6645          31.00       115.08
  239.42        3335.50           6649          34.00       128.16
  239.45        3335.75           6653          37.00       141.24
  239.48        3336.00           6656          76.00       311.25
  239.50        3336.25           6660         299.00      1283.39
  239.53        3336.50           6664         743.00      3219.12
  239.56        3336.75           6668        1287.00      5591.11
  239.59        3337.00           6671        1762.00      7662.50
  239.61        3337.25           6675        3176.00     13830.11
  239.64        3337.50           6679        4733.00     20623.94
  239.67        3337.75           6683        6348.00     27673.57
  239.69        3338.00           6686        7689.00     33529.28
  239.72        3338.25           6690        9367.00     40859.28
  239.75        3338.50           6694       11105.00     48454.54
  239.78        3338.75           6698       12728.00     55550.16
  239.80        3339.00           6701       13943.00     60863.89
  239.83        3339.25           6705       15678.00     68454.53
  239.86        3339.50           6709       17399.00     75987.13
  239.89        3339.75           6713       18881.00     82476.21
  239.91        3340.00           6716       20381.00     89046.50
  239.94        3340.25           6720       22061.00     96408.11
  239.97        3340.50           6724       23706.00    103619.30
  240.00        3340.75           6728       25231.00    110307.00
  240.02        3341.00           6731       26434.00    115584.50
  240.05        3341.25           6735       27853.00    121811.50
  240.08        3341.50           6739       28826.00    126082.50
  240.10        3341.75           6743       29295.00    128141.60
  240.13        3342.00           6746       29282.00    128084.50
  240.16        3342.25           6750       28803.00    125981.60
  240.19        3342.50           6754       27636.00    120859.10
  240.21        3342.75           6758       25954.00    113478.60
  240.24        3343.00           6761       24752.00    108206.20
  240.27        3343.25           6765       23326.00    101953.20
  240.30        3343.50           6769       21719.00     94909.26
  240.32        3343.75           6773       20099.00     87811.11
  240.35        3344.00           6776       18707.00     81714.22
  240.38        3344.25           6780       17086.00     74616.93
  240.40        3344.50           6784       15528.00     67798.16
  240.43        3344.75           6788       13635.00     59516.71
  240.46        3345.00           6791       12126.00     52917.94
  240.49        3345.25           6795       10249.00     44713.32
  240.51        3345.50           6799        8198.00     35752.43
  240.54        3345.75           6803        6127.00     26708.72
  240.57        3346.00           6806        4760.00     20741.77
  240.60        3346.25           6810        3340.00     14545.59
  240.62        3346.50           6814        2300.00     10008.91
  240.65        3346.75           6818        1578.00      6860.08
  240.68        3347.00           6821         948.00      4112.94
  240.70        3347.25           6825         316.00      1357.51
  240.73        3347.50           6829          66.00       267.66
  240.76        3347.75           6833          39.00       149.96
  240.79        3348.00           6836          34.00       128.16
  240.81        3348.25           6840          35.00       132.52
  240.84        3348.50           6844          35.00       132.52
  240.87        3348.75           6848          30.00       110.72
  240.90        3349.00           6851          27.00        97.65
  240.92        3349.25           6855          34.00       128.16
  240.95        3349.50           6859          34.00       128.16
  240.98        3349.75           6863          36.00       136.88
  241.00        3350.00           6867          34.00       128.16
  241.03        3350.25           6870          35.00       132.52
  241.06        3350.50           6874          32.00       119.44
  241.09        3350.75           6878          32.00       119.44
  241.11        3351.00           6882          29.00       106.36
HL scan finished at 04:01:44
end
