************************************************************
  HL Scan of (1) Internal mercury lamp
************************************************************
Integration time is 0.2294 seconds per sample
dh020419Tamanrasset 22.79-5.529 4.974364pr865
************************************************************
Dead Time -------------------------  2.8E-08 
Number of Cycles Used -------------  4 
Starting Wavelength (Angstroms) ---  3331 
Final Wavelength (Angstoms) -------  3351 
Wavelength Increment (Angstroms) --  .25 
Filter Wheel #1 Position ---------- (1) Ground quartz diffuser (ND=2.32)
Filter Wheel #2 Position ---------- (0) Clear Aperture



************************************************************
HL scan start time = 03:59:15
Dark Count =  2.8 


Time (GMT)  Wavelength (Ang)  Step Number  Raw Counts  Counts/Second

  239.76        3331.00           6581          32.00       127.29
  239.97        3331.25           6585          26.00       101.13
  240.00        3331.50           6589          28.00       109.85
  240.03        3331.75           6593          27.00       105.49
  240.06        3332.00           6596          25.00        96.77
  240.08        3332.25           6600          27.00       105.49
  240.11        3332.50           6604          28.00       109.85
  240.14        3332.75           6608          26.00       101.13
  240.16        3333.00           6611          23.00        88.06
  240.19        3333.25           6615          34.00       136.01
  240.22        3333.50           6619          30.00       118.57
  240.24        3333.75           6623          25.00        96.77
  240.27        3334.00           6626          28.00       109.85
  240.30        3334.25           6630          33.00       131.65
  240.33        3334.50           6634          28.00       109.85
  240.35        3334.75           6638          28.00       109.85
  240.38        3335.00           6641          28.00       109.85
  240.41        3335.25           6645          34.00       136.01
  240.43        3335.50           6649          37.00       149.09
  240.46        3335.75           6653          42.00       170.88
  240.49        3336.00           6656          77.00       323.46
  240.52        3336.25           6660         241.00      1038.39
  240.54        3336.50           6664         474.00      2054.17
  240.57        3336.75           6668         913.00      3968.18
  240.60        3337.00           6671        1520.00      6615.00
  240.63        3337.25           6675        2751.00     11983.97
  240.65        3337.50           6679        4276.00     18637.45
  240.68        3337.75           6683        5837.00     25450.56
  240.71        3338.00           6686        7027.00     30646.17
  240.73        3338.25           6690        8516.00     37149.35
  240.76        3338.50           6694       10119.00     44153.07
  240.79        3338.75           6698       11696.00     51045.89
  240.82        3339.00           6701       12956.00     56555.05
  240.84        3339.25           6705       14491.00     63268.92
  240.87        3339.50           6709       16095.00     70287.28
  240.90        3339.75           6713       17756.00     77557.96
  240.93        3340.00           6716       18968.00     82865.10
  240.95        3340.25           6720       20510.00     89619.55
  240.98        3340.50           6724       22252.00     97253.13
  241.01        3340.75           6728       23522.00    102820.40
  241.04        3341.00           6731       24615.00    107613.20
  241.06        3341.25           6735       25881.00    113166.20
  241.09        3341.50           6739       27052.00    118304.00
  241.12        3341.75           6743       27485.00    120204.20
  241.15        3342.00           6746       27553.00    120502.70
  241.17        3342.25           6750       27188.00    118900.90
  241.20        3342.50           6754       26467.00    115737.20
  241.23        3342.75           6758       24966.00    109152.60
  241.25        3343.00           6761       23913.00    104534.80
  241.28        3343.25           6765       22374.00     97787.87
  241.31        3343.50           6769       20650.00     90232.91
  241.34        3343.75           6773       19245.00     84078.26
  241.36        3344.00           6776       18022.00     78722.60
  241.39        3344.25           6780       16436.00     71779.70
  241.42        3344.50           6784       14824.00     64725.75
  241.45        3344.75           6788       13196.00     57604.61
  241.47        3345.00           6791       11750.00     51281.96
  241.50        3345.25           6795       10044.00     43825.33
  241.53        3345.50           6799        8292.00     36170.88
  241.56        3345.75           6803        6205.00     27057.11
  241.58        3346.00           6806        4831.00     21059.50
  241.61        3346.25           6810        3479.00     15159.88
  241.64        3346.50           6814        2654.00     11560.85
  241.66        3346.75           6818        1831.00      7971.27
  241.69        3347.00           6821        1077.00      4683.26
  241.72        3347.25           6825         356.00      1539.74
  241.75        3347.50           6829          79.00       332.17
  241.77        3347.75           6833          39.00       157.80
  241.80        3348.00           6836          36.00       144.73
  241.83        3348.25           6840          31.00       122.93
  241.85        3348.50           6844          28.00       109.85
  241.88        3348.75           6848          30.00       118.57
  241.91        3349.00           6851          33.00       131.65
  241.94        3349.25           6855          30.00       118.57
  241.96        3349.50           6859          31.00       122.93
  241.99        3349.75           6863          31.00       122.93
  242.02        3350.00           6867          30.00       118.57
  242.04        3350.25           6870          35.00       140.37
  242.07        3350.50           6874          29.00       114.21
  242.10        3350.75           6878          32.00       127.29
  242.13        3351.00           6882          30.00       118.57
HL scan finished at 04:02:45
end
