************************************************************
  HL Scan of (1) Internal mercury lamp
************************************************************
Integration time is 0.2294 seconds per sample
dh310319Tamanrasset 22.79-5.529 4.974364pr865
************************************************************
Dead Time -------------------------  2.8E-08 
Number of Cycles Used -------------  4 
Starting Wavelength (Angstroms) ---  3331 
Final Wavelength (Angstoms) -------  3351 
Wavelength Increment (Angstroms) --  .25 
Filter Wheel #1 Position ---------- (1) Ground quartz diffuser (ND=2.32)
Filter Wheel #2 Position ---------- (0) Clear Aperture



************************************************************
HL scan start time = 04:00:45
Dark Count =  4.1 


Time (GMT)  Wavelength (Ang)  Step Number  Raw Counts  Counts/Second

  241.27        3331.00           6581          29.00       108.54
  241.48        3331.25           6585          27.00        99.83
  241.51        3331.50           6589          30.00       112.90
  241.54        3331.75           6593          33.00       125.98
  241.57        3332.00           6596          30.00       112.90
  241.59        3332.25           6600          26.00        95.47
  241.62        3332.50           6604          32.00       121.62
  241.65        3332.75           6608          27.00        99.83
  241.67        3333.00           6611          34.00       130.34
  241.70        3333.25           6615          25.00        91.11
  241.73        3333.50           6619          24.00        86.75
  241.76        3333.75           6623          29.00       108.54
  241.78        3334.00           6626          25.00        91.11
  241.81        3334.25           6630          27.00        99.83
  241.84        3334.50           6634          29.00       108.54
  241.87        3334.75           6638          28.00       104.19
  241.89        3335.00           6641          34.00       130.34
  241.92        3335.25           6645          33.00       125.98
  241.95        3335.50           6649          31.00       117.26
  241.97        3335.75           6653          43.00       169.57
  242.00        3336.00           6656          92.00       383.18
  242.03        3336.25           6660         258.00      1106.83
  242.06        3336.50           6664         556.00      2406.00
  242.08        3336.75           6668         975.00      4232.85
  242.11        3337.00           6671        1623.00      7058.50
  242.14        3337.25           6675        3003.00     13077.59
  242.17        3337.50           6679        4544.00     19801.30
  242.19        3337.75           6683        6054.00     26392.21
  242.22        3338.00           6686        7372.00     32147.06
  242.25        3338.25           6690        9015.00     39323.57
  242.27        3338.50           6694       10603.00     46262.60
  242.30        3338.75           6698       12317.00     53755.23
  242.33        3339.00           6701       13444.00     58683.53
  242.36        3339.25           6705       15119.00     66010.74
  242.38        3339.50           6709       16875.00     73695.51
  242.41        3339.75           6713       18472.00     80687.32
  242.44        3340.00           6716       19830.00     86634.93
  242.47        3340.25           6720       21593.00     94359.27
  242.49        3340.50           6724       23113.00    101021.60
  242.52        3340.75           6728       24600.00    107541.70
  242.55        3341.00           6731       25862.00    113077.20
  242.57        3341.25           6735       27032.00    118210.60
  242.60        3341.50           6739       28137.00    123060.20
  242.63        3341.75           6743       28716.00    125601.80
  242.66        3342.00           6746       28709.00    125571.10
  242.68        3342.25           6750       28523.00    124754.60
  242.71        3342.50           6754       27683.00    121067.50
  242.74        3342.75           6758       26144.00    114314.30
  242.77        3343.00           6761       24757.00    108230.30
  242.79        3343.25           6765       23267.00    101696.80
  242.82        3343.50           6769       21682.00     94749.29
  242.85        3343.75           6773       20134.00     87966.62
  242.87        3344.00           6776       18768.00     81983.53
  242.90        3344.25           6780       17132.00     74820.49
  242.93        3344.50           6784       15415.00     67305.90
  242.96        3344.75           6788       13805.00     60262.46
  242.98        3345.00           6791       12199.00     53239.29
  243.01        3345.25           6795       10522.00     45908.59
  243.04        3345.50           6799        8575.00     37401.40
  243.07        3345.75           6803        6393.00     27872.22
  243.09        3346.00           6806        4988.00     21739.04
  243.12        3346.25           6810        3627.00     15799.93
  243.15        3346.50           6814        2775.00     12082.99
  243.18        3346.75           6818        1909.00      8305.77
  243.20        3347.00           6821        1122.00      4873.81
  243.23        3347.25           6825         390.00      1682.29
  243.26        3347.50           6829          82.00       339.58
  243.28        3347.75           6833          39.00       152.14
  243.31        3348.00           6836          35.00       134.70
  243.34        3348.25           6840          37.00       143.42
  243.37        3348.50           6844          29.00       108.54
  243.39        3348.75           6848          31.00       117.26
  243.42        3349.00           6851          28.00       104.19
  243.45        3349.25           6855          33.00       125.98
  243.47        3349.50           6859          32.00       121.62
  243.50        3349.75           6863          32.00       121.62
  243.53        3350.00           6867          30.00       112.90
  243.56        3350.25           6870          28.00       104.19
  243.58        3350.50           6874          32.00       121.62
  243.61        3350.75           6878          33.00       125.98
  243.64        3351.00           6882          32.00       121.62
HL scan finished at 04:04:16
end
