************************************************************
  HL Scan of (1) Internal mercury lamp
************************************************************
Integration time is 0.2294 seconds per sample
dh010419Tamanrasset 22.79-5.529 4.974364pr865
************************************************************
Dead Time -------------------------  2.8E-08 
Number of Cycles Used -------------  4 
Starting Wavelength (Angstroms) ---  3331 
Final Wavelength (Angstoms) -------  3351 
Wavelength Increment (Angstroms) --  .25 
Filter Wheel #1 Position ---------- (1) Ground quartz diffuser (ND=2.32)
Filter Wheel #2 Position ---------- (0) Clear Aperture



************************************************************
HL scan start time = 04:00:13
Dark Count =  4.8 


Time (GMT)  Wavelength (Ang)  Step Number  Raw Counts  Counts/Second

  240.73        3331.00           6581          24.00        83.70
  240.95        3331.25           6585          27.00        96.77
  240.97        3331.50           6589          29.00       105.49
  241.00        3331.75           6593          30.00       109.85
  241.03        3332.00           6596          28.00       101.13
  241.05        3332.25           6600          30.00       109.85
  241.08        3332.50           6604          29.00       105.49
  241.11        3332.75           6608          32.00       118.57
  241.14        3333.00           6611          34.00       127.29
  241.16        3333.25           6615          27.00        96.77
  241.19        3333.50           6619          31.00       114.21
  241.22        3333.75           6623          26.00        92.42
  241.24        3334.00           6626          26.00        92.42
  241.27        3334.25           6630          25.00        88.06
  241.30        3334.50           6634          34.00       127.29
  241.33        3334.75           6638          35.00       131.65
  241.35        3335.00           6641          28.00       101.13
  241.38        3335.25           6645          30.00       109.85
  241.41        3335.50           6649          35.00       131.65
  241.43        3335.75           6653          32.00       118.57
  241.46        3336.00           6656          67.00       271.14
  241.49        3336.25           6660         238.00      1016.59
  241.52        3336.50           6664         638.00      2760.46
  241.54        3336.75           6668        1140.00      4949.25
  241.57        3337.00           6671        1508.00      6553.95
  241.60        3337.25           6675        2887.00     12568.50
  241.62        3337.50           6679        4491.00     19566.95
  241.65        3337.75           6683        6223.00     27126.96
  241.68        3338.00           6686        7454.00     32502.11
  241.71        3338.25           6690        9227.00     40246.73
  241.73        3338.50           6694       10865.00     47404.64
  241.76        3338.75           6698       12653.00     55221.32
  241.79        3339.00           6701       13793.00     60206.90
  241.82        3339.25           6705       15508.00     67709.78
  241.84        3339.50           6709       17436.00     76148.24
  241.87        3339.75           6713       19110.00     83478.24
  241.90        3340.00           6716       20352.00     88918.57
  241.93        3340.25           6720       22011.00     96188.09
  241.95        3340.50           6724       23776.00    103925.30
  241.98        3340.75           6728       25459.00    111306.30
  242.01        3341.00           6731       26762.00    117022.80
  242.03        3341.25           6735       28213.00    123390.70
  242.06        3341.50           6739       29285.00    128096.80
  242.09        3341.75           6743       29922.00    130893.90
  242.12        3342.00           6746       30209.00    132154.20
  242.14        3342.25           6750       29902.00    130806.00
  242.17        3342.50           6754       28910.00    126450.40
  242.20        3342.75           6758       27330.00    119515.20
  242.23        3343.00           6761       26211.00    114605.20
  242.25        3343.25           6765       24628.00    107661.50
  242.28        3343.50           6769       22970.00    100391.70
  242.31        3343.75           6773       21356.00     93317.61
  242.33        3344.00           6776       19914.00     86999.82
  242.36        3344.25           6780       18294.00     79904.81
  242.39        3344.50           6784       16456.00     71858.47
  242.42        3344.75           6788       14683.00     64100.12
  242.44        3345.00           6791       13381.00     58404.94
  242.47        3345.25           6795       11689.00     51006.54
  242.50        3345.50           6799        9027.00     39372.94
  242.53        3345.75           6803        6900.00     30082.87
  242.55        3346.00           6806        5516.00     24040.59
  242.58        3346.25           6810        4156.00     18105.08
  242.61        3346.50           6814        3105.00     13519.50
  242.63        3346.75           6818        1910.00      8307.08
  242.66        3347.00           6821        1330.00      5777.74
  242.69        3347.25           6825         529.00      2285.24
  242.72        3347.50           6829         123.00       515.26
  242.74        3347.75           6833          39.00       149.09
  242.77        3348.00           6836          34.00       127.29
  242.80        3348.25           6840          33.00       122.93
  242.83        3348.50           6844          36.00       136.01
  242.85        3348.75           6848          33.00       122.93
  242.88        3349.00           6851          34.00       127.29
  242.91        3349.25           6855          29.00       105.49
  242.93        3349.50           6859          28.00       101.13
  242.96        3349.75           6863          37.00       140.37
  242.99        3350.00           6867          32.00       118.57
  243.02        3350.25           6870          29.00       105.49
  243.04        3350.50           6874          36.00       136.01
  243.07        3350.75           6878          37.00       140.37
  243.10        3351.00           6882          28.00       101.13
HL scan finished at 04:03:43
end
