************************************************************
  HL Scan of (1) Internal mercury lamp
************************************************************
Integration time is 0.2294 seconds per sample
dh310317Tamanrasset 22.79-5.529 2.868761pr865
************************************************************
Dead Time -------------------------  2.8E-08 
Number of Cycles Used -------------  4 
Starting Wavelength (Angstroms) ---  3331 
Final Wavelength (Angstoms) -------  3351 
Wavelength Increment (Angstroms) --  .25 
Filter Wheel #1 Position ---------- (1) Ground quartz diffuser (ND=2.32)
Filter Wheel #2 Position ---------- (0) Clear Aperture



************************************************************
HL scan start time = 03:32:43
Dark Count =  4.7 


Time (GMT)  Wavelength (Ang)  Step Number  Raw Counts  Counts/Second

  213.22        3331.00           6581           8.00        14.39
  213.44        3331.25           6585           5.00         2.00
  213.47        3331.50           6589           8.00        14.39
  213.50        3331.75           6593           3.00         2.00
  213.52        3332.00           6596           3.00         2.00
  213.55        3332.25           6600           4.00         2.00
  213.58        3332.50           6604           5.00         2.00
  213.60        3332.75           6608           1.00         2.00
  213.63        3333.00           6611           0.00         2.00
  213.66        3333.25           6615           2.00         2.00
  213.68        3333.50           6619           8.00        14.39
  213.71        3333.75           6623           8.00        14.39
  213.74        3334.00           6626           6.00         5.67
  213.77        3334.25           6630           2.00         2.00
  213.79        3334.50           6634           3.00         2.00
  213.82        3334.75           6638           3.00         2.00
  213.85        3335.00           6641           4.00         2.00
  213.87        3335.25           6645           8.00        14.39
  213.90        3335.50           6649           7.00        10.03
  213.93        3335.75           6653           3.00         2.00
  213.96        3336.00           6656           6.00         5.67
  213.98        3336.25           6660           2.00         2.00
  214.01        3336.50           6664           0.00         2.00
  214.04        3336.75           6668           8.00        14.39
  214.06        3337.00           6671           8.00        14.39
  214.09        3337.25           6675           0.00         2.00
  214.12        3337.50           6679           7.00        10.03
  214.15        3337.75           6683           3.00         2.00
  214.17        3338.00           6686           4.00         2.00
  214.20        3338.25           6690           7.00        10.03
  214.23        3338.50           6694           6.00         5.67
  214.25        3338.75           6698           8.00        14.39
  214.28        3339.00           6701           8.00        14.39
  214.31        3339.25           6705           3.00         2.00
  214.34        3339.50           6709           8.00        14.39
  214.36        3339.75           6713           5.00         2.00
  214.39        3340.00           6716           3.00         2.00
  214.42        3340.25           6720           8.00        14.39
  214.44        3340.50           6724           0.00         2.00
  214.47        3340.75           6728           8.00        14.39
  214.50        3341.00           6731           8.00        14.39
  214.53        3341.25           6735           0.00         2.00
  214.55        3341.50           6739           2.00         2.00
  214.58        3341.75           6743           8.00        14.39
  214.61        3342.00           6746           8.00        14.39
  214.63        3342.25           6750           8.00        14.39
  214.66        3342.50           6754           0.00         2.00
  214.69        3342.75           6758           1.00         2.00
  214.72        3343.00           6761           8.00        14.39
  214.74        3343.25           6765           3.00         2.00
  214.77        3343.50           6769           0.00         2.00
  214.80        3343.75           6773           8.00        14.39
  214.82        3344.00           6776           5.00         2.00
  214.85        3344.25           6780           7.00        10.03
  214.88        3344.50           6784           4.00         2.00
  214.91        3344.75           6788           8.00        14.39
  214.93        3345.00           6791           4.00         2.00
  214.96        3345.25           6795           8.00        14.39
  214.99        3345.50           6799           5.00         2.00
  215.01        3345.75           6803           0.00         2.00
  215.04        3346.00           6806           8.00        14.39
  215.07        3346.25           6810           6.00         5.67
  215.10        3346.50           6814           8.00        14.39
  215.12        3346.75           6818           3.00         2.00
  215.15        3347.00           6821           5.00         2.00
  215.18        3347.25           6825           7.00        10.03
  215.20        3347.50           6829           0.00         2.00
  215.23        3347.75           6833           4.00         2.00
  215.26        3348.00           6836           1.00         2.00
  215.28        3348.25           6840           8.00        14.39
  215.31        3348.50           6844           5.00         2.00
  215.34        3348.75           6848           0.00         2.00
  215.37        3349.00           6851           8.00        14.39
  215.39        3349.25           6855           8.00        14.39
  215.42        3349.50           6859           8.00        14.39
  215.45        3349.75           6863           8.00        14.39
  215.47        3350.00           6867           2.00         2.00
  215.50        3350.25           6870           4.00         2.00
  215.53        3350.50           6874           8.00        14.39
  215.56        3350.75           6878           0.00         2.00
  215.58        3351.00           6882           0.00         2.00
HL scan finished at 03:36:12
end
