************************************************************
  HL Scan of (1) Internal mercury lamp
************************************************************
Integration time is 0.2294 seconds per sample
dh050419Tamanrasset 22.79-5.529 4.974364pr865
************************************************************
Dead Time -------------------------  2.8E-08 
Number of Cycles Used -------------  4 
Starting Wavelength (Angstroms) ---  3331 
Final Wavelength (Angstoms) -------  3351 
Wavelength Increment (Angstroms) --  .25 
Filter Wheel #1 Position ---------- (1) Ground quartz diffuser (ND=2.32)
Filter Wheel #2 Position ---------- (0) Clear Aperture



************************************************************
HL scan start time = 03:56:16
Dark Count =  5.7 


Time (GMT)  Wavelength (Ang)  Step Number  Raw Counts  Counts/Second

  236.78        3331.00           6581          33.00       119.01
  237.00        3331.25           6585          30.00       105.93
  237.03        3331.50           6589          31.00       110.29
  237.06        3331.75           6593          30.00       105.93
  237.08        3332.00           6596          35.00       127.72
  237.11        3332.25           6600          32.00       114.65
  237.14        3332.50           6604          35.00       127.72
  237.16        3332.75           6608          28.00        97.21
  237.19        3333.00           6611          30.00       105.93
  237.22        3333.25           6615          34.00       123.37
  237.25        3333.50           6619          30.00       105.93
  237.27        3333.75           6623          35.00       127.72
  237.30        3334.00           6626          33.00       119.01
  237.33        3334.25           6630          30.00       105.93
  237.36        3334.50           6634          23.00        75.41
  237.38        3334.75           6638          33.00       119.01
  237.41        3335.00           6641          37.00       136.44
  237.44        3335.25           6645          39.00       145.16
  237.46        3335.50           6649          38.00       140.80
  237.49        3335.75           6653          44.00       166.96
  237.52        3336.00           6656          75.00       302.10
  237.55        3336.25           6660         353.00      1514.01
  237.57        3336.50           6664         901.00      3903.22
  237.60        3336.75           6668        1629.00      7077.69
  237.63        3337.00           6671        1982.00      8617.16
  237.65        3337.25           6675        3577.00     15574.80
  237.68        3337.50           6679        5409.00     23569.61
  237.71        3337.75           6683        7318.00     31904.25
  237.74        3338.00           6686        8965.00     39098.14
  237.76        3338.25           6690       10877.00     47453.16
  237.79        3338.50           6694       12891.00     56258.12
  237.82        3338.75           6698       14912.00     65098.06
  237.85        3339.00           6701       16322.00     71268.06
  237.87        3339.25           6705       18366.00     80216.15
  237.90        3339.50           6709       20440.00     89300.18
  237.93        3339.75           6713       22482.00     98248.55
  237.95        3340.00           6716       23843.00    104215.20
  237.98        3340.25           6720       25987.00    113618.50
  238.01        3340.50           6724       28095.00    122868.80
  238.04        3340.75           6728       30033.00    131377.40
  238.06        3341.00           6731       31231.00    136639.00
  238.09        3341.25           6735       32933.00    144117.00
  238.12        3341.50           6739       34191.00    149646.20
  238.15        3341.75           6743       34922.00    152859.90
  238.17        3342.00           6746       35150.00    153862.40
  238.20        3342.25           6750       34676.00    151778.40
  238.23        3342.50           6754       33651.00    147272.60
  238.25        3342.75           6758       31659.00    138519.20
  238.28        3343.00           6761       29945.00    130990.90
  238.31        3343.25           6765       28287.00    123711.60
  238.34        3343.50           6769       26269.00    114855.70
  238.36        3343.75           6773       24296.00    106201.60
  238.39        3344.00           6776       22823.00     99743.31
  238.42        3344.25           6780       20880.00     91227.94
  238.45        3344.50           6784       18991.00     82953.15
  238.47        3344.75           6788       17012.00     74288.21
  238.50        3345.00           6791       15334.00     66944.46
  238.53        3345.25           6795       13012.00     56787.26
  238.56        3345.50           6799       10089.00     44009.30
  238.58        3345.75           6803        7893.00     34415.45
  238.61        3346.00           6806        6265.00     27306.40
  238.64        3346.25           6810        4475.00     19493.20
  238.66        3346.50           6814        2725.00     11857.90
  238.69        3346.75           6818        2190.00      9524.34
  238.72        3347.00           6821        1398.00      6070.34
  238.75        3347.25           6825         555.00      2394.67
  238.77        3347.50           6829         120.00       498.26
  238.80        3347.75           6833          43.00       162.60
  238.83        3348.00           6836          36.00       132.08
  238.86        3348.25           6840          38.00       140.80
  238.88        3348.50           6844          41.00       153.88
  238.91        3348.75           6848          36.00       132.08
  238.94        3349.00           6851          33.00       119.01
  238.96        3349.25           6855          34.00       123.37
  238.99        3349.50           6859          37.00       136.44
  239.02        3349.75           6863          35.00       127.72
  239.05        3350.00           6867          31.00       110.29
  239.07        3350.25           6870          32.00       114.65
  239.10        3350.50           6874          35.00       127.72
  239.13        3350.75           6878          36.00       132.08
  239.16        3351.00           6882          36.00       132.08
HL scan finished at 03:59:47
end
