************************************************************
  HL Scan of (1) Internal mercury lamp
************************************************************
Integration time is 0.2294 seconds per sample
dh060419Tamanrasset 22.79-5.529 4.974364pr865
************************************************************
Dead Time -------------------------  2.8E-08 
Number of Cycles Used -------------  4 
Starting Wavelength (Angstroms) ---  3331 
Final Wavelength (Angstoms) -------  3351 
Wavelength Increment (Angstroms) --  .25 
Filter Wheel #1 Position ---------- (1) Ground quartz diffuser (ND=2.32)
Filter Wheel #2 Position ---------- (0) Clear Aperture



************************************************************
HL scan start time = 03:55:17
Dark Count =  4.8 


Time (GMT)  Wavelength (Ang)  Step Number  Raw Counts  Counts/Second

  235.80        3331.00           6581          29.00       105.49
  236.01        3331.25           6585          30.00       109.85
  236.04        3331.50           6589          30.00       109.85
  236.07        3331.75           6593          28.00       101.13
  236.10        3332.00           6596          27.00        96.77
  236.12        3332.25           6600          27.00        96.77
  236.15        3332.50           6604          30.00       109.85
  236.18        3332.75           6608          31.00       114.21
  236.20        3333.00           6611          25.00        88.06
  236.23        3333.25           6615          26.00        92.42
  236.26        3333.50           6619          29.00       105.49
  236.29        3333.75           6623          26.00        92.42
  236.31        3334.00           6626          28.00       101.13
  236.34        3334.25           6630          29.00       105.49
  236.37        3334.50           6634          33.00       122.93
  236.39        3334.75           6638          30.00       109.85
  236.42        3335.00           6641          31.00       114.21
  236.45        3335.25           6645          29.00       105.49
  236.48        3335.50           6649          34.00       127.29
  236.50        3335.75           6653          40.00       153.44
  236.53        3336.00           6656          57.00       227.55
  236.56        3336.25           6660         166.00       702.72
  236.58        3336.50           6664         544.00      2350.63
  236.61        3336.75           6668         931.00      4037.95
  236.64        3337.00           6671        1302.00      5655.65
  236.67        3337.25           6675        2536.00     11037.41
  236.69        3337.50           6679        4084.00     17790.90
  236.72        3337.75           6683        5627.00     24525.12
  236.75        3338.00           6686        6866.00     29934.41
  236.78        3338.25           6690        8656.00     37752.18
  236.80        3338.50           6694       10330.00     45066.43
  236.83        3338.75           6698       11890.00     51885.27
  236.86        3339.00           6701       13204.00     57630.85
  236.88        3339.25           6705       14893.00     65018.88
  236.91        3339.50           6709       16611.00     72536.90
  236.94        3339.75           6713       18361.00     80198.19
  236.97        3340.00           6716       19754.00     86298.94
  236.99        3340.25           6720       21277.00     92971.44
  237.02        3340.50           6724       23058.00    100777.40
  237.05        3340.75           6728       24578.00    107442.20
  237.08        3341.00           6731       25753.00    112595.90
  237.10        3341.25           6735       27234.00    119094.00
  237.13        3341.50           6739       28509.00    124690.00
  237.16        3341.75           6743       29334.00    128312.00
  237.19        3342.00           6746       29330.00    128294.40
  237.21        3342.25           6750       29220.00    127811.40
  237.24        3342.50           6754       28352.00    124000.90
  237.27        3342.75           6758       27002.00    118075.90
  237.29        3343.00           6761       25612.00    111977.40
  237.32        3343.25           6765       24041.00    105087.30
  237.35        3343.50           6769       22515.00     98397.13
  237.38        3343.75           6773       20797.00     90868.21
  237.40        3344.00           6776       19684.00     85992.32
  237.43        3344.25           6780       17989.00     78569.35
  237.46        3344.50           6784       16213.00     70794.96
  237.49        3344.75           6788       14428.00     62984.57
  237.51        3345.00           6791       13273.00     57932.61
  237.54        3345.25           6795       11632.00     50757.35
  237.57        3345.50           6799        9319.00     40648.68
  237.59        3345.75           6803        7114.00     31017.34
  237.62        3346.00           6806        5740.00     25018.39
  237.65        3346.25           6810        4253.00     18528.36
  237.68        3346.50           6814        3192.00     13899.04
  237.70        3346.75           6818        2059.00      8956.91
  237.73        3347.00           6821        1484.00      6449.29
  237.76        3347.25           6825         607.00      2625.30
  237.79        3347.50           6829         161.00       680.92
  237.81        3347.75           6833          43.00       166.52
  237.84        3348.00           6836          39.00       149.09
  237.87        3348.25           6840          33.00       122.93
  237.89        3348.50           6844          30.00       109.85
  237.92        3348.75           6848          30.00       109.85
  237.95        3349.00           6851          32.00       118.57
  237.98        3349.25           6855          28.00       101.13
  238.00        3349.50           6859          33.00       122.93
  238.03        3349.75           6863          32.00       118.57
  238.06        3350.00           6867          36.00       136.01
  238.08        3350.25           6870          36.00       136.01
  238.11        3350.50           6874          28.00       101.13
  238.14        3350.75           6878          33.00       122.93
  238.17        3351.00           6882          35.00       131.65
HL scan finished at 03:58:47
end
