************************************************************
  HL Scan of (1) Internal mercury lamp
************************************************************
Integration time is 0.2294 seconds per sample
dh100419Tamanrasset 22.79-5.529 4.974364pr865
************************************************************
Dead Time -------------------------  2.8E-08 
Number of Cycles Used -------------  4 
Starting Wavelength (Angstroms) ---  3331 
Final Wavelength (Angstoms) -------  3351 
Wavelength Increment (Angstroms) --  .25 
Filter Wheel #1 Position ---------- (1) Ground quartz diffuser (ND=2.32)
Filter Wheel #2 Position ---------- (0) Clear Aperture



************************************************************
HL scan start time = 03:51:46
Dark Count =  3.7 


Time (GMT)  Wavelength (Ang)  Step Number  Raw Counts  Counts/Second

  232.28        3331.00           6581          26.00        97.21
  232.50        3331.25           6585          24.00        88.49
  232.53        3331.50           6589          31.00       119.01
  232.55        3331.75           6593          28.00       105.93
  232.58        3332.00           6596          30.00       114.65
  232.61        3332.25           6600          30.00       114.65
  232.64        3332.50           6604          28.00       105.93
  232.66        3332.75           6608          27.00       101.57
  232.69        3333.00           6611          30.00       114.65
  232.72        3333.25           6615          28.00       105.93
  232.74        3333.50           6619          23.00        84.13
  232.77        3333.75           6623          31.00       119.01
  232.80        3334.00           6626          22.00        79.77
  232.82        3334.25           6630          31.00       119.01
  232.85        3334.50           6634          30.00       114.65
  232.88        3334.75           6638          36.00       140.80
  232.91        3335.00           6641          31.00       119.01
  232.93        3335.25           6645          33.00       127.72
  232.96        3335.50           6649          34.00       132.08
  232.99        3335.75           6653          36.00       140.80
  233.02        3336.00           6656          50.00       201.83
  233.04        3336.25           6660         192.00       820.86
  233.07        3336.50           6664         640.00      2773.97
  233.10        3336.75           6668        1003.00      4356.68
  233.12        3337.00           6671        1454.00      6323.26
  233.15        3337.25           6675        2732.00     11897.16
  233.18        3337.50           6679        4218.00     18380.42
  233.21        3337.75           6683        5628.00     24534.29
  233.23        3338.00           6686        6860.00     29913.01
  233.26        3338.25           6690        8590.00     37468.67
  233.29        3338.50           6694       10062.00     43900.05
  233.32        3338.75           6698       11728.00     51181.84
  233.34        3339.00           6701       12857.00     56118.19
  233.37        3339.25           6705       14435.00     63020.00
  233.40        3339.50           6709       16063.00     70143.30
  233.42        3339.75           6713       17556.00     76678.41
  233.45        3340.00           6716       18659.00     81507.96
  233.48        3340.25           6720       20323.00     88796.37
  233.51        3340.50           6724       21913.00     95763.41
  233.53        3340.75           6728       23388.00    102229.00
  233.56        3341.00           6731       24358.00    106482.20
  233.59        3341.25           6735       25795.00    112785.00
  233.62        3341.50           6739       26795.00    117172.40
  233.64        3341.75           6743       27249.00    119164.60
  233.67        3342.00           6746       27317.00    119463.00
  233.70        3342.25           6750       26964.00    117914.00
  233.72        3342.50           6754       26074.00    114009.00
  233.75        3342.75           6758       24670.00    107850.50
  233.78        3343.00           6761       23498.00    102711.30
  233.81        3343.25           6765       22121.00     96675.03
  233.83        3343.50           6769       20629.00     90136.98
  233.86        3343.75           6773       19121.00     83531.25
  233.89        3344.00           6776       17824.00     77851.75
  233.92        3344.25           6780       16188.00     70690.35
  233.94        3344.50           6784       14638.00     63908.07
  233.97        3344.75           6788       13018.00     56822.24
  234.00        3345.00           6791       11704.00     51076.92
  234.03        3345.25           6795       10207.00     44533.71
  234.05        3345.50           6799        7853.00     34249.48
  234.08        3345.75           6803        5984.00     26088.36
  234.11        3346.00           6806        4820.00     21007.56
  234.13        3346.25           6810        3685.00     16054.73
  234.16        3346.50           6814        2647.00     11526.39
  234.19        3346.75           6818        1719.00      7478.90
  234.22        3347.00           6821        1126.00      4893.00
  234.24        3347.25           6825         368.00      1588.13
  234.27        3347.50           6829         100.00       419.80
  234.30        3347.75           6833          37.00       145.16
  234.33        3348.00           6836          31.00       119.01
  234.35        3348.25           6840          26.00        97.21
  234.38        3348.50           6844          32.00       123.37
  234.41        3348.75           6848          29.00       110.29
  234.43        3349.00           6851          31.00       119.01
  234.46        3349.25           6855          35.00       136.44
  234.49        3349.50           6859          31.00       119.01
  234.52        3349.75           6863          28.00       105.93
  234.54        3350.00           6867          27.00       101.57
  234.57        3350.25           6870          32.00       123.37
  234.60        3350.50           6874          32.00       123.37
  234.62        3350.75           6878          28.00       105.93
  234.65        3351.00           6882          28.00       105.93
HL scan finished at 03:55:16
end
