************************************************************
  HL Scan of (1) Internal mercury lamp
************************************************************
Integration time is 0.2294 seconds per sample
dh150419Tamanrasset 22.79-5.529 4.974364pr865
************************************************************
Dead Time -------------------------  2.8E-08 
Number of Cycles Used -------------  4 
Starting Wavelength (Angstroms) ---  3331 
Final Wavelength (Angstoms) -------  3351 
Wavelength Increment (Angstroms) --  .25 
Filter Wheel #1 Position ---------- (1) Ground quartz diffuser (ND=2.32)
Filter Wheel #2 Position ---------- (0) Clear Aperture



************************************************************
HL scan start time = 03:47:18
Dark Count =  6.2 


Time (GMT)  Wavelength (Ang)  Step Number  Raw Counts  Counts/Second

  227.82        3331.00           6581          25.00        81.95
  228.04        3331.25           6585          23.00        73.23
  228.07        3331.50           6589          32.00       112.47
  228.09        3331.75           6593          27.00        90.67
  228.12        3332.00           6596          25.00        81.95
  228.15        3332.25           6600          31.00       108.11
  228.17        3332.50           6604          23.00        73.23
  228.20        3332.75           6608          25.00        81.95
  228.23        3333.00           6611          27.00        90.67
  228.26        3333.25           6615          29.00        99.39
  228.28        3333.50           6619          26.00        86.31
  228.31        3333.75           6623          24.00        77.59
  228.34        3334.00           6626          27.00        90.67
  228.37        3334.25           6630          24.00        77.59
  228.39        3334.50           6634          26.00        86.31
  228.42        3334.75           6638          25.00        81.95
  228.45        3335.00           6641          30.00       103.75
  228.47        3335.25           6645          32.00       112.47
  228.50        3335.50           6649          35.00       125.55
  228.53        3335.75           6653          30.00       103.75
  228.56        3336.00           6656          66.00       260.68
  228.58        3336.25           6660         142.00       591.99
  228.61        3336.50           6664         323.00      1381.05
  228.64        3336.75           6668         727.00      3142.39
  228.67        3337.00           6671        1333.00      5784.72
  228.69        3337.25           6675        2377.00     10337.78
  228.72        3337.50           6679        3656.00     15917.30
  228.75        3337.75           6683        4945.00     21542.20
  228.78        3338.00           6686        5879.00     25619.07
  228.80        3338.25           6690        7266.00     31674.99
  228.83        3338.50           6694        8551.00     37287.38
  228.86        3338.75           6698        9938.00     43347.27
  228.88        3339.00           6701       10892.00     47516.53
  228.91        3339.25           6705       12299.00     53667.34
  228.94        3339.50           6709       13640.00     59531.58
  228.97        3339.75           6713       14994.00     65454.64
  228.99        3340.00           6716       15998.00     69847.90
  229.02        3340.25           6720       17342.00     75730.60
  229.05        3340.50           6724       18817.00     82188.93
  229.08        3340.75           6728       20153.00     88040.66
  229.10        3341.00           6731       21041.00     91931.19
  229.13        3341.25           6735       21995.00     96111.84
  229.16        3341.50           6739       23020.00    100604.70
  229.19        3341.75           6743       23502.00    102717.90
  229.21        3342.00           6746       23462.00    102542.50
  229.24        3342.25           6750       23148.00    101165.90
  229.27        3342.50           6754       22531.00     98461.15
  229.30        3342.75           6758       21428.00     93627.00
  229.32        3343.00           6761       20488.00     89508.28
  229.35        3343.25           6765       19028.00     83112.99
  229.38        3343.50           6769       17666.00     77149.04
  229.41        3343.75           6773       16272.00     71047.04
  229.43        3344.00           6776       15437.00     67392.96
  229.46        3344.25           6780       14085.00     61478.01
  229.49        3344.50           6784       12635.00     55136.50
  229.52        3344.75           6788       11333.00     49444.17
  229.54        3345.00           6791       10191.00     44452.86
  229.57        3345.25           6795        8735.00     38091.17
  229.60        3345.50           6799        7090.00     30906.42
  229.63        3345.75           6803        5331.00     23226.96
  229.65        3346.00           6806        4121.00     17946.24
  229.68        3346.25           6810        3173.00     13810.05
  229.71        3346.50           6814        2466.00     10725.98
  229.74        3346.75           6818        1525.00      6621.98
  229.76        3347.00           6821         895.00      3874.88
  229.79        3347.25           6825         302.00      1289.50
  229.82        3347.50           6829          72.00       286.84
  229.85        3347.75           6833          39.00       142.98
  229.87        3348.00           6836          30.00       103.75
  229.90        3348.25           6840          30.00       103.75
  229.93        3348.50           6844          30.00       103.75
  229.95        3348.75           6848          29.00        99.39
  229.98        3349.00           6851          30.00       103.75
  230.01        3349.25           6855          27.00        90.67
  230.04        3349.50           6859          23.00        73.23
  230.06        3349.75           6863          29.00        99.39
  230.09        3350.00           6867          30.00       103.75
  230.12        3350.25           6870          24.00        77.59
  230.15        3350.50           6874          31.00       108.11
  230.17        3350.75           6878          35.00       125.55
  230.20        3351.00           6882          32.00       112.47
HL scan finished at 03:50:49
end
