************************************************************
  HL Scan of (1) Internal mercury lamp
************************************************************
Integration time is 0.2294 seconds per sample
dh160419Tamanrasset 22.79-5.529 4.974364pr865
************************************************************
Dead Time -------------------------  2.8E-08 
Number of Cycles Used -------------  4 
Starting Wavelength (Angstroms) ---  3331 
Final Wavelength (Angstoms) -------  3351 
Wavelength Increment (Angstroms) --  .25 
Filter Wheel #1 Position ---------- (1) Ground quartz diffuser (ND=2.32)
Filter Wheel #2 Position ---------- (0) Clear Aperture



************************************************************
HL scan start time = 03:46:34
Dark Count =  4.7 


Time (GMT)  Wavelength (Ang)  Step Number  Raw Counts  Counts/Second

  227.07        3331.00           6581          30.00       110.29
  227.29        3331.25           6585          28.00       101.57
  227.32        3331.50           6589          31.00       114.65
  227.35        3331.75           6593          28.00       101.57
  227.37        3332.00           6596          34.00       127.72
  227.40        3332.25           6600          25.00        88.49
  227.43        3332.50           6604          25.00        88.49
  227.45        3332.75           6608          26.00        92.85
  227.48        3333.00           6611          26.00        92.85
  227.51        3333.25           6615          24.00        84.13
  227.54        3333.50           6619          30.00       110.29
  227.56        3333.75           6623          27.00        97.21
  227.59        3334.00           6626          23.00        79.77
  227.62        3334.25           6630          27.00        97.21
  227.65        3334.50           6634          21.00        71.06
  227.67        3334.75           6638          27.00        97.21
  227.70        3335.00           6641          26.00        92.85
  227.73        3335.25           6645          32.00       119.01
  227.75        3335.50           6649          37.00       140.80
  227.78        3335.75           6653          33.00       123.37
  227.81        3336.00           6656          35.00       132.08
  227.84        3336.25           6660          95.00       393.64
  227.86        3336.50           6664         312.00      1339.63
  227.89        3336.75           6668         549.00      2372.87
  227.92        3337.00           6671         952.00      4129.95
  227.95        3337.25           6675        1926.00      8377.29
  227.97        3337.50           6679        3103.00     13511.21
  228.00        3337.75           6683        4350.00     18952.08
  228.03        3338.00           6686        5352.00     23325.17
  228.06        3338.25           6690        6790.00     29602.99
  228.08        3338.50           6694        7988.00     34834.75
  228.11        3338.75           6698        9423.00     41103.51
  228.14        3339.00           6701       10387.00     45315.97
  228.17        3339.25           6705       11577.00     50517.35
  228.19        3339.50           6709       13073.00     57058.40
  228.22        3339.75           6713       14362.00     62696.28
  228.25        3340.00           6716       15353.00     67031.97
  228.28        3340.25           6720       16663.00     72764.94
  228.30        3340.50           6724       18214.00     79554.96
  228.33        3340.75           6728       19393.00     84718.16
  228.36        3341.00           6731       20287.00     88634.25
  228.39        3341.25           6735       21529.00     94076.18
  228.41        3341.50           6739       22449.00     98108.28
  228.44        3341.75           6743       22982.00    100444.70
  228.47        3342.00           6746       23173.00    101282.00
  228.50        3342.25           6750       22885.00    100019.50
  228.52        3342.50           6754       22420.00     97981.18
  228.55        3342.75           6758       21369.00     93375.03
  228.58        3343.00           6761       20339.00     88862.07
  228.61        3343.25           6765       19052.00     83224.68
  228.63        3343.50           6769       17830.00     77873.63
  228.66        3343.75           6773       16595.00     72467.30
  228.69        3344.00           6776       15567.00     67968.38
  228.72        3344.25           6780       14187.00     61930.75
  228.74        3344.50           6784       12904.00     56319.35
  228.77        3344.75           6788       11501.00     50185.12
  228.80        3345.00           6791       10434.00     45521.37
  228.83        3345.25           6795        9121.00     39784.05
  228.85        3345.50           6799        7374.00     32153.17
  228.88        3345.75           6803        5663.00     24682.70
  228.91        3346.00           6806        4579.00     19951.42
  228.93        3346.25           6810        3585.00     15614.06
  228.96        3346.50           6814        2773.00     12071.65
  228.99        3346.75           6818        1849.00      8041.48
  229.02        3347.00           6821        1251.00      5433.70
  229.04        3347.25           6825         493.00      2128.72
  229.07        3347.50           6829         138.00       581.09
  229.10        3347.75           6833          33.00       123.37
  229.13        3348.00           6836          29.00       105.93
  229.15        3348.25           6840          29.00       105.93
  229.18        3348.50           6844          26.00        92.85
  229.21        3348.75           6848          35.00       132.08
  229.23        3349.00           6851          32.00       119.01
  229.26        3349.25           6855          31.00       114.65
  229.29        3349.50           6859          23.00        79.77
  229.32        3349.75           6863          31.00       114.65
  229.34        3350.00           6867          30.00       110.29
  229.37        3350.25           6870          30.00       110.29
  229.40        3350.50           6874          31.00       114.65
  229.43        3350.75           6878          29.00       105.93
  229.45        3351.00           6882          29.00       105.93
HL scan finished at 03:50:04
end
