************************************************************
  HL Scan of (1) Internal mercury lamp
************************************************************
Integration time is 0.2294 seconds per sample
dh120419Tamanrasset 22.79-5.529 4.974364pr865
************************************************************
Dead Time -------------------------  2.8E-08 
Number of Cycles Used -------------  4 
Starting Wavelength (Angstroms) ---  3331 
Final Wavelength (Angstoms) -------  3351 
Wavelength Increment (Angstroms) --  .25 
Filter Wheel #1 Position ---------- (1) Ground quartz diffuser (ND=2.32)
Filter Wheel #2 Position ---------- (0) Clear Aperture



************************************************************
HL scan start time = 03:49:45
Dark Count =  4.1 


Time (GMT)  Wavelength (Ang)  Step Number  Raw Counts  Counts/Second

  230.26        3331.00           6581          26.00        95.47
  230.48        3331.25           6585          28.00       104.19
  230.51        3331.50           6589          32.00       121.62
  230.53        3331.75           6593          29.00       108.54
  230.56        3332.00           6596          28.00       104.19
  230.59        3332.25           6600          25.00        91.11
  230.61        3332.50           6604          24.00        86.75
  230.64        3332.75           6608          29.00       108.54
  230.67        3333.00           6611          25.00        91.11
  230.70        3333.25           6615          25.00        91.11
  230.72        3333.50           6619          28.00       104.19
  230.75        3333.75           6623          32.00       121.62
  230.78        3334.00           6626          27.00        99.83
  230.80        3334.25           6630          23.00        82.39
  230.83        3334.50           6634          29.00       108.54
  230.86        3334.75           6638          27.00        99.83
  230.89        3335.00           6641          30.00       112.90
  230.91        3335.25           6645          30.00       112.90
  230.94        3335.50           6649          32.00       121.62
  230.97        3335.75           6653          35.00       134.70
  231.00        3336.00           6656          65.00       265.48
  231.02        3336.25           6660         192.00       819.11
  231.05        3336.50           6664         484.00      2092.10
  231.08        3336.75           6668         996.00      4324.41
  231.10        3337.00           6671        1539.00      6692.19
  231.13        3337.25           6675        2669.00     11620.61
  231.16        3337.50           6679        3931.00     17126.35
  231.19        3337.75           6683        5173.00     22546.49
  231.21        3338.00           6686        6269.00     27330.85
  231.24        3338.25           6690        7609.00     33182.08
  231.27        3338.50           6694        9016.00     39327.94
  231.30        3338.75           6698       10181.00     44418.34
  231.32        3339.00           6701       11386.00     49685.03
  231.35        3339.25           6705       12776.00     55762.24
  231.38        3339.50           6709       14045.00     61312.23
  231.40        3339.75           6713       15386.00     67179.00
  231.43        3340.00           6716       16585.00     72426.16
  231.46        3340.25           6720       17842.00     77928.80
  231.49        3340.50           6724       18990.00     82955.76
  231.51        3340.75           6728       20272.00     88571.18
  231.54        3341.00           6731       21273.00     92956.99
  231.57        3341.25           6735       22353.00     97690.13
  231.60        3341.50           6739       23229.00    101530.20
  231.62        3341.75           6743       23560.00    102981.40
  231.65        3342.00           6746       23584.00    103086.60
  231.68        3342.25           6750       23248.00    101613.50
  231.70        3342.50           6754       22220.00     97107.19
  231.73        3342.75           6758       21096.00     92181.40
  231.76        3343.00           6761       19853.00     86735.68
  231.79        3343.25           6765       18761.00     81952.88
  231.81        3343.50           6769       17425.00     76103.15
  231.84        3343.75           6773       16181.00     70657.97
  231.87        3344.00           6776       15099.00     65923.23
  231.90        3344.25           6780       13739.00     59973.78
  231.92        3344.50           6784       12446.00     54319.26
  231.95        3344.75           6788       11116.00     48504.81
  231.98        3345.00           6791        9997.00     43614.26
  232.01        3345.25           6795        8464.00     36916.52
  232.03        3345.50           6799        6855.00     29889.43
  232.06        3345.75           6803        5200.00     22664.34
  232.09        3346.00           6806        4152.00     18090.68
  232.12        3346.25           6810        3018.00     13143.02
  232.14        3346.50           6814        2139.00      9308.88
  232.17        3346.75           6818        1380.00      5998.83
  232.20        3347.00           6821         790.00      3426.22
  232.22        3347.25           6825         259.00      1111.19
  232.25        3347.50           6829          57.00       230.60
  232.28        3347.75           6833          31.00       117.26
  232.31        3348.00           6836          33.00       125.98
  232.33        3348.25           6840          28.00       104.19
  232.36        3348.50           6844          33.00       125.98
  232.39        3348.75           6848          31.00       117.26
  232.41        3349.00           6851          28.00       104.19
  232.44        3349.25           6855          27.00        99.83
  232.47        3349.50           6859          29.00       108.54
  232.50        3349.75           6863          28.00       104.19
  232.52        3350.00           6867          30.00       112.90
  232.55        3350.25           6870          30.00       112.90
  232.58        3350.50           6874          29.00       108.54
  232.60        3350.75           6878          27.00        99.83
  232.63        3351.00           6882          26.00        95.47
HL scan finished at 03:53:15
end
