************************************************************
  HL Scan of (1) Internal mercury lamp
************************************************************
Integration time is 0.2294 seconds per sample
dh110419Tamanrasset 22.79-5.529 4.974364pr865
************************************************************
Dead Time -------------------------  2.8E-08 
Number of Cycles Used -------------  4 
Starting Wavelength (Angstroms) ---  3331 
Final Wavelength (Angstoms) -------  3351 
Wavelength Increment (Angstroms) --  .25 
Filter Wheel #1 Position ---------- (1) Ground quartz diffuser (ND=2.32)
Filter Wheel #2 Position ---------- (0) Clear Aperture



************************************************************
HL scan start time = 03:51:16
Dark Count =  4.2 


Time (GMT)  Wavelength (Ang)  Step Number  Raw Counts  Counts/Second

  231.77        3331.00           6581          33.00       125.55
  231.99        3331.25           6585          29.00       108.11
  232.02        3331.50           6589          33.00       125.55
  232.04        3331.75           6593          27.00        99.39
  232.07        3332.00           6596          28.00       103.75
  232.10        3332.25           6600          27.00        99.39
  232.13        3332.50           6604          26.00        95.03
  232.15        3332.75           6608          25.00        90.67
  232.18        3333.00           6611          32.00       121.19
  232.21        3333.25           6615          27.00        99.39
  232.23        3333.50           6619          30.00       112.47
  232.26        3333.75           6623          24.00        86.31
  232.29        3334.00           6626          27.00        99.39
  232.32        3334.25           6630          26.00        95.03
  232.34        3334.50           6634          26.00        95.03
  232.37        3334.75           6638          29.00       108.11
  232.40        3335.00           6641          25.00        90.67
  232.42        3335.25           6645          36.00       138.62
  232.45        3335.50           6649          33.00       125.55
  232.48        3335.75           6653          29.00       108.11
  232.51        3336.00           6656          43.00       169.14
  232.53        3336.25           6660         162.00       687.89
  232.56        3336.50           6664         401.00      1729.81
  232.59        3336.75           6668         611.00      2645.36
  232.61        3337.00           6671        1009.00      4380.66
  232.64        3337.25           6675        1991.00      8662.96
  232.67        3337.50           6679        3183.00     13862.40
  232.70        3337.75           6683        4454.00     19408.10
  232.72        3338.00           6686        5557.00     24222.18
  232.75        3338.25           6690        6902.00     30094.23
  232.78        3338.50           6694        8199.00     35758.54
  232.80        3338.75           6698        9512.00     41494.57
  232.83        3339.00           6701       10688.00     46633.66
  232.86        3339.25           6705       12034.00     52517.45
  232.89        3339.50           6709       13315.00     58118.92
  232.91        3339.75           6713       14698.00     64168.37
  232.94        3340.00           6716       15565.00     67961.81
  232.97        3340.25           6720       17071.00     74553.03
  233.00        3340.50           6724       18351.00     80157.05
  233.02        3340.75           6728       19652.00     85854.80
  233.05        3341.00           6731       20937.00     91484.27
  233.08        3341.25           6735       21862.00     95537.71
  233.11        3341.50           6739       22962.00    100359.20
  233.13        3341.75           6743       23661.00    103423.70
  233.16        3342.00           6746       23789.00    103985.00
  233.19        3342.25           6750       23734.00    103743.80
  233.22        3342.50           6754       23204.00    101420.10
  233.24        3342.75           6758       22023.00     96243.32
  233.27        3343.00           6761       20884.00     91252.05
  233.30        3343.25           6765       19713.00     86121.99
  233.32        3343.50           6769       18377.00     80270.90
  233.35        3343.75           6773       17065.00     74526.76
  233.38        3344.00           6776       16118.00     70381.81
  233.41        3344.25           6780       14880.00     64964.63
  233.43        3344.50           6784       13425.00     58600.00
  233.46        3344.75           6788       12043.00     52556.80
  233.49        3345.00           6791       10840.00     47298.00
  233.52        3345.25           6795        9480.00     41354.75
  233.54        3345.50           6799        7812.00     34068.23
  233.57        3345.75           6803        6016.00     26225.88
  233.60        3346.00           6806        4874.00     21241.05
  233.63        3346.25           6810        3576.00     15576.98
  233.65        3346.50           6814        2597.00     11306.11
  233.68        3346.75           6818        2004.00      8719.65
  233.71        3347.00           6821        1331.00      5784.72
  233.73        3347.25           6825         531.00      2296.57
  233.76        3347.50           6829         127.00       535.32
  233.79        3347.75           6833          34.00       129.90
  233.82        3348.00           6836          32.00       121.19
  233.84        3348.25           6840          31.00       116.83
  233.87        3348.50           6844          28.00       103.75
  233.90        3348.75           6848          24.00        86.31
  233.92        3349.00           6851          30.00       112.47
  233.95        3349.25           6855          29.00       108.11
  233.98        3349.50           6859          32.00       121.19
  234.01        3349.75           6863          33.00       125.55
  234.03        3350.00           6867          29.00       108.11
  234.06        3350.25           6870          30.00       112.47
  234.09        3350.50           6874          32.00       121.19
  234.11        3350.75           6878          30.00       112.47
  234.14        3351.00           6882          28.00       103.75
HL scan finished at 03:54:46
end
