************************************************************
  HL Scan of (1) Internal mercury lamp
************************************************************
Integration time is 0.2294 seconds per sample
dh170419Tamanrasset 22.79-5.529 4.974364pr865
************************************************************
Dead Time -------------------------  2.8E-08 
Number of Cycles Used -------------  4 
Starting Wavelength (Angstroms) ---  3331 
Final Wavelength (Angstoms) -------  3351 
Wavelength Increment (Angstroms) --  .25 
Filter Wheel #1 Position ---------- (1) Ground quartz diffuser (ND=2.32)
Filter Wheel #2 Position ---------- (0) Clear Aperture



************************************************************
HL scan start time = 03:45:18
Dark Count =  5.5 


Time (GMT)  Wavelength (Ang)  Step Number  Raw Counts  Counts/Second

  225.82        3331.00           6581          33.00       119.88
  226.03        3331.25           6585          26.00        89.36
  226.06        3331.50           6589          20.00        63.21
  226.09        3331.75           6593          26.00        89.36
  226.12        3332.00           6596          27.00        93.72
  226.14        3332.25           6600          24.00        80.65
  226.17        3332.50           6604          29.00       102.44
  226.20        3332.75           6608          31.00       111.16
  226.23        3333.00           6611          29.00       102.44
  226.25        3333.25           6615          26.00        89.36
  226.28        3333.50           6619          19.00        58.85
  226.31        3333.75           6623          27.00        93.72
  226.34        3334.00           6626          26.00        89.36
  226.36        3334.25           6630          25.00        85.00
  226.39        3334.50           6634          27.00        93.72
  226.42        3334.75           6638          28.00        98.08
  226.44        3335.00           6641          27.00        93.72
  226.47        3335.25           6645          26.00        89.36
  226.50        3335.50           6649          28.00        98.08
  226.53        3335.75           6653          36.00       132.96
  226.55        3336.00           6656          53.00       207.06
  226.58        3336.25           6660         208.00       882.76
  226.61        3336.50           6664         620.00      2678.93
  226.63        3336.75           6668         987.00      4279.07
  226.66        3337.00           6671        1557.00      6764.58
  226.69        3337.25           6675        2735.00     11902.40
  226.72        3337.50           6679        3959.00     17242.41
  226.74        3337.75           6683        5233.00     22802.26
  226.77        3338.00           6686        6249.00     27237.42
  226.80        3338.25           6690        7620.00     33224.01
  226.83        3338.50           6694        9053.00     39483.47
  226.85        3338.75           6698       10263.00     44770.56
  226.88        3339.00           6701       11343.00     49490.94
  226.91        3339.25           6705       12641.00     55165.79
  226.94        3339.50           6709       14110.00     61590.44
  226.96        3339.75           6713       15469.00     67536.06
  226.99        3340.00           6716       16495.00     72026.11
  227.02        3340.25           6720       17898.00     78167.85
  227.05        3340.50           6724       19303.00     84320.47
  227.07        3340.75           6728       20426.00     89239.71
  227.10        3341.00           6731       21268.00     92928.94
  227.13        3341.25           6735       22402.00     97898.77
  227.16        3341.50           6739       23222.00    101493.30
  227.18        3341.75           6743       23625.00    103260.20
  227.21        3342.00           6746       23544.00    102905.10
  227.24        3342.25           6750       23158.00    101212.80
  227.27        3342.50           6754       22177.00     96912.59
  227.29        3342.75           6758       20784.00     90808.19
  227.32        3343.00           6761       19976.00     87268.35
  227.35        3343.25           6765       18794.00     82091.27
  227.38        3343.50           6769       17385.00     75921.91
  227.40        3343.75           6773       16023.00     69960.36
  227.43        3344.00           6776       15058.00     65737.72
  227.46        3344.25           6780       13756.00     60042.01
  227.49        3344.50           6784       12430.00     54243.18
  227.51        3344.75           6788       11114.00     48489.94
  227.54        3345.00           6791        9914.00     43245.45
  227.57        3345.25           6795        8648.00     37714.17
  227.60        3345.50           6799        7013.00     30573.24
  227.62        3345.75           6803        5308.00     23129.62
  227.65        3346.00           6806        4112.00     17910.03
  227.68        3346.25           6810        2896.00     12604.71
  227.71        3346.50           6814        2035.00      8849.18
  227.73        3346.75           6818        1360.00      5905.51
  227.76        3347.00           6821         811.00      3511.68
  227.79        3347.25           6825         247.00      1052.78
  227.81        3347.50           6829          70.00       281.17
  227.84        3347.75           6833          38.00       141.67
  227.87        3348.00           6836          33.00       119.88
  227.90        3348.25           6840          35.00       128.60
  227.92        3348.50           6844          32.00       115.52
  227.95        3348.75           6848          28.00        98.08
  227.98        3349.00           6851          28.00        98.08
  228.00        3349.25           6855          32.00       115.52
  228.03        3349.50           6859          35.00       128.60
  228.06        3349.75           6863          29.00       102.44
  228.09        3350.00           6867          28.00        98.08
  228.11        3350.25           6870          31.00       111.16
  228.14        3350.50           6874          29.00       102.44
  228.17        3350.75           6878          30.00       106.80
  228.20        3351.00           6882          31.00       111.16
HL scan finished at 03:48:49
end
