************************************************************
  HL Scan of (1) Internal mercury lamp
************************************************************
Integration time is 0.2294 seconds per sample
dh190419Tamanrasset 22.79-5.529 4.974364pr865
************************************************************
Dead Time -------------------------  2.8E-08 
Number of Cycles Used -------------  4 
Starting Wavelength (Angstroms) ---  3331 
Final Wavelength (Angstoms) -------  3351 
Wavelength Increment (Angstroms) --  .25 
Filter Wheel #1 Position ---------- (1) Ground quartz diffuser (ND=2.32)
Filter Wheel #2 Position ---------- (0) Clear Aperture



************************************************************
HL scan start time = 03:44:18
Dark Count =  4.3 


Time (GMT)  Wavelength (Ang)  Step Number  Raw Counts  Counts/Second

  224.81        3331.00           6581          27.00        98.95
  225.03        3331.25           6585          25.00        90.24
  225.06        3331.50           6589          31.00       116.39
  225.09        3331.75           6593          25.00        90.24
  225.11        3332.00           6596          29.00       107.67
  225.14        3332.25           6600          26.00        94.59
  225.17        3332.50           6604          34.00       129.47
  225.20        3332.75           6608          22.00        77.16
  225.22        3333.00           6611          30.00       112.03
  225.25        3333.25           6615          36.00       138.19
  225.28        3333.50           6619          33.00       125.11
  225.31        3333.75           6623          34.00       129.47
  225.33        3334.00           6626          28.00       103.31
  225.36        3334.25           6630          29.00       107.67
  225.39        3334.50           6634          29.00       107.67
  225.41        3334.75           6638          27.00        98.95
  225.44        3335.00           6641          30.00       112.03
  225.47        3335.25           6645          35.00       133.83
  225.50        3335.50           6649          42.00       164.34
  225.52        3335.75           6653          39.00       151.26
  225.55        3336.00           6656          85.00       351.79
  225.58        3336.25           6660         318.00      1367.53
  225.61        3336.50           6664         811.00      3516.91
  225.63        3336.75           6668        1125.00      4886.02
  225.66        3337.00           6671        1736.00      7550.42
  225.69        3337.25           6675        3235.00     14088.82
  225.71        3337.50           6679        4813.00     20974.39
  225.74        3337.75           6683        6421.00     27993.60
  225.77        3338.00           6686        7637.00     33303.49
  225.80        3338.25           6690        9355.00     40808.16
  225.82        3338.50           6694       11173.00     48753.08
  225.85        3338.75           6698       12691.00     55389.68
  225.88        3339.00           6701       13918.00     60755.85
  225.91        3339.25           6705       15605.00     68136.41
  225.93        3339.50           6709       17329.00     75682.00
  225.96        3339.75           6713       19147.00     83642.48
  225.99        3340.00           6716       20292.00     88657.91
  226.02        3340.25           6720       21976.00     96036.89
  226.04        3340.50           6724       23518.00    102796.30
  226.07        3340.75           6728       25028.00    109418.00
  226.10        3341.00           6731       26388.00    115383.90
  226.13        3341.25           6735       27669.00    121005.20
  226.15        3341.50           6739       28540.00    124828.30
  226.18        3341.75           6743       29184.00    127655.60
  226.21        3342.00           6746       29069.00    127150.70
  226.24        3342.25           6750       28747.00    125737.00
  226.26        3342.50           6754       27561.00    120531.20
  226.29        3342.75           6758       25928.00    113365.80
  226.32        3343.00           6761       24693.00    107948.70
  226.35        3343.25           6765       22943.00    100275.50
  226.37        3343.50           6769       21609.00     94428.51
  226.40        3343.75           6773       20054.00     87615.28
  226.43        3344.00           6776       18789.00     82074.63
  226.46        3344.25           6780       17191.00     75077.90
  226.48        3344.50           6784       15372.00     67116.86
  226.51        3344.75           6788       13689.00     59754.21
  226.54        3345.00           6791       12454.00     54353.37
  226.57        3345.25           6795       10769.00     46987.24
  226.59        3345.50           6799        8505.00     37094.74
  226.62        3345.75           6803        6263.00     27303.78
  226.65        3346.00           6806        4947.00     21559.22
  226.68        3346.25           6810        3471.00     15118.43
  226.70        3346.50           6814        2645.00     11515.05
  226.73        3346.75           6818        1733.00      7537.34
  226.76        3347.00           6821        1048.00      4550.27
  226.79        3347.25           6825         324.00      1393.69
  226.81        3347.50           6829          73.00       299.48
  226.84        3347.75           6833          38.00       146.91
  226.87        3348.00           6836          30.00       112.03
  226.89        3348.25           6840          36.00       138.19
  226.92        3348.50           6844          33.00       125.11
  226.95        3348.75           6848          30.00       112.03
  226.98        3349.00           6851          32.00       120.75
  227.00        3349.25           6855          30.00       112.03
  227.03        3349.50           6859          32.00       120.75
  227.06        3349.75           6863          34.00       129.47
  227.09        3350.00           6867          27.00        98.95
  227.11        3350.25           6870          27.00        98.95
  227.14        3350.50           6874          26.00        94.59
  227.17        3350.75           6878          29.00       107.67
  227.20        3351.00           6882          32.00       120.75
HL scan finished at 03:47:49
end
