************************************************************
  HL Scan of (1) Internal mercury lamp
************************************************************
Integration time is 0.2294 seconds per sample
dh140419Tamanrasset 22.79-5.529 4.974364pr865
************************************************************
Dead Time -------------------------  2.8E-08 
Number of Cycles Used -------------  4 
Starting Wavelength (Angstroms) ---  3331 
Final Wavelength (Angstoms) -------  3351 
Wavelength Increment (Angstroms) --  .25 
Filter Wheel #1 Position ---------- (1) Ground quartz diffuser (ND=2.32)
Filter Wheel #2 Position ---------- (0) Clear Aperture



************************************************************
HL scan start time = 03:47:50
Dark Count =  4.4 


Time (GMT)  Wavelength (Ang)  Step Number  Raw Counts  Counts/Second

  228.35        3331.00           6581          30.00       111.60
  228.57        3331.25           6585          26.00        94.16
  228.59        3331.50           6589          30.00       111.60
  228.62        3331.75           6593          24.00        85.44
  228.65        3332.00           6596          35.00       133.39
  228.68        3332.25           6600          24.00        85.44
  228.70        3332.50           6604          27.00        98.52
  228.73        3332.75           6608          21.00        72.36
  228.76        3333.00           6611          28.00       102.88
  228.79        3333.25           6615          22.00        76.72
  228.81        3333.50           6619          33.00       124.67
  228.84        3333.75           6623          30.00       111.60
  228.87        3334.00           6626          23.00        81.08
  228.89        3334.25           6630          26.00        94.16
  228.92        3334.50           6634          29.00       107.24
  228.95        3334.75           6638          27.00        98.52
  228.98        3335.00           6641          32.00       120.31
  229.00        3335.25           6645          35.00       133.39
  229.03        3335.50           6649          35.00       133.39
  229.06        3335.75           6653          35.00       133.39
  229.09        3336.00           6656          52.00       207.50
  229.11        3336.25           6660         203.00       865.76
  229.14        3336.50           6664         599.00      2592.17
  229.17        3336.75           6668         804.00      3485.96
  229.19        3337.00           6671        1333.00      5792.57
  229.22        3337.25           6675        2431.00     10581.17
  229.25        3337.50           6679        3743.00     16304.74
  229.28        3337.75           6683        5045.00     21986.51
  229.30        3338.00           6686        6268.00     27325.18
  229.33        3338.25           6690        7734.00     33726.70
  229.36        3338.50           6694        9036.00     39414.01
  229.39        3338.75           6698       10329.00     45063.80
  229.41        3339.00           6701       11407.00     49775.51
  229.44        3339.25           6705       12801.00     55870.24
  229.47        3339.50           6709       14278.00     62330.14
  229.50        3339.75           6713       15764.00     68831.75
  229.52        3340.00           6716       16938.00     73969.96
  229.55        3340.25           6720       18377.00     80270.01
  229.58        3340.50           6724       19729.00     86191.19
  229.61        3340.75           6728       20942.00     91505.29
  229.63        3341.00           6731       22068.00     96439.66
  229.66        3341.25           6735       23156.00    101208.80
  229.69        3341.50           6739       24044.00    105102.20
  229.72        3341.75           6743       24509.00    107141.30
  229.74        3342.00           6746       24473.00    106983.50
  229.77        3342.25           6750       24259.00    106045.00
  229.80        3342.50           6754       23353.00    102072.50
  229.83        3342.75           6758       21915.00     95769.11
  229.85        3343.00           6761       21049.00     91974.13
  229.88        3343.25           6765       19684.00     85994.09
  229.91        3343.50           6769       18410.00     80414.52
  229.94        3343.75           6773       16819.00     73449.07
  229.96        3344.00           6776       15783.00     68914.88
  229.99        3344.25           6780       14501.00     63305.66
  230.02        3344.50           6784       13121.00     57269.62
  230.04        3344.75           6788       11570.00     50488.07
  230.07        3345.00           6791       10427.00     45492.09
  230.10        3345.25           6795        9090.00     39649.92
  230.13        3345.50           6799        7282.00     31752.72
  230.15        3345.75           6803        5372.00     23413.78
  230.18        3346.00           6806        4122.00     17958.46
  230.21        3346.25           6810        2971.00     12936.68
  230.24        3346.50           6814        2260.00      9835.31
  230.26        3346.75           6818        1469.00      6385.62
  230.29        3347.00           6821         833.00      3612.40
  230.32        3347.25           6825         294.00      1262.47
  230.35        3347.50           6829          56.00       224.94
  230.37        3347.75           6833          36.00       137.75
  230.40        3348.00           6836          32.00       120.31
  230.43        3348.25           6840          29.00       107.24
  230.45        3348.50           6844          35.00       133.39
  230.48        3348.75           6848          30.00       111.60
  230.51        3349.00           6851          30.00       111.60
  230.54        3349.25           6855          27.00        98.52
  230.56        3349.50           6859          33.00       124.67
  230.59        3349.75           6863          28.00       102.88
  230.62        3350.00           6867          30.00       111.60
  230.65        3350.25           6870          32.00       120.31
  230.67        3350.50           6874          26.00        94.16
  230.70        3350.75           6878          32.00       120.31
  230.73        3351.00           6882          33.00       124.67
HL scan finished at 03:51:21
end
