************************************************************
  HL Scan of (1) Internal mercury lamp
************************************************************
Integration time is 0.2294 seconds per sample
dh180419Tamanrasset 22.79-5.529 4.974364pr865
************************************************************
Dead Time -------------------------  2.8E-08 
Number of Cycles Used -------------  4 
Starting Wavelength (Angstroms) ---  3331 
Final Wavelength (Angstoms) -------  3351 
Wavelength Increment (Angstroms) --  .25 
Filter Wheel #1 Position ---------- (1) Ground quartz diffuser (ND=2.32)
Filter Wheel #2 Position ---------- (0) Clear Aperture



************************************************************
HL scan start time = 03:44:24
Dark Count =  3.9 


Time (GMT)  Wavelength (Ang)  Step Number  Raw Counts  Counts/Second

  224.92        3331.00           6581          31.00       118.13
  225.14        3331.25           6585          30.00       113.78
  225.17        3331.50           6589          25.00        91.98
  225.19        3331.75           6593          26.00        96.34
  225.22        3332.00           6596          27.00       100.70
  225.25        3332.25           6600          29.00       109.42
  225.28        3332.50           6604          25.00        91.98
  225.30        3332.75           6608          30.00       113.78
  225.33        3333.00           6611          25.00        91.98
  225.36        3333.25           6615          33.00       126.85
  225.39        3333.50           6619          30.00       113.78
  225.41        3333.75           6623          29.00       109.42
  225.44        3334.00           6626          27.00       100.70
  225.47        3334.25           6630          30.00       113.78
  225.49        3334.50           6634          31.00       118.13
  225.52        3334.75           6638          29.00       109.42
  225.55        3335.00           6641          33.00       126.85
  225.58        3335.25           6645          30.00       113.78
  225.60        3335.50           6649          34.00       131.21
  225.63        3335.75           6653          40.00       157.37
  225.66        3336.00           6656          62.00       253.27
  225.69        3336.25           6660         230.00       985.64
  225.71        3336.50           6664         656.00      2842.86
  225.74        3336.75           6668        1072.00      4656.67
  225.77        3337.00           6671        1573.00      6841.33
  225.79        3337.25           6675        2857.00     12441.56
  225.82        3337.50           6679        4334.00     18885.75
  225.85        3337.75           6683        5881.00     25637.84
  225.88        3338.00           6686        7042.00     30706.86
  225.90        3338.25           6690        8733.00     38092.49
  225.93        3338.50           6694       10262.00     44773.18
  225.96        3338.75           6698       11707.00     51089.16
  225.99        3339.00           6701       12995.00     56720.79
  226.01        3339.25           6705       14568.00     63600.96
  226.04        3339.50           6709       16129.00     70431.26
  226.07        3339.75           6713       17598.00     76861.41
  226.10        3340.00           6716       18910.00     82606.28
  226.12        3340.25           6720       20572.00     89886.36
  226.15        3340.50           6724       22132.00     96722.36
  226.18        3340.75           6728       23739.00    103767.10
  226.21        3341.00           6731       24792.00    108384.70
  226.23        3341.25           6735       25947.00    113450.90
  226.26        3341.50           6739       27059.00    118330.00
  226.29        3341.75           6743       27779.00    121489.70
  226.32        3342.00           6746       27713.00    121200.10
  226.34        3342.25           6750       27503.00    120278.40
  226.37        3342.50           6754       26555.00    116118.40
  226.40        3342.75           6758       24764.00    108261.90
  226.43        3343.00           6761       23821.00    104126.60
  226.45        3343.25           6765       22095.00     96560.19
  226.48        3343.50           6769       20830.00     91016.75
  226.51        3343.75           6773       19211.00     83924.52
  226.54        3344.00           6776       17996.00     78603.94
  226.56        3344.25           6780       16439.00     71788.01
  226.59        3344.50           6784       14866.00     64904.69
  226.62        3344.75           6788       13276.00     57949.66
  226.65        3345.00           6791       11884.00     51862.96
  226.67        3345.25           6795       10247.00     44707.64
  226.70        3345.50           6799        8055.00     35130.88
  226.73        3345.75           6803        5938.00     25886.67
  226.76        3346.00           6806        4858.00     21172.53
  226.78        3346.25           6810        3452.00     15037.28
  226.81        3346.50           6814        2537.00     11045.70
  226.84        3346.75           6818        1594.00      6932.91
  226.87        3347.00           6821         955.00      4146.51
  226.89        3347.25           6825         323.00      1391.07
  226.92        3347.50           6829          73.00       301.22
  226.95        3347.75           6833          26.00        96.34
  226.97        3348.00           6836          37.00       144.29
  227.00        3348.25           6840          31.00       118.13
  227.03        3348.50           6844          25.00        91.98
  227.06        3348.75           6848          33.00       126.85
  227.08        3349.00           6851          28.00       105.06
  227.11        3349.25           6855          30.00       113.78
  227.14        3349.50           6859          34.00       131.21
  227.17        3349.75           6863          34.00       131.21
  227.19        3350.00           6867          25.00        91.98
  227.22        3350.25           6870          30.00       113.78
  227.25        3350.50           6874          31.00       118.13
  227.27        3350.75           6878          32.00       122.49
  227.30        3351.00           6882          28.00       105.06
HL scan finished at 03:47:55
end
