************************************************************
  HL Scan of (1) Internal mercury lamp
************************************************************
Integration time is 0.2294 seconds per sample
dh130419Tamanrasset 22.79-5.529 4.974364pr865
************************************************************
Dead Time -------------------------  2.8E-08 
Number of Cycles Used -------------  4 
Starting Wavelength (Angstroms) ---  3331 
Final Wavelength (Angstoms) -------  3351 
Wavelength Increment (Angstroms) --  .25 
Filter Wheel #1 Position ---------- (1) Ground quartz diffuser (ND=2.32)
Filter Wheel #2 Position ---------- (0) Clear Aperture



************************************************************
HL scan start time = 03:49:14
Dark Count =  3.6 


Time (GMT)  Wavelength (Ang)  Step Number  Raw Counts  Counts/Second

  229.74        3331.00           6581          31.00       119.44
  229.96        3331.25           6585          33.00       128.16
  229.99        3331.50           6589          26.00        97.65
  230.01        3331.75           6593          22.00        80.21
  230.04        3332.00           6596          23.00        84.57
  230.07        3332.25           6600          23.00        84.57
  230.10        3332.50           6604          23.00        84.57
  230.12        3332.75           6608          29.00       110.72
  230.15        3333.00           6611          27.00       102.01
  230.18        3333.25           6615          25.00        93.29
  230.20        3333.50           6619          29.00       110.72
  230.23        3333.75           6623          28.00       106.36
  230.26        3334.00           6626          29.00       110.72
  230.29        3334.25           6630          25.00        93.29
  230.31        3334.50           6634          23.00        84.57
  230.34        3334.75           6638          29.00       110.72
  230.37        3335.00           6641          28.00       106.36
  230.39        3335.25           6645          35.00       136.88
  230.42        3335.50           6649          38.00       149.96
  230.45        3335.75           6653          40.00       158.68
  230.48        3336.00           6656          49.00       197.91
  230.50        3336.25           6660         155.00       659.99
  230.53        3336.50           6664         478.00      2068.12
  230.56        3336.75           6668         822.00      3567.92
  230.59        3337.00           6671        1290.00      5608.55
  230.61        3337.25           6675        2407.00     10479.97
  230.64        3337.50           6679        3689.00     16072.62
  230.67        3337.75           6683        5013.00     21850.33
  230.70        3338.00           6686        6019.00     26241.60
  230.72        3338.25           6690        7390.00     32227.85
  230.75        3338.50           6694        8732.00     38089.42
  230.78        3338.75           6698       10097.00     44053.44
  230.80        3339.00           6701       11102.00     48445.80
  230.83        3339.25           6705       12483.00     54483.23
  230.86        3339.50           6709       14024.00     61222.56
  230.89        3339.75           6713       15443.00     67430.60
  230.91        3340.00           6716       16474.00     71942.51
  230.94        3340.25           6720       17821.00     77839.05
  230.97        3340.50           6724       19202.00     83886.43
  231.00        3340.75           6728       20454.00     89370.71
  231.02        3341.00           6731       21448.00     93726.03
  231.05        3341.25           6735       22523.00     98437.47
  231.08        3341.50           6739       23379.00    102190.00
  231.10        3341.75           6743       23823.00    104136.70
  231.13        3342.00           6746       23770.00    103904.30
  231.16        3342.25           6750       23585.00    103093.20
  231.19        3342.50           6754       22778.00     99555.25
  231.21        3342.75           6758       21250.00     92858.38
  231.24        3343.00           6761       20313.00     88752.98
  231.27        3343.25           6765       19011.00     83049.93
  231.30        3343.50           6769       17865.00     78031.69
  231.32        3343.75           6773       16631.00     72629.69
  231.35        3344.00           6776       15488.00     67627.50
  231.38        3344.25           6780       14225.00     62101.80
  231.41        3344.50           6784       12689.00     55383.99
  231.43        3344.75           6788       11360.00     49573.56
  231.46        3345.00           6791       10360.00     45202.78
  231.49        3345.25           6795        9037.00     39421.88
  231.52        3345.50           6799        7183.00     31323.89
  231.54        3345.75           6803        5500.00     23975.99
  231.57        3346.00           6806        4218.00     18380.86
  231.60        3346.25           6810        3093.00     13472.39
  231.62        3346.50           6814        2350.00     10231.35
  231.65        3346.75           6818        1486.00      6463.24
  231.68        3347.00           6821         925.00      4017.02
  231.71        3347.25           6825         317.00      1366.22
  231.73        3347.50           6829          76.00       315.61
  231.76        3347.75           6833          32.00       123.80
  231.79        3348.00           6836          30.00       115.08
  231.81        3348.25           6840          30.00       115.08
  231.84        3348.50           6844          33.00       128.16
  231.87        3348.75           6848          31.00       119.44
  231.90        3349.00           6851          30.00       115.08
  231.92        3349.25           6855          33.00       128.16
  231.95        3349.50           6859          26.00        97.65
  231.98        3349.75           6863          31.00       119.44
  232.00        3350.00           6867          29.00       110.72
  232.03        3350.25           6870          29.00       110.72
  232.06        3350.50           6874          30.00       115.08
  232.09        3350.75           6878          31.00       119.44
  232.11        3351.00           6882          33.00       128.16
HL scan finished at 03:52:44
end
