************************************************************
  HL Scan of (1) Internal mercury lamp
************************************************************
Integration time is 0.2294 seconds per sample
dh210419Tamanrasset 22.79-5.529 4.974364pr865
************************************************************
Dead Time -------------------------  2.8E-08 
Number of Cycles Used -------------  4 
Starting Wavelength (Angstroms) ---  3331 
Final Wavelength (Angstoms) -------  3351 
Wavelength Increment (Angstroms) --  .25 
Filter Wheel #1 Position ---------- (1) Ground quartz diffuser (ND=2.32)
Filter Wheel #2 Position ---------- (0) Clear Aperture



************************************************************
HL scan start time = 03:42:20
Dark Count =  5.5 


Time (GMT)  Wavelength (Ang)  Step Number  Raw Counts  Counts/Second

  222.84        3331.00           6581          25.00        85.00
  223.06        3331.25           6585          33.00       119.88
  223.09        3331.50           6589          26.00        89.36
  223.11        3331.75           6593          33.00       119.88
  223.14        3332.00           6596          27.00        93.72
  223.17        3332.25           6600          28.00        98.08
  223.19        3332.50           6604          30.00       106.80
  223.22        3332.75           6608          32.00       115.52
  223.25        3333.00           6611          32.00       115.52
  223.28        3333.25           6615          33.00       119.88
  223.30        3333.50           6619          32.00       115.52
  223.33        3333.75           6623          32.00       115.52
  223.36        3334.00           6626          31.00       111.16
  223.39        3334.25           6630          26.00        89.36
  223.41        3334.50           6634          31.00       111.16
  223.44        3334.75           6638          25.00        85.00
  223.47        3335.00           6641          33.00       119.88
  223.49        3335.25           6645          39.00       146.03
  223.52        3335.50           6649          40.00       150.39
  223.55        3335.75           6653          40.00       150.39
  223.58        3336.00           6656          72.00       289.89
  223.60        3336.25           6660         279.00      1192.28
  223.63        3336.50           6664         810.00      3507.32
  223.66        3336.75           6668        1210.00      5251.43
  223.69        3337.00           6671        1724.00      7492.85
  223.71        3337.25           6675        3148.00     13704.04
  223.74        3337.50           6679        4804.00     20929.87
  223.77        3337.75           6683        6518.00     28411.87
  223.80        3338.00           6686        7855.00     34250.36
  223.82        3338.25           6690        9575.00     41764.15
  223.85        3338.50           6694       11308.00     49337.95
  223.88        3338.75           6698       12962.00     56569.49
  223.91        3339.00           6701       14326.00     62535.30
  223.93        3339.25           6705       16201.00     70739.37
  223.96        3339.50           6709       18011.00     78662.61
  223.99        3339.75           6713       19859.00     86755.82
  224.01        3340.00           6716       21027.00     91872.91
  224.04        3340.25           6720       22830.00     99774.87
  224.07        3340.50           6724       24516.00    107167.20
  224.10        3340.75           6728       26201.00    114558.30
  224.13        3341.00           6731       27500.00    120258.20
  224.15        3341.25           6735       28915.00    126469.30
  224.18        3341.50           6739       30011.00    131281.60
  224.21        3341.75           6743       30784.00    134676.50
  224.24        3342.00           6746       30625.00    133978.10
  224.26        3342.25           6750       30274.00    132436.60
  224.29        3342.50           6754       29333.00    128304.50
  224.32        3342.75           6758       27434.00    119968.60
  224.35        3343.00           6761       26073.00    113996.70
  224.37        3343.25           6765       24471.00    106969.90
  224.40        3343.50           6769       23139.00    101129.50
  224.43        3343.75           6773       21427.00     93625.69
  224.46        3344.00           6776       20026.00     87487.37
  224.48        3344.25           6780       18307.00     79958.68
  224.51        3344.50           6784       16490.00     72004.22
  224.54        3344.75           6788       14679.00     64079.57
  224.57        3345.00           6791       13335.00     58200.70
  224.59        3345.25           6795       11608.00     50649.37
  224.62        3345.50           6799        9045.00     39448.52
  224.65        3345.75           6803        6630.00     28900.89
  224.67        3346.00           6806        5334.00     23243.11
  224.70        3346.25           6810        3761.00     16378.48
  224.73        3346.50           6814        2817.00     12260.09
  224.76        3346.75           6818        1769.00      7689.10
  224.78        3347.00           6821        1154.00      5007.24
  224.81        3347.25           6825         380.00      1632.59
  224.84        3347.50           6829          86.00       350.92
  224.87        3347.75           6833          37.00       137.32
  224.89        3348.00           6836          35.00       128.60
  224.92        3348.25           6840          40.00       150.39
  224.95        3348.50           6844          34.00       124.24
  224.97        3348.75           6848          36.00       132.96
  225.00        3349.00           6851          32.00       115.52
  225.03        3349.25           6855          37.00       137.32
  225.06        3349.50           6859          33.00       119.88
  225.08        3349.75           6863          32.00       115.52
  225.11        3350.00           6867          28.00        98.08
  225.14        3350.25           6870          34.00       124.24
  225.17        3350.50           6874          31.00       111.16
  225.19        3350.75           6878          28.00        98.08
  225.22        3351.00           6882          34.00       124.24
HL scan finished at 03:45:51
end
