************************************************************
  HL Scan of (1) Internal mercury lamp
************************************************************
Integration time is 0.2294 seconds per sample
dh200419Tamanrasset 22.79-5.529 4.974364pr865
************************************************************
Dead Time -------------------------  2.8E-08 
Number of Cycles Used -------------  4 
Starting Wavelength (Angstroms) ---  3331 
Final Wavelength (Angstoms) -------  3351 
Wavelength Increment (Angstroms) --  .25 
Filter Wheel #1 Position ---------- (1) Ground quartz diffuser (ND=2.32)
Filter Wheel #2 Position ---------- (0) Clear Aperture



************************************************************
HL scan start time = 03:44:49
Dark Count =  4.1 


Time (GMT)  Wavelength (Ang)  Step Number  Raw Counts  Counts/Second

  225.33        3331.00           6581          27.00        99.83
  225.55        3331.25           6585          24.00        86.75
  225.57        3331.50           6589          29.00       108.54
  225.60        3331.75           6593          26.00        95.47
  225.63        3332.00           6596          29.00       108.54
  225.66        3332.25           6600          28.00       104.19
  225.68        3332.50           6604          29.00       108.54
  225.71        3332.75           6608          29.00       108.54
  225.74        3333.00           6611          29.00       108.54
  225.76        3333.25           6615          27.00        99.83
  225.79        3333.50           6619          29.00       108.54
  225.82        3333.75           6623          27.00        99.83
  225.85        3334.00           6626          29.00       108.54
  225.88        3334.25           6630          28.00       104.19
  225.90        3334.50           6634          32.00       121.62
  225.93        3334.75           6638          29.00       108.54
  225.96        3335.00           6641          35.00       134.70
  225.98        3335.25           6645          34.00       130.34
  226.01        3335.50           6649          36.00       139.06
  226.04        3335.75           6653          52.00       208.81
  226.07        3336.00           6656         135.00       570.63
  226.09        3336.25           6660         364.00      1568.94
  226.12        3336.50           6664         739.00      3203.86
  226.15        3336.75           6668        1382.00      6007.55
  226.18        3337.00           6671        2157.00      9387.38
  226.20        3337.25           6675        3659.00     15939.55
  226.23        3337.50           6679        5269.00     22965.51
  226.26        3337.75           6683        7001.00     30526.95
  226.29        3338.00           6686        8372.00     36514.65
  226.31        3338.25           6690       10196.00     44483.89
  226.34        3338.50           6694       11820.00     51582.30
  226.37        3338.75           6698       13539.00     59099.03
  226.40        3339.00           6701       14799.00     64610.69
  226.42        3339.25           6705       16638.00     72658.13
  226.45        3339.50           6709       18515.00     80875.62
  226.48        3339.75           6713       20365.00     88978.59
  226.50        3340.00           6716       21652.00     94617.82
  226.53        3340.25           6720       23307.00    101872.10
  226.56        3340.50           6724       24991.00    109256.60
  226.59        3340.75           6728       26683.00    116679.20
  226.61        3341.00           6731       28009.00    122498.40
  226.64        3341.25           6735       29491.00    129004.40
  226.67        3341.50           6739       30086.00    131617.10
  226.70        3341.75           6743       30892.00    135157.00
  226.72        3342.00           6746       30693.00    134283.00
  226.75        3342.25           6750       30239.00    132289.00
  226.78        3342.50           6754       28871.00    126282.30
  226.81        3342.75           6758       27080.00    118421.20
  226.83        3343.00           6761       25682.00    112287.50
  226.86        3343.25           6765       24219.00    105870.90
  226.89        3343.50           6769       22398.00     97887.37
  226.92        3343.75           6773       20710.00     90490.10
  226.94        3344.00           6776       19296.00     84295.94
  226.97        3344.25           6780       17618.00     76948.09
  227.00        3344.50           6784       15780.00     68903.08
  227.03        3344.75           6788       13961.00     60944.80
  227.05        3345.00           6791       12549.00     54769.63
  227.08        3345.25           6795       10547.00     46017.85
  227.11        3345.50           6799        8193.00     35732.77
  227.14        3345.75           6803        5908.00     25754.84
  227.16        3346.00           6806        4714.00     20543.20
  227.19        3346.25           6810        3245.00     14133.32
  227.22        3346.50           6814        2339.00     10181.19
  227.24        3346.75           6818        1414.00      6147.09
  227.27        3347.00           6821         752.00      3260.54
  227.30        3347.25           6825         207.00       884.50
  227.33        3347.50           6829          50.00       200.09
  227.35        3347.75           6833          37.00       143.42
  227.38        3348.00           6836          34.00       130.34
  227.41        3348.25           6840          35.00       134.70
  227.44        3348.50           6844          35.00       134.70
  227.46        3348.75           6848          34.00       130.34
  227.49        3349.00           6851          32.00       121.62
  227.52        3349.25           6855          34.00       130.34
  227.54        3349.50           6859          34.00       130.34
  227.57        3349.75           6863          26.00        95.47
  227.60        3350.00           6867          29.00       108.54
  227.63        3350.25           6870          24.00        86.75
  227.65        3350.50           6874          33.00       125.98
  227.68        3350.75           6878          28.00       104.19
  227.71        3351.00           6882          28.00       104.19
HL scan finished at 03:48:20
end
