************************************************************
  HL Scan of (1) Internal mercury lamp
************************************************************
Integration time is 0.2294 seconds per sample
dh220419Tamanrasset 22.79-5.529 4.974364pr865
************************************************************
Dead Time -------------------------  2.8E-08 
Number of Cycles Used -------------  4 
Starting Wavelength (Angstroms) ---  3331 
Final Wavelength (Angstoms) -------  3351 
Wavelength Increment (Angstroms) --  .25 
Filter Wheel #1 Position ---------- (1) Ground quartz diffuser (ND=2.32)
Filter Wheel #2 Position ---------- (0) Clear Aperture



************************************************************
HL scan start time = 03:41:17
Dark Count =  5.1 


Time (GMT)  Wavelength (Ang)  Step Number  Raw Counts  Counts/Second

  221.80        3331.00           6581          30.00       108.54
  222.02        3331.25           6585          33.00       121.62
  222.05        3331.50           6589          30.00       108.54
  222.08        3331.75           6593          35.00       130.34
  222.10        3332.00           6596          31.00       112.90
  222.13        3332.25           6600          30.00       108.54
  222.16        3332.50           6604          28.00        99.83
  222.19        3332.75           6608          33.00       121.62
  222.21        3333.00           6611          29.00       104.19
  222.24        3333.25           6615          34.00       125.98
  222.27        3333.50           6619          34.00       125.98
  222.29        3333.75           6623          35.00       130.34
  222.32        3334.00           6626          32.00       117.26
  222.35        3334.25           6630          34.00       125.98
  222.38        3334.50           6634          30.00       108.54
  222.40        3334.75           6638          32.00       117.26
  222.43        3335.00           6641          34.00       125.98
  222.46        3335.25           6645          38.00       143.42
  222.48        3335.50           6649          38.00       143.42
  222.51        3335.75           6653          38.00       143.42
  222.54        3336.00           6656         105.00       435.49
  222.57        3336.25           6660         395.00      1699.73
  222.59        3336.50           6664        1044.00      4529.35
  222.62        3336.75           6668        1573.00      6836.10
  222.65        3337.00           6671        2183.00      9496.42
  222.68        3337.25           6675        3830.00     16681.29
  222.70        3337.50           6679        5593.00     24375.39
  222.73        3337.75           6683        7332.00     31968.01
  222.76        3338.00           6686        8911.00     38864.86
  222.79        3338.25           6690       10947.00     47761.74
  222.81        3338.50           6694       12753.00     55657.29
  222.84        3338.75           6698       14610.00     63779.45
  222.87        3339.00           6701       16277.00     71073.74
  222.90        3339.25           6705       18180.00     79404.34
  222.92        3339.50           6709       20127.00     87931.58
  222.95        3339.75           6713       22125.00     96686.42
  222.98        3340.00           6716       23517.00    102788.40
  223.01        3340.25           6720       25468.00    111344.40
  223.03        3340.50           6724       27463.00    120097.60
  223.06        3340.75           6728       29365.00    128446.80
  223.09        3341.00           6731       30776.00    134643.10
  223.11        3341.25           6735       32142.00    140643.90
  223.14        3341.50           6739       33356.00    145978.60
  223.17        3341.75           6743       34045.00    149007.10
  223.20        3342.00           6746       33950.00    148589.50
  223.22        3342.25           6750       33476.00    146506.00
  223.25        3342.50           6754       32083.00    140384.70
  223.28        3342.75           6758       30209.00    132152.90
  223.31        3343.00           6761       29173.00    127603.80
  223.33        3343.25           6765       26933.00    117771.80
  223.36        3343.50           6769       25419.00    111129.50
  223.39        3343.75           6773       23365.00    102122.00
  223.42        3344.00           6776       21980.00     96050.92
  223.44        3344.25           6780       20114.00     87874.62
  223.47        3344.50           6784       18216.00     79561.96
  223.50        3344.75           6788       16014.00     69922.74
  223.53        3345.00           6791       14312.00     62475.81
  223.55        3345.25           6795       12450.00     54332.38
  223.58        3345.50           6799        9736.00     42469.40
  223.61        3345.75           6803        7135.00     31107.73
  223.64        3346.00           6806        5708.00     24877.39
  223.66        3346.25           6810        3988.00     17370.70
  223.69        3346.50           6814        2947.00     12828.93
  223.72        3346.75           6818        1923.00      8362.46
  223.75        3347.00           6821        1211.00      5257.53
  223.77        3347.25           6825         384.00      1651.78
  223.80        3347.50           6829          87.00       357.02
  223.83        3347.75           6833          39.00       147.78
  223.85        3348.00           6836          37.00       139.06
  223.88        3348.25           6840          34.00       125.98
  223.91        3348.50           6844          37.00       139.06
  223.94        3348.75           6848          36.00       134.70
  223.96        3349.00           6851          33.00       121.62
  223.99        3349.25           6855          32.00       117.26
  224.02        3349.50           6859          32.00       117.26
  224.05        3349.75           6863          30.00       108.54
  224.07        3350.00           6867          37.00       139.06
  224.10        3350.25           6870          31.00       112.90
  224.13        3350.50           6874          32.00       117.26
  224.16        3350.75           6878          42.00       160.86
  224.18        3351.00           6882          34.00       125.98
HL scan finished at 03:44:48
end
