************************************************************
  HL Scan of (1) Internal mercury lamp
************************************************************
Integration time is 0.2294 seconds per sample
dh210619El Arenosillo 37.1 6.73 3.159365pr1000
************************************************************
Dead Time -------------------------  2.8E-08 
Number of Cycles Used -------------  4 
Starting Wavelength (Angstroms) ---  3331 
Final Wavelength (Angstoms) -------  3351 
Wavelength Increment (Angstroms) --  .25 
Filter Wheel #1 Position ---------- (1) Ground quartz diffuser (ND=2.32)
Filter Wheel #2 Position ---------- (0) Clear Aperture



************************************************************
HL scan start time = 22:16:43
Dark Count =  6 


Time (GMT)  Wavelength (Ang)  Step Number  Raw Counts  Counts/Second

 1337.23        3331.00           6581          26.00        87.18
 1337.45        3331.25           6585          28.00        95.90
 1337.48        3331.50           6589          32.00       113.34
 1337.51        3331.75           6593          27.00        91.54
 1337.53        3332.00           6596          29.00       100.26
 1337.56        3332.25           6600          30.00       104.62
 1337.59        3332.50           6604          25.00        82.82
 1337.62        3332.75           6608          27.00        91.54
 1337.65        3333.00           6611          26.00        87.18
 1337.68        3333.25           6615          33.00       117.70
 1337.71        3333.50           6619          25.00        82.82
 1337.74        3333.75           6623          31.00       108.98
 1337.77        3334.00           6626          26.00        87.18
 1337.79        3334.25           6630          26.00        87.18
 1337.82        3334.50           6634          24.00        78.47
 1337.85        3334.75           6638          28.00        95.90
 1337.88        3335.00           6641          32.00       113.34
 1337.91        3335.25           6645          33.00       117.70
 1337.94        3335.50           6649          32.00       113.34
 1337.97        3335.75           6653          42.00       156.93
 1338.00        3336.00           6656         151.00       632.09
 1338.02        3336.25           6660         483.00      2079.46
 1338.05        3336.50           6664        1238.00      5371.34
 1338.08        3336.75           6668        2342.00     10185.99
 1338.11        3337.00           6671        3155.00     13732.39
 1338.14        3337.25           6675        3965.00     17266.41
 1338.17        3337.50           6679        5711.00     24886.56
 1338.20        3337.75           6683        7454.00     32496.86
 1338.23        3338.00           6686        8644.00     37694.52
 1338.26        3338.25           6690       10520.00     45891.54
 1338.28        3338.50           6694       12304.00     53690.07
 1338.31        3338.75           6698       14094.00     61518.26
 1338.34        3339.00           6701       15612.00     68159.60
 1338.37        3339.25           6705       17488.00     76370.63
 1338.40        3339.50           6709       19283.00     84230.68
 1338.43        3339.75           6713       21172.00     92506.09
 1338.46        3340.00           6716       22307.00     97480.19
 1338.49        3340.25           6720       24159.00    105599.50
 1338.51        3340.50           6724       26149.00    114327.90
 1338.54        3340.75           6728       27654.00    120931.90
 1338.57        3341.00           6731       29008.00    126875.40
 1338.60        3341.25           6735       30499.00    133422.60
 1338.63        3341.50           6739       31504.00    137837.00
 1338.66        3341.75           6743       31766.00    138988.00
 1338.69        3342.00           6746       31571.00    138131.30
 1338.72        3342.25           6750       31137.00    136224.80
 1338.75        3342.50           6754       29752.00    130142.10
 1338.77        3342.75           6758       28231.00    123464.50
 1338.80        3343.00           6761       26403.00    115442.30
 1338.83        3343.25           6765       24216.00    105849.40
 1338.86        3343.50           6769       22764.00     99483.35
 1338.89        3343.75           6773       21294.00     93040.68
 1338.92        3344.00           6776       19811.00     86543.38
 1338.95        3344.25           6780       17863.00     78012.43
 1338.98        3344.50           6784       15981.00     69774.38
 1339.01        3344.75           6788       14281.00     62336.26
 1339.04        3345.00           6791       12809.00     55898.24
 1339.06        3345.25           6795       10964.00     47832.11
 1339.09        3345.50           6799        8901.00     38817.23
 1339.12        3345.75           6803        6194.00     26995.11
 1339.15        3346.00           6806        4676.00     20369.07
 1339.18        3346.25           6810        3078.00     13396.48
 1339.21        3346.50           6814        1647.00      7154.88
 1339.24        3346.75           6818         876.00      3792.91
 1339.27        3347.00           6821         512.00      2205.89
 1339.30        3347.25           6825         186.00       784.67
 1339.33        3347.50           6829          45.00       170.01
 1339.35        3347.75           6833          39.00       143.85
 1339.38        3348.00           6836          31.00       108.98
 1339.41        3348.25           6840          30.00       104.62
 1339.44        3348.50           6844          36.00       130.78
 1339.47        3348.75           6848          32.00       113.34
 1339.50        3349.00           6851          34.00       122.06
 1339.53        3349.25           6855          28.00        95.90
 1339.55        3349.50           6859          32.00       113.34
 1339.58        3349.75           6863          33.00       117.70
 1339.61        3350.00           6867          36.00       130.78
 1339.64        3350.25           6870          33.00       117.70
 1339.67        3350.50           6874          30.00       104.62
 1339.70        3350.75           6878          35.00       126.42
 1339.73        3351.00           6882          35.00       126.42
HL scan finished at 22:20:22
end
