************************************************************
  HL Scan of (1) Internal mercury lamp
************************************************************
Integration time is 0.2294 seconds per sample
dh220619El Arenosillo 37.1 6.73 3.123676pr1000
************************************************************
Dead Time -------------------------  2.8E-08 
Number of Cycles Used -------------  4 
Starting Wavelength (Angstroms) ---  3331 
Final Wavelength (Angstoms) -------  3351 
Wavelength Increment (Angstroms) --  .25 
Filter Wheel #1 Position ---------- (1) Ground quartz diffuser (ND=2.32)
Filter Wheel #2 Position ---------- (0) Clear Aperture



************************************************************
HL scan start time = 02:24:15
Dark Count =  3.8 


Time (GMT)  Wavelength (Ang)  Step Number  Raw Counts  Counts/Second

  144.76        3331.00           6581          26.00        96.77
  144.98        3331.25           6585          30.00       114.21
  145.01        3331.50           6589          31.00       118.57
  145.04        3331.75           6593          30.00       114.21
  145.07        3332.00           6596          25.00        92.42
  145.10        3332.25           6600          30.00       114.21
  145.13        3332.50           6604          29.00       109.85
  145.16        3332.75           6608          30.00       114.21
  145.18        3333.00           6611          29.00       109.85
  145.21        3333.25           6615          25.00        92.42
  145.24        3333.50           6619          29.00       109.85
  145.27        3333.75           6623          29.00       109.85
  145.30        3334.00           6626          31.00       118.57
  145.33        3334.25           6630          30.00       114.21
  145.36        3334.50           6634          29.00       109.85
  145.39        3334.75           6638          32.00       122.93
  145.41        3335.00           6641          27.00       101.13
  145.44        3335.25           6645          34.00       131.65
  145.47        3335.50           6649          32.00       122.93
  145.50        3335.75           6653          40.00       157.80
  145.53        3336.00           6656          73.00       301.66
  145.56        3336.25           6660         399.00      1722.84
  145.59        3336.50           6664         991.00      4303.92
  145.62        3336.75           6668        2068.00      9000.52
  145.64        3337.00           6671        2863.00     12468.17
  145.67        3337.25           6675        3645.00     15879.77
  145.70        3337.50           6679        5257.00     22914.44
  145.73        3337.75           6683        6911.00     30135.27
  145.76        3338.00           6686        8130.00     35458.90
  145.79        3338.25           6690        9795.00     42732.88
  145.82        3338.50           6694       11567.00     50477.58
  145.85        3338.75           6698       13342.00     58238.75
  145.88        3339.00           6701       14673.00     64060.75
  145.90        3339.25           6705       16491.00     72016.04
  145.93        3339.50           6709       18183.00     79423.16
  145.96        3339.75           6713       20006.00     87407.21
  145.99        3340.00           6716       21276.00     92971.44
  146.02        3340.25           6720       22889.00    100041.00
  146.05        3340.50           6724       24520.00    107192.20
  146.08        3340.75           6728       26313.00    115057.10
  146.11        3341.00           6731       27608.00    120739.70
  146.14        3341.25           6735       28865.00    126257.20
  146.17        3341.50           6739       29879.00    130709.40
  146.20        3341.75           6743       30237.00    132281.60
  146.22        3342.00           6746       30151.00    131903.90
  146.25        3342.25           6750       29743.00    130112.20
  146.28        3342.50           6754       28483.00    124580.30
  146.31        3342.75           6758       26848.00    117404.50
  146.34        3343.00           6761       25458.00    111306.30
  146.37        3343.25           6765       23691.00    103557.00
  146.40        3343.50           6769       22085.00     96516.81
  146.43        3343.75           6773       20489.00     89523.16
  146.46        3344.00           6776       19130.00     83570.21
  146.49        3344.25           6780       17364.00     75837.41
  146.52        3344.50           6784       15493.00     67648.50
  146.54        3344.75           6788       13874.00     60565.58
  146.57        3345.00           6791       12559.00     54814.67
  146.60        3345.25           6795       10540.00     45988.57
  146.63        3345.50           6799        8742.00     38132.24
  146.66        3345.75           6803        6503.00     28353.80
  146.69        3346.00           6806        4758.00     20736.54
  146.72        3346.25           6810        3149.00     13715.82
  146.74        3346.50           6814        1713.00      7452.30
  146.77        3346.75           6818         907.00      3937.66
  146.80        3347.00           6821         586.00      2538.11
  146.83        3347.25           6825         228.00       977.36
  146.86        3347.50           6829          54.00       218.83
  146.89        3347.75           6833          38.00       149.09
  146.92        3348.00           6836          39.00       153.44
  146.94        3348.25           6840          34.00       131.65
  146.97        3348.50           6844          34.00       131.65
  147.00        3348.75           6848          33.00       127.29
  147.03        3349.00           6851          32.00       122.93
  147.06        3349.25           6855          30.00       114.21
  147.09        3349.50           6859          29.00       109.85
  147.12        3349.75           6863          36.00       140.37
  147.15        3350.00           6867          35.00       136.01
  147.17        3350.25           6870          31.00       118.57
  147.20        3350.50           6874          35.00       136.01
  147.23        3350.75           6878          31.00       118.57
  147.26        3351.00           6882          30.00       114.21
HL scan finished at 02:27:54
end
************************************************************
  HL Scan of (1) Internal mercury lamp
************************************************************
Integration time is 0.2294 seconds per sample
dh220619El Arenosillo 37.1 6.73 3.011514pr1000
************************************************************
Dead Time -------------------------  2.8E-08 
Number of Cycles Used -------------  4 
Starting Wavelength (Angstroms) ---  3331 
Final Wavelength (Angstoms) -------  3351 
Wavelength Increment (Angstroms) --  .25 
Filter Wheel #1 Position ---------- (1) Ground quartz diffuser (ND=2.32)
Filter Wheel #2 Position ---------- (0) Clear Aperture



************************************************************
HL scan start time = 22:18:02
Dark Count =  4.9 


Time (GMT)  Wavelength (Ang)  Step Number  Raw Counts  Counts/Second

 1338.55        3331.00           6581          24.00        83.26
 1338.77        3331.25           6585          32.00       118.13
 1338.80        3331.50           6589          28.00       100.70
 1338.83        3331.75           6593          28.00       100.70
 1338.86        3332.00           6596          26.00        91.98
 1338.89        3332.25           6600          27.00        96.34
 1338.92        3332.50           6604          28.00       100.70
 1338.94        3332.75           6608          29.00       105.06
 1338.97        3333.00           6611          31.00       113.78
 1339.00        3333.25           6615          29.00       105.06
 1339.03        3333.50           6619          29.00       105.06
 1339.06        3333.75           6623          31.00       113.78
 1339.09        3334.00           6626          29.00       105.06
 1339.12        3334.25           6630          28.00       100.70
 1339.14        3334.50           6634          24.00        83.26
 1339.17        3334.75           6638          28.00       100.70
 1339.20        3335.00           6641          38.00       144.29
 1339.23        3335.25           6645          34.00       126.85
 1339.26        3335.50           6649          34.00       126.85
 1339.29        3335.75           6653          40.00       153.01
 1339.32        3336.00           6656         102.00       423.28
 1339.35        3336.25           6660         452.00      1949.10
 1339.38        3336.50           6664        1153.00      5005.50
 1339.40        3336.75           6668        2100.00      9135.29
 1339.43        3337.00           6671        2597.00     11303.05
 1339.46        3337.25           6675        3549.00     15456.12
 1339.49        3337.50           6679        5155.00     22464.43
 1339.52        3337.75           6683        6611.00     28820.55
 1339.55        3338.00           6686        8030.00     35017.32
 1339.58        3338.25           6690        9501.00     41443.44
 1339.61        3338.50           6694       11236.00     49025.84
 1339.64        3338.75           6698       12705.00     55448.27
 1339.66        3339.00           6701       13945.00     60871.32
 1339.69        3339.25           6705       15670.00     68418.22
 1339.72        3339.50           6709       17425.00     76099.65
 1339.75        3339.75           6713       18918.00     82636.93
 1339.78        3340.00           6716       20176.00     88147.11
 1339.81        3340.25           6720       21769.00     95127.06
 1339.84        3340.50           6724       23455.00    102517.50
 1339.87        3340.75           6728       25047.00    109498.70
 1339.90        3341.00           6731       26057.00    113929.10
 1339.92        3341.25           6735       27289.00    119334.90
 1339.95        3341.50           6739       28126.00    123008.40
 1339.98        3341.75           6743       28310.00    123816.10
 1340.01        3342.00           6746       28423.00    124312.10
 1340.04        3342.25           6750       27711.00    121186.90
 1340.07        3342.50           6754       26610.00    116355.40
 1340.10        3342.75           6758       25025.00    109402.20
 1340.13        3343.00           6761       23336.00    101995.80
 1340.16        3343.25           6765       21821.00     95354.94
 1340.18        3343.50           6769       20474.00     89452.62
 1340.21        3343.75           6773       18847.00     82326.00
 1340.24        3344.00           6776       17710.00     77347.37
 1340.27        3344.25           6780       15903.00     69437.83
 1340.30        3344.50           6784       14317.00     62498.56
 1340.33        3344.75           6788       12723.00     55526.98
 1340.36        3345.00           6791       11517.00     50254.19
 1340.39        3345.25           6795        9792.00     42714.97
 1340.42        3345.50           6799        7936.00     34606.75
 1340.44        3345.75           6803        5818.00     25358.45
 1340.47        3346.00           6806        4392.00     19134.49
 1340.50        3346.25           6810        2775.00     12079.50
 1340.53        3346.50           6814        1553.00      6749.75
 1340.56        3346.75           6818         883.00      3828.22
 1340.59        3347.00           6821         549.00      2372.00
 1340.62        3347.25           6825         176.00       745.87
 1340.65        3347.50           6829          45.00       174.80
 1340.67        3347.75           6833          37.00       139.93
 1340.70        3348.00           6836          40.00       153.01
 1340.73        3348.25           6840          37.00       139.93
 1340.76        3348.50           6844          36.00       135.57
 1340.79        3348.75           6848          29.00       105.06
 1340.82        3349.00           6851          30.00       109.42
 1340.85        3349.25           6855          30.00       109.42
 1340.88        3349.50           6859          30.00       109.42
 1340.90        3349.75           6863          33.00       122.49
 1340.93        3350.00           6867          29.00       105.06
 1340.96        3350.25           6870          30.00       109.42
 1340.99        3350.50           6874          32.00       118.13
 1341.02        3350.75           6878          37.00       139.93
 1341.05        3351.00           6882          31.00       113.78
HL scan finished at 22:21:41
end
