************************************************************
  HL Scan of (1) Internal mercury lamp
************************************************************
Integration time is 0.2294 seconds per sample
dh200619El Arenosillo 37.1 6.73 3.098185pr1000
************************************************************
Dead Time -------------------------  2.8E-08 
Number of Cycles Used -------------  4 
Starting Wavelength (Angstroms) ---  3331 
Final Wavelength (Angstoms) -------  3351 
Wavelength Increment (Angstroms) --  .25 
Filter Wheel #1 Position ---------- (1) Ground quartz diffuser (ND=2.32)
Filter Wheel #2 Position ---------- (0) Clear Aperture



************************************************************
HL scan start time = 21:59:10
Dark Count =  3.9 


Time (GMT)  Wavelength (Ang)  Step Number  Raw Counts  Counts/Second

 1319.68        3331.00           6581          33.00       126.85
 1319.90        3331.25           6585          27.00       100.70
 1319.93        3331.50           6589          27.00       100.70
 1319.96        3331.75           6593          31.00       118.13
 1319.99        3332.00           6596          33.00       126.85
 1320.02        3332.25           6600          30.00       113.78
 1320.05        3332.50           6604          29.00       109.42
 1320.08        3332.75           6608          24.00        87.62
 1320.11        3333.00           6611          27.00       100.70
 1320.14        3333.25           6615          27.00       100.70
 1320.17        3333.50           6619          29.00       109.42
 1320.19        3333.75           6623          28.00       105.06
 1320.22        3334.00           6626          24.00        87.62
 1320.25        3334.25           6630          34.00       131.21
 1320.28        3334.50           6634          23.00        83.26
 1320.31        3334.75           6638          27.00       100.70
 1320.34        3335.00           6641          27.00       100.70
 1320.37        3335.25           6645          30.00       113.78
 1320.40        3335.50           6649          31.00       118.13
 1320.42        3335.75           6653          36.00       139.93
 1320.45        3336.00           6656          51.00       205.32
 1320.48        3336.25           6660         312.00      1343.12
 1320.51        3336.50           6664         817.00      3544.82
 1320.54        3336.75           6668        1660.00      7220.73
 1320.57        3337.00           6671        2327.00     10129.73
 1320.60        3337.25           6675        3106.00     13527.79
 1320.62        3337.50           6679        4657.00     20295.32
 1320.65        3337.75           6683        6130.00     26724.88
 1320.68        3338.00           6686        7347.00     32038.76
 1320.71        3338.25           6690        9004.00     39276.38
 1320.74        3338.50           6694       10562.00     46084.28
 1320.77        3338.75           6698       12081.00     52724.25
 1320.80        3339.00           6701       13362.00     58325.78
 1320.83        3339.25           6705       14942.00     65237.19
 1320.86        3339.50           6709       16712.00     72982.91
 1320.88        3339.75           6713       18476.00     80705.71
 1320.91        3340.00           6716       19636.00     85786.02
 1320.94        3340.25           6720       21416.00     93584.49
 1320.97        3340.50           6724       22947.00    100294.80
 1321.00        3340.75           6728       24649.00    107757.50
 1321.03        3341.00           6731       25808.00    112841.10
 1321.06        3341.25           6735       26888.00    117579.60
 1321.09        3341.50           6739       28030.00    122591.40
 1321.12        3341.75           6743       28605.00    125115.40
 1321.14        3342.00           6746       28594.00    125067.10
 1321.17        3342.25           6750       28201.00    123342.00
 1321.20        3342.50           6754       27324.00    119492.90
 1321.23        3342.75           6758       25458.00    111305.80
 1321.26        3343.00           6761       24272.00    106104.20
 1321.29        3343.25           6765       22530.00     98466.84
 1321.32        3343.50           6769       21043.00     91950.03
 1321.35        3343.75           6773       19451.00     84975.71
 1321.38        3344.00           6776       18333.00     80079.53
 1321.41        3344.25           6780       16649.00     72707.16
 1321.44        3344.50           6784       15001.00     65495.33
 1321.46        3344.75           6788       13424.00     58596.94
 1321.49        3345.00           6791       12058.00     52623.69
 1321.52        3345.25           6795       10294.00     44913.03
 1321.55        3345.50           6799        8590.00     37467.79
 1321.58        3345.75           6803        6398.00     27894.93
 1321.61        3346.00           6806        4712.00     20535.35
 1321.64        3346.25           6810        3268.00     14234.53
 1321.67        3346.50           6814        1948.00      8476.73
 1321.69        3346.75           6818        1161.00      5044.74
 1321.72        3347.00           6821         724.00      3139.33
 1321.75        3347.25           6825         305.00      1312.60
 1321.78        3347.50           6829          62.00       253.27
 1321.81        3347.75           6833          39.00       153.01
 1321.84        3348.00           6836          33.00       126.85
 1321.87        3348.25           6840          35.00       135.57
 1321.90        3348.50           6844          27.00       100.70
 1321.92        3348.75           6848          31.00       118.13
 1321.95        3349.00           6851          27.00       100.70
 1321.98        3349.25           6855          33.00       126.85
 1322.01        3349.50           6859          28.00       105.06
 1322.04        3349.75           6863          28.00       105.06
 1322.07        3350.00           6867          30.00       113.78
 1322.10        3350.25           6870          26.00        96.34
 1322.13        3350.50           6874          32.00       122.49
 1322.16        3350.75           6878          28.00       105.06
 1322.18        3351.00           6882          28.00       105.06
HL scan finished at 22:02:50
end
