************************************************************
  HL Scan of (1) Internal mercury lamp
************************************************************
Integration time is 0.2294 seconds per sample
dh230619El Arenosillo 37.1 6.73 2.975825pr1000
************************************************************
Dead Time -------------------------  2.8E-08 
Number of Cycles Used -------------  4 
Starting Wavelength (Angstroms) ---  3331 
Final Wavelength (Angstoms) -------  3351 
Wavelength Increment (Angstroms) --  .25 
Filter Wheel #1 Position ---------- (1) Ground quartz diffuser (ND=2.32)
Filter Wheel #2 Position ---------- (0) Clear Aperture



************************************************************
HL scan start time = 02:25:34
Dark Count =  6.2 


Time (GMT)  Wavelength (Ang)  Step Number  Raw Counts  Counts/Second

  146.09        3331.00           6581          26.00        86.31
  146.31        3331.25           6585          31.00       108.11
  146.34        3331.50           6589          27.00        90.67
  146.37        3331.75           6593          29.00        99.39
  146.40        3332.00           6596          33.00       116.83
  146.43        3332.25           6600          28.00        95.03
  146.46        3332.50           6604          30.00       103.75
  146.48        3332.75           6608          30.00       103.75
  146.51        3333.00           6611          28.00        95.03
  146.54        3333.25           6615          24.00        77.59
  146.57        3333.50           6619          31.00       108.11
  146.60        3333.75           6623          23.00        73.23
  146.63        3334.00           6626          32.00       112.47
  146.66        3334.25           6630          27.00        90.67
  146.69        3334.50           6634          23.00        73.23
  146.71        3334.75           6638          25.00        81.95
  146.74        3335.00           6641          31.00       108.11
  146.77        3335.25           6645          30.00       103.75
  146.80        3335.50           6649          33.00       116.83
  146.83        3335.75           6653          30.00       103.75
  146.86        3336.00           6656          61.00       238.89
  146.89        3336.25           6660         299.00      1276.42
  146.92        3336.50           6664         867.00      3752.79
  146.94        3336.75           6668        1663.00      7223.78
  146.97        3337.00           6671        2230.00      9696.62
  147.00        3337.25           6675        3040.00     13229.84
  147.03        3337.50           6679        4607.00     20067.07
  147.06        3337.75           6683        6198.00     27011.70
  147.09        3338.00           6686        7330.00     31954.47
  147.12        3338.25           6690        8798.00     38366.39
  147.14        3338.50           6694       10357.00     45178.30
  147.17        3338.75           6698       12041.00     52539.32
  147.20        3339.00           6701       13362.00     58315.72
  147.23        3339.25           6705       14930.00     65174.62
  147.26        3339.50           6709       16560.00     72307.55
  147.29        3339.75           6713       18155.00     79290.06
  147.32        3340.00           6716       19438.00     84908.69
  147.35        3340.25           6720       21082.00     92110.84
  147.38        3340.50           6724       22664.00     99044.14
  147.40        3340.75           6728       24047.00    105107.50
  147.43        3341.00           6731       25149.00    109940.40
  147.46        3341.25           6735       26514.00    115928.50
  147.49        3341.50           6739       27318.00    119456.40
  147.52        3341.75           6743       27890.00    121966.80
  147.55        3342.00           6746       28031.00    122585.70
  147.58        3342.25           6750       27537.00    120417.60
  147.61        3342.50           6754       26675.00    116634.90
  147.64        3342.75           6758       25140.00    109900.90
  147.67        3343.00           6761       23719.00    103669.30
  147.70        3343.25           6765       22219.00     97093.59
  147.72        3343.50           6769       20786.00     90813.90
  147.75        3343.75           6773       19301.00     84308.65
  147.78        3344.00           6776       17987.00     78554.47
  147.81        3344.25           6780       16579.00     72390.70
  147.84        3344.50           6784       14837.00     64767.75
  147.87        3344.75           6788       13188.00     57554.75
  147.90        3345.00           6791       11913.00     51979.70
  147.93        3345.25           6795       10208.00     44527.15
  147.95        3345.50           6799        8410.00     36671.47
  147.98        3345.75           6803        6390.00     27849.96
  148.01        3346.00           6806        4952.00     21572.75
  148.04        3346.25           6810        3253.00     14159.06
  148.07        3346.50           6814        1887.00      8200.66
  148.10        3346.75           6818        1113.00      4825.41
  148.13        3347.00           6821         722.00      3120.59
  148.16        3347.25           6825         307.00      1311.29
  148.19        3347.50           6829          58.00       225.81
  148.22        3347.75           6833          34.00       121.19
  148.24        3348.00           6836          30.00       103.75
  148.27        3348.25           6840          33.00       116.83
  148.30        3348.50           6844          34.00       121.19
  148.33        3348.75           6848          38.00       138.62
  148.36        3349.00           6851          32.00       112.47
  148.39        3349.25           6855          31.00       108.11
  148.42        3349.50           6859          33.00       116.83
  148.44        3349.75           6863          29.00        99.39
  148.47        3350.00           6867          29.00        99.39
  148.50        3350.25           6870          33.00       116.83
  148.53        3350.50           6874          30.00       103.75
  148.56        3350.75           6878          31.00       108.11
  148.59        3351.00           6882          34.00       121.19
HL scan finished at 02:29:14
end
