************************************************************
  HL Scan of (1) Internal mercury lamp
************************************************************
Integration time is 0.2294 seconds per sample
dh220619El Arenosillo 37.1 6.73 3.123676pr1000
************************************************************
Dead Time -------------------------  2.8E-08 
Number of Cycles Used -------------  4 
Starting Wavelength (Angstroms) ---  3331 
Final Wavelength (Angstoms) -------  3351 
Wavelength Increment (Angstroms) --  .25 
Filter Wheel #1 Position ---------- (1) Ground quartz diffuser (ND=2.32)
Filter Wheel #2 Position ---------- (0) Clear Aperture



************************************************************
HL scan start time = 02:24:15
Dark Count =  3.8 


Time (GMT)  Wavelength (Ang)  Step Number  Raw Counts  Counts/Second

  144.76        3331.00           6581          26.00        96.77
  144.98        3331.25           6585          30.00       114.21
  145.01        3331.50           6589          31.00       118.57
  145.04        3331.75           6593          30.00       114.21
  145.07        3332.00           6596          25.00        92.42
  145.10        3332.25           6600          30.00       114.21
  145.13        3332.50           6604          29.00       109.85
  145.16        3332.75           6608          30.00       114.21
  145.18        3333.00           6611          29.00       109.85
  145.21        3333.25           6615          25.00        92.42
  145.24        3333.50           6619          29.00       109.85
  145.27        3333.75           6623          29.00       109.85
  145.30        3334.00           6626          31.00       118.57
  145.33        3334.25           6630          30.00       114.21
  145.36        3334.50           6634          29.00       109.85
  145.39        3334.75           6638          32.00       122.93
  145.41        3335.00           6641          27.00       101.13
  145.44        3335.25           6645          34.00       131.65
  145.47        3335.50           6649          32.00       122.93
  145.50        3335.75           6653          40.00       157.80
  145.53        3336.00           6656          73.00       301.66
  145.56        3336.25           6660         399.00      1722.84
  145.59        3336.50           6664         991.00      4303.92
  145.62        3336.75           6668        2068.00      9000.52
  145.64        3337.00           6671        2863.00     12468.17
  145.67        3337.25           6675        3645.00     15879.77
  145.70        3337.50           6679        5257.00     22914.44
  145.73        3337.75           6683        6911.00     30135.27
  145.76        3338.00           6686        8130.00     35458.90
  145.79        3338.25           6690        9795.00     42732.88
  145.82        3338.50           6694       11567.00     50477.58
  145.85        3338.75           6698       13342.00     58238.75
  145.88        3339.00           6701       14673.00     64060.75
  145.90        3339.25           6705       16491.00     72016.04
  145.93        3339.50           6709       18183.00     79423.16
  145.96        3339.75           6713       20006.00     87407.21
  145.99        3340.00           6716       21276.00     92971.44
  146.02        3340.25           6720       22889.00    100041.00
  146.05        3340.50           6724       24520.00    107192.20
  146.08        3340.75           6728       26313.00    115057.10
  146.11        3341.00           6731       27608.00    120739.70
  146.14        3341.25           6735       28865.00    126257.20
  146.17        3341.50           6739       29879.00    130709.40
  146.20        3341.75           6743       30237.00    132281.60
  146.22        3342.00           6746       30151.00    131903.90
  146.25        3342.25           6750       29743.00    130112.20
  146.28        3342.50           6754       28483.00    124580.30
  146.31        3342.75           6758       26848.00    117404.50
  146.34        3343.00           6761       25458.00    111306.30
  146.37        3343.25           6765       23691.00    103557.00
  146.40        3343.50           6769       22085.00     96516.81
  146.43        3343.75           6773       20489.00     89523.16
  146.46        3344.00           6776       19130.00     83570.21
  146.49        3344.25           6780       17364.00     75837.41
  146.52        3344.50           6784       15493.00     67648.50
  146.54        3344.75           6788       13874.00     60565.58
  146.57        3345.00           6791       12559.00     54814.67
  146.60        3345.25           6795       10540.00     45988.57
  146.63        3345.50           6799        8742.00     38132.24
  146.66        3345.75           6803        6503.00     28353.80
  146.69        3346.00           6806        4758.00     20736.54
  146.72        3346.25           6810        3149.00     13715.82
  146.74        3346.50           6814        1713.00      7452.30
  146.77        3346.75           6818         907.00      3937.66
  146.80        3347.00           6821         586.00      2538.11
  146.83        3347.25           6825         228.00       977.36
  146.86        3347.50           6829          54.00       218.83
  146.89        3347.75           6833          38.00       149.09
  146.92        3348.00           6836          39.00       153.44
  146.94        3348.25           6840          34.00       131.65
  146.97        3348.50           6844          34.00       131.65
  147.00        3348.75           6848          33.00       127.29
  147.03        3349.00           6851          32.00       122.93
  147.06        3349.25           6855          30.00       114.21
  147.09        3349.50           6859          29.00       109.85
  147.12        3349.75           6863          36.00       140.37
  147.15        3350.00           6867          35.00       136.01
  147.17        3350.25           6870          31.00       118.57
  147.20        3350.50           6874          35.00       136.01
  147.23        3350.75           6878          31.00       118.57
  147.26        3351.00           6882          30.00       114.21
HL scan finished at 02:27:54
end
