************************************************************
  HL Scan of (1) Internal mercury lamp
************************************************************
Integration time is 0.2294 seconds per sample
dh020717Tamanrasset 22.79-5.529 3.485657pr865
************************************************************
Dead Time -------------------------  2.8E-08 
Number of Cycles Used -------------  4 
Starting Wavelength (Angstroms) ---  3331 
Final Wavelength (Angstoms) -------  3351 
Wavelength Increment (Angstroms) --  .25 
Filter Wheel #1 Position ---------- (1) Ground quartz diffuser (ND=2.32)
Filter Wheel #2 Position ---------- (0) Clear Aperture



************************************************************
HL scan start time = 03:24:09
Dark Count =  6.5 


Time (GMT)  Wavelength (Ang)  Step Number  Raw Counts  Counts/Second

  204.66        3331.00           6581          34.00       119.88
  204.88        3331.25           6585          40.00       146.03
  204.91        3331.50           6589          40.00       146.03
  204.94        3331.75           6593          32.00       111.16
  204.96        3332.00           6596          34.00       119.88
  204.99        3332.25           6600          37.00       132.96
  205.02        3332.50           6604          34.00       119.88
  205.05        3332.75           6608          38.00       137.32
  205.07        3333.00           6611          30.00       102.44
  205.10        3333.25           6615          32.00       111.16
  205.13        3333.50           6619          33.00       115.52
  205.15        3333.75           6623          38.00       137.32
  205.18        3334.00           6626          37.00       132.96
  205.21        3334.25           6630          39.00       141.67
  205.24        3334.50           6634          39.00       141.67
  205.26        3334.75           6638          37.00       132.96
  205.29        3335.00           6641          42.00       154.75
  205.32        3335.25           6645          46.00       172.19
  205.35        3335.50           6649          51.00       193.99
  205.37        3335.75           6653          63.00       246.30
  205.40        3336.00           6656         159.00       664.79
  205.43        3336.25           6660         541.00      2330.14
  205.46        3336.50           6664        1270.00      5508.70
  205.48        3336.75           6668        2347.00     10205.62
  205.51        3337.00           6671        2885.00     12552.36
  205.54        3337.25           6675        4866.00     21196.10
  205.57        3337.50           6679        7069.00     30813.41
  205.59        3337.75           6683        9365.00     40842.24
  205.62        3338.00           6686       11122.00     48520.54
  205.65        3338.25           6690       13523.00     59018.55
  205.67        3338.50           6694       15869.00     69282.06
  205.70        3338.75           6698       18338.00     80090.05
  205.73        3339.00           6701       20067.00     87662.61
  205.76        3339.25           6705       22689.00     99152.39
  205.79        3339.50           6709       25057.00    109535.50
  205.81        3339.75           6713       27478.00    120157.30
  205.84        3340.00           6716       29337.00    128317.70
  205.87        3340.25           6720       31591.00    138217.00
  205.90        3340.50           6724       34111.00    149291.00
  205.92        3340.75           6728       36392.00    159320.70
  205.95        3341.00           6731       37939.00    166126.20
  205.98        3341.25           6735       39931.00    174893.20
  206.01        3341.50           6739       41390.00    181317.10
  206.03        3341.75           6743       42191.00    184844.80
  206.06        3342.00           6746       41885.00    183497.10
  206.09        3342.25           6750       41368.00    181220.20
  206.12        3342.50           6754       39647.00    173643.00
  206.14        3342.75           6758       37019.00    162078.70
  206.17        3343.00           6761       35382.00    154879.00
  206.20        3343.25           6765       33458.00    146420.80
  206.23        3343.50           6769       31241.00    136679.50
  206.25        3343.75           6773       28966.00    126688.80
  206.28        3344.00           6776       26837.00    117344.40
  206.31        3344.25           6780       24564.00    107373.30
  206.34        3344.50           6784       22032.00     96272.68
  206.36        3344.75           6788       19453.00     84973.07
  206.39        3345.00           6791       17298.00     75536.66
  206.42        3345.25           6795       14115.00     61607.93
  206.45        3345.50           6799       10996.00     47969.80
  206.47        3345.75           6803        8552.00     37290.44
  206.50        3346.00           6806        6848.00     29848.39
  206.53        3346.25           6810        4608.00     20070.13
  206.56        3346.50           6814        2956.00     12862.09
  206.58        3346.75           6818        2167.00      9420.53
  206.61        3347.00           6821        1337.00      5800.86
  206.64        3347.25           6825         412.00      1767.74
  206.66        3347.50           6829          85.00       342.20
  206.69        3347.75           6833          45.00       167.83
  206.72        3348.00           6836          44.00       163.47
  206.75        3348.25           6840          38.00       137.32
  206.77        3348.50           6844          39.00       141.67
  206.80        3348.75           6848          40.00       146.03
  206.83        3349.00           6851          41.00       150.39
  206.86        3349.25           6855          39.00       141.67
  206.88        3349.50           6859          40.00       146.03
  206.91        3349.75           6863          41.00       150.39
  206.94        3350.00           6867          35.00       124.24
  206.97        3350.25           6870          42.00       154.75
  206.99        3350.50           6874          37.00       132.96
  207.02        3350.75           6878          38.00       137.32
  207.05        3351.00           6882          37.00       132.96
HL scan finished at 03:27:40
end
************************************************************
  HL Scan of (1) Internal mercury lamp
************************************************************
Integration time is 0.2294 seconds per sample
dh020717Tamanrasset 22.79-5.529 3.801752pr865
************************************************************
Dead Time -------------------------  2.8E-08 
Number of Cycles Used -------------  4 
Starting Wavelength (Angstroms) ---  3331 
Final Wavelength (Angstoms) -------  3351 
Wavelength Increment (Angstroms) --  .25 
Filter Wheel #1 Position ---------- (1) Ground quartz diffuser (ND=2.32)
Filter Wheel #2 Position ---------- (0) Clear Aperture



************************************************************
HL scan start time = 08:17:18
Dark Count =  10.8 


Time (GMT)  Wavelength (Ang)  Step Number  Raw Counts  Counts/Second

  497.82        3331.00           6581          42.00       136.01
  498.04        3331.25           6585          43.00       140.37
  498.06        3331.50           6589          44.00       144.73
  498.09        3331.75           6593          38.00       118.57
  498.12        3332.00           6596          36.00       109.85
  498.14        3332.25           6600          37.00       114.21
  498.17        3332.50           6604          39.00       122.93
  498.20        3332.75           6608          43.00       140.37
  498.23        3333.00           6611          36.00       109.85
  498.25        3333.25           6615          43.00       140.37
  498.28        3333.50           6619          42.00       136.01
  498.31        3333.75           6623          42.00       136.01
  498.34        3334.00           6626          42.00       136.01
  498.36        3334.25           6630          36.00       109.85
  498.39        3334.50           6634          44.00       144.73
  498.42        3334.75           6638          42.00       136.01
  498.45        3335.00           6641          46.00       153.44
  498.47        3335.25           6645          48.00       162.16
  498.50        3335.50           6649          52.00       179.60
  498.53        3335.75           6653         109.00       428.08
  498.55        3336.00           6656         264.00      1103.78
  498.58        3336.25           6660         795.00      3418.81
  498.61        3336.50           6664        1799.00      7796.82
  498.64        3336.75           6668        3397.00     14767.22
  498.66        3337.00           6671        3676.00     15984.49
  498.69        3337.25           6675        5673.00     24699.73
  498.72        3337.50           6679        7859.00     34244.68
  498.75        3337.75           6683       10206.00     44498.31
  498.77        3338.00           6686       11888.00     51850.29
  498.80        3338.25           6690       14317.00     62472.75
  498.83        3338.50           6694       16753.00     73132.16
  498.86        3338.75           6698       19139.00     83578.97
  498.88        3339.00           6701       21015.00     91797.10
  498.91        3339.25           6705       23890.00    104398.90
  498.94        3339.50           6709       26378.00    115311.60
  498.97        3339.75           6713       28501.00    124628.60
  498.99        3340.00           6716       30336.00    132685.60
  499.02        3340.25           6720       32900.00    143949.60
  499.05        3340.50           6724       35315.00    154565.50
  499.08        3340.75           6728       37529.00    164303.40
  499.10        3341.00           6731       39262.00    171929.40
  499.13        3341.25           6735       40980.00    179492.70
  499.16        3341.50           6739       42398.00    185737.60
  499.19        3341.75           6743       42788.00    187455.60
  499.21        3342.00           6746       42616.00    186697.90
  499.24        3342.25           6750       42002.00    183993.40
  499.27        3342.50           6754       39439.00    172708.50
  499.30        3342.75           6758       36902.00    161545.10
  499.32        3343.00           6761       35249.00    154275.30
  499.35        3343.25           6765       33379.00    146054.70
  499.38        3343.50           6769       31361.00    137187.70
  499.41        3343.75           6773       28856.00    126187.00
  499.43        3344.00           6776       26895.00    117580.00
  499.46        3344.25           6780       24416.00    106705.40
  499.49        3344.50           6784       21987.00     96056.60
  499.52        3344.75           6788       18939.00     82703.06
  499.54        3345.00           6791       16581.00     72379.32
  499.57        3345.25           6795       13595.00     59314.65
  499.60        3345.50           6799       10821.00     47186.10
  499.63        3345.75           6803        8217.00     35808.34
  499.65        3346.00           6806        6502.00     28318.87
  499.68        3346.25           6810        4196.00     18253.44
  499.71        3346.50           6814        2299.00      9977.50
  499.74        3346.75           6818        1426.00      6170.20
  499.76        3347.00           6821         882.00      3798.14
  499.79        3347.25           6825         242.00      1007.88
  499.82        3347.50           6829          61.00       218.83
  499.84        3347.75           6833          53.00       183.96
  499.87        3348.00           6836          46.00       153.44
  499.90        3348.25           6840          46.00       153.44
  499.93        3348.50           6844          40.00       127.29
  499.95        3348.75           6848          43.00       140.37
  499.98        3349.00           6851          38.00       118.57
  500.01        3349.25           6855          44.00       144.73
  500.04        3349.50           6859          47.00       157.80
  500.06        3349.75           6863          50.00       170.88
  500.09        3350.00           6867          50.00       170.88
  500.12        3350.25           6870          42.00       136.01
  500.14        3350.50           6874          49.00       166.52
  500.17        3350.75           6878          46.00       153.44
  500.20        3351.00           6882          53.00       183.96
HL scan finished at 08:20:49
end
