************************************************************
  HL Scan of (1) Internal mercury lamp
************************************************************
Integration time is 0.2294 seconds per sample
dh060717Tamanrasset 22.79-5.529 3.470362pr865
************************************************************
Dead Time -------------------------  2.8E-08 
Number of Cycles Used -------------  4 
Starting Wavelength (Angstroms) ---  3331 
Final Wavelength (Angstoms) -------  3351 
Wavelength Increment (Angstroms) --  .25 
Filter Wheel #1 Position ---------- (1) Ground quartz diffuser (ND=2.32)
Filter Wheel #2 Position ---------- (0) Clear Aperture



************************************************************
HL scan start time = 03:25:10
Dark Count =  6.3 


Time (GMT)  Wavelength (Ang)  Step Number  Raw Counts  Counts/Second

  205.68        3331.00           6581          33.00       116.39
  205.90        3331.25           6585          38.00       138.19
  205.93        3331.50           6589          40.00       146.91
  205.96        3331.75           6593          32.00       112.03
  205.99        3332.00           6596          25.00        81.52
  206.01        3332.25           6600          36.00       129.47
  206.04        3332.50           6604          39.00       142.55
  206.07        3332.75           6608          37.00       133.83
  206.09        3333.00           6611          30.00       103.31
  206.12        3333.25           6615          30.00       103.31
  206.15        3333.50           6619          28.00        94.59
  206.18        3333.75           6623          38.00       138.19
  206.20        3334.00           6626          36.00       129.47
  206.23        3334.25           6630          35.00       125.11
  206.26        3334.50           6634          33.00       116.39
  206.29        3334.75           6638          34.00       120.75
  206.31        3335.00           6641          44.00       164.34
  206.34        3335.25           6645          43.00       159.98
  206.37        3335.50           6649          52.00       199.22
  206.39        3335.75           6653          85.00       343.07
  206.42        3336.00           6656         192.00       809.52
  206.45        3336.25           6660         593.00      2557.72
  206.48        3336.50           6664        1347.00      5845.33
  206.50        3336.75           6668        2306.00     10027.66
  206.53        3337.00           6671        2988.00     13002.55
  206.56        3337.25           6675        5018.00     21860.37
  206.59        3337.50           6679        7191.00     31347.03
  206.61        3337.75           6683        9325.00     40668.35
  206.64        3338.00           6686       11196.00     48844.88
  206.67        3338.25           6690       13588.00     59303.72
  206.70        3338.50           6694       15813.00     69037.86
  206.72        3338.75           6698       18182.00     79407.83
  206.75        3339.00           6701       19990.00     87326.16
  206.78        3339.25           6705       22298.00     97439.41
  206.81        3339.50           6709       24770.00    108277.60
  206.83        3339.75           6713       27141.00    118679.20
  206.86        3340.00           6716       28854.00    126198.00
  206.89        3340.25           6720       31148.00    136271.80
  206.92        3340.50           6724       33648.00    147256.70
  206.94        3340.75           6728       35613.00    155895.70
  206.97        3341.00           6731       37278.00    163219.00
  207.00        3341.25           6735       39071.00    171108.60
  207.03        3341.50           6739       40742.00    178464.60
  207.05        3341.75           6743       41096.00    180023.30
  207.08        3342.00           6746       41246.00    180683.80
  207.11        3342.25           6750       40343.00    176707.80
  207.14        3342.50           6754       38700.00    169475.80
  207.16        3342.75           6758       36076.00    157931.80
  207.19        3343.00           6761       34839.00    152492.40
  207.22        3343.25           6765       32740.00    143266.20
  207.25        3343.50           6769       30400.00    132986.40
  207.27        3343.75           6773       27992.00    122414.10
  207.30        3344.00           6776       26134.00    114260.80
  207.33        3344.25           6780       23830.00    104155.50
  207.36        3344.50           6784       21437.00     93665.99
  207.38        3344.75           6788       18638.00     81404.60
  207.41        3345.00           6791       16380.00     71519.28
  207.44        3345.25           6795       13457.00     58730.77
  207.47        3345.50           6799       10758.00     46930.42
  207.50        3345.75           6803        8367.00     36483.20
  207.52        3346.00           6806        6669.00     29067.68
  207.55        3346.25           6810        4462.00     19433.85
  207.58        3346.50           6814        3086.00     13430.07
  207.61        3346.75           6818        2090.00      9085.57
  207.63        3347.00           6821        1200.00      5204.33
  207.66        3347.25           6825         320.00      1367.53
  207.69        3347.50           6829          65.00       255.89
  207.71        3347.75           6833          46.00       173.06
  207.74        3348.00           6836          42.00       155.62
  207.77        3348.25           6840          39.00       142.55
  207.80        3348.50           6844          43.00       159.98
  207.82        3348.75           6848          39.00       142.55
  207.85        3349.00           6851          41.00       151.26
  207.88        3349.25           6855          39.00       142.55
  207.91        3349.50           6859          43.00       159.98
  207.93        3349.75           6863          40.00       146.91
  207.96        3350.00           6867          38.00       138.19
  207.99        3350.25           6870          39.00       142.55
  208.01        3350.50           6874          39.00       142.55
  208.04        3350.75           6878          35.00       125.11
  208.07        3351.00           6882          38.00       138.19
HL scan finished at 03:28:42
end
