************************************************************
  HL Scan of (1) Internal mercury lamp
************************************************************
Integration time is 0.2294 seconds per sample
dh050717Tamanrasset 22.79-5.529 3.353101pr865
************************************************************
Dead Time -------------------------  2.8E-08 
Number of Cycles Used -------------  4 
Starting Wavelength (Angstroms) ---  3331 
Final Wavelength (Angstoms) -------  3351 
Wavelength Increment (Angstroms) --  .25 
Filter Wheel #1 Position ---------- (1) Ground quartz diffuser (ND=2.32)
Filter Wheel #2 Position ---------- (0) Clear Aperture



************************************************************
HL scan start time = 03:25:09
Dark Count =  4.4 


Time (GMT)  Wavelength (Ang)  Step Number  Raw Counts  Counts/Second

  205.65        3331.00           6581          34.00       129.03
  205.87        3331.25           6585          32.00       120.31
  205.90        3331.50           6589          35.00       133.39
  205.93        3331.75           6593          32.00       120.31
  205.95        3332.00           6596          32.00       120.31
  205.98        3332.25           6600          39.00       150.83
  206.01        3332.50           6604          36.00       137.75
  206.04        3332.75           6608          32.00       120.31
  206.06        3333.00           6611          33.00       124.67
  206.09        3333.25           6615          30.00       111.60
  206.12        3333.50           6619          39.00       150.83
  206.14        3333.75           6623          31.00       115.96
  206.17        3334.00           6626          33.00       124.67
  206.20        3334.25           6630          37.00       142.11
  206.23        3334.50           6634          29.00       107.24
  206.25        3334.75           6638          29.00       107.24
  206.28        3335.00           6641          37.00       142.11
  206.31        3335.25           6645          36.00       137.75
  206.33        3335.50           6649          42.00       163.91
  206.36        3335.75           6653          53.00       211.86
  206.39        3336.00           6656         127.00       534.45
  206.42        3336.25           6660         407.00      1755.10
  206.44        3336.50           6664        1054.00      4576.00
  206.47        3336.75           6668        1786.00      7768.04
  206.50        3337.00           6671        2273.00      9892.02
  206.52        3337.25           6675        4051.00     17648.65
  206.55        3337.50           6679        6140.00     26766.35
  206.58        3337.75           6683        8215.00     35827.55
  206.61        3338.00           6686        9789.00     42704.04
  206.63        3338.25           6690       12063.00     52643.37
  206.66        3338.50           6694       14181.00     61905.82
  206.69        3338.75           6698       16400.00     71615.13
  206.72        3339.00           6701       17955.00     78422.23
  206.74        3339.25           6705       20364.00     88972.90
  206.77        3339.50           6709       22717.00     99284.34
  206.80        3339.75           6713       24727.00    108097.40
  206.83        3340.00           6716       26487.00    115817.90
  206.85        3340.25           6720       28894.00    126381.90
  206.88        3340.50           6724       30850.00    134971.20
  206.91        3340.75           6728       33114.00    144918.20
  206.93        3341.00           6731       34625.00    151559.90
  206.96        3341.25           6735       36425.00    159475.10
  206.99        3341.50           6739       37930.00    166095.90
  207.02        3341.75           6743       38562.00    168876.90
  207.04        3342.00           6746       38572.00    168920.90
  207.07        3342.25           6750       38070.00    166711.90
  207.10        3342.50           6754       36568.00    160104.10
  207.13        3342.75           6758       34790.00    152285.30
  207.15        3343.00           6761       33249.00    145511.50
  207.18        3343.25           6765       30888.00    135138.10
  207.21        3343.50           6769       28997.00    126834.10
  207.24        3343.75           6773       26904.00    117647.60
  207.26        3344.00           6776       25159.00    109992.10
  207.29        3344.25           6780       22943.00    100275.10
  207.32        3344.50           6784       20945.00     91518.44
  207.35        3344.75           6788       18486.00     80747.31
  207.37        3345.00           6791       16557.00     72302.29
  207.40        3345.25           6795       14254.00     62225.15
  207.43        3345.50           6799       10674.00     46571.59
  207.45        3345.75           6803        8346.00     36399.76
  207.48        3346.00           6806        6749.00     29425.28
  207.51        3346.25           6810        4723.00     20581.17
  207.54        3346.50           6814        3612.00     15733.17
  207.56        3346.75           6818        2295.00      9987.97
  207.59        3347.00           6821        1425.00      6193.75
  207.62        3347.25           6825         501.00      2164.91
  207.65        3347.50           6829         122.00       512.65
  207.67        3347.75           6833          48.00       190.06
  207.70        3348.00           6836          37.00       142.11
  207.73        3348.25           6840          40.00       155.19
  207.75        3348.50           6844          39.00       150.83
  207.78        3348.75           6848          35.00       133.39
  207.81        3349.00           6851          36.00       137.75
  207.84        3349.25           6855          39.00       150.83
  207.86        3349.50           6859          35.00       133.39
  207.89        3349.75           6863          40.00       155.19
  207.92        3350.00           6867          35.00       133.39
  207.94        3350.25           6870          39.00       150.83
  207.97        3350.50           6874          39.00       150.83
  208.00        3350.75           6878          40.00       155.19
  208.03        3351.00           6882          31.00       115.96
HL scan finished at 03:28:39
end
