************************************************************
  HL Scan of (1) Internal mercury lamp
************************************************************
Integration time is 0.2294 seconds per sample
dh070717Tamanrasset 22.79-5.529 3.47546pr865
************************************************************
Dead Time -------------------------  2.8E-08 
Number of Cycles Used -------------  4 
Starting Wavelength (Angstroms) ---  3331 
Final Wavelength (Angstoms) -------  3351 
Wavelength Increment (Angstroms) --  .25 
Filter Wheel #1 Position ---------- (1) Ground quartz diffuser (ND=2.32)
Filter Wheel #2 Position ---------- (0) Clear Aperture



************************************************************
HL scan start time = 03:26:11
Dark Count =  7.1 


Time (GMT)  Wavelength (Ang)  Step Number  Raw Counts  Counts/Second

  206.71        3331.00           6581          34.00       117.26
  206.92        3331.25           6585          32.00       108.54
  206.95        3331.50           6589          35.00       121.62
  206.98        3331.75           6593          33.00       112.90
  207.01        3332.00           6596          36.00       125.98
  207.03        3332.25           6600          37.00       130.34
  207.06        3332.50           6604          29.00        95.47
  207.09        3332.75           6608          32.00       108.54
  207.12        3333.00           6611          37.00       130.34
  207.14        3333.25           6615          38.00       134.70
  207.17        3333.50           6619          38.00       134.70
  207.20        3333.75           6623          30.00        99.83
  207.22        3334.00           6626          35.00       121.62
  207.25        3334.25           6630          36.00       125.98
  207.28        3334.50           6634          37.00       130.34
  207.31        3334.75           6638          36.00       125.98
  207.33        3335.00           6641          43.00       156.50
  207.36        3335.25           6645          39.00       139.06
  207.39        3335.50           6649          47.00       173.93
  207.42        3335.75           6653          72.00       282.91
  207.44        3336.00           6656         155.00       644.74
  207.47        3336.25           6660         485.00      2083.38
  207.50        3336.50           6664        1288.00      5584.57
  207.52        3336.75           6668        2481.00     10787.48
  207.55        3337.00           6671        2995.00     13029.60
  207.58        3337.25           6675        4714.00     20530.11
  207.61        3337.50           6679        6871.00     29946.20
  207.64        3337.75           6683        9155.00     39922.11
  207.66        3338.00           6686       10732.00     46813.29
  207.69        3338.25           6690       13335.00     58193.71
  207.72        3338.50           6694       15656.00     68347.33
  207.75        3338.75           6698       17824.00     77836.85
  207.77        3339.00           6701       19628.00     85736.97
  207.80        3339.25           6705       22184.00     96936.24
  207.83        3339.50           6709       24604.00    107546.10
  207.85        3339.75           6713       26732.00    116881.00
  207.88        3340.00           6716       28620.00    125167.20
  207.91        3340.25           6720       30845.00    134937.40
  207.94        3340.50           6724       33168.00    145143.60
  207.97        3340.75           6728       35528.00    155518.40
  207.99        3341.00           6731       37087.00    162375.20
  208.02        3341.25           6735       39029.00    170920.20
  208.05        3341.50           6739       40285.00    176448.90
  208.08        3341.75           6743       41167.00    180332.40
  208.10        3342.00           6746       41015.00    179663.10
  208.13        3342.25           6750       40617.00    177910.70
  208.16        3342.50           6754       39119.00    171316.30
  208.19        3342.75           6758       36382.00    159274.10
  208.21        3343.00           6761       34776.00    152211.90
  208.24        3343.25           6765       32242.00    141074.50
  208.27        3343.50           6769       30767.00    134594.80
  208.30        3343.75           6773       28431.00    124337.50
  208.32        3344.00           6776       26493.00    115832.40
  208.35        3344.25           6780       24278.00    106116.50
  208.38        3344.50           6784       21703.00     94828.18
  208.41        3344.75           6788       19413.00     84795.25
  208.43        3345.00           6791       17391.00     75941.18
  208.46        3345.25           6795       14739.00     64335.06
  208.49        3345.50           6799       11241.00     49038.08
  208.51        3345.75           6803        8870.00     38677.00
  208.54        3346.00           6806        7100.00     30946.16
  208.57        3346.25           6810        4937.00     21503.35
  208.60        3346.50           6814        3430.00     14927.34
  208.62        3346.75           6818        2090.00      9082.08
  208.65        3347.00           6821        1350.00      5854.93
  208.68        3347.25           6825         456.00      1956.95
  208.71        3347.50           6829         108.00       439.85
  208.73        3347.75           6833          53.00       200.09
  208.76        3348.00           6836          44.00       160.86
  208.79        3348.25           6840          42.00       152.14
  208.82        3348.50           6844          34.00       117.26
  208.84        3348.75           6848          31.00       104.19
  208.87        3349.00           6851          44.00       160.86
  208.90        3349.25           6855          45.00       165.21
  208.93        3349.50           6859          39.00       139.06
  208.95        3349.75           6863          39.00       139.06
  208.98        3350.00           6867          37.00       130.34
  209.01        3350.25           6870          38.00       134.70
  209.03        3350.50           6874          38.00       134.70
  209.06        3350.75           6878          43.00       156.50
  209.09        3351.00           6882          37.00       130.34
HL scan finished at 03:29:43
end
