************************************************************
  HL Scan of (1) Internal mercury lamp
************************************************************
Integration time is 0.2294 seconds per sample
dh080717Tamanrasset 22.79-5.529 3.582525pr865
************************************************************
Dead Time -------------------------  2.8E-08 
Number of Cycles Used -------------  4 
Starting Wavelength (Angstroms) ---  3331 
Final Wavelength (Angstoms) -------  3351 
Wavelength Increment (Angstroms) --  .25 
Filter Wheel #1 Position ---------- (1) Ground quartz diffuser (ND=2.32)
Filter Wheel #2 Position ---------- (0) Clear Aperture



************************************************************
HL scan start time = 03:26:13
Dark Count =  8 


Time (GMT)  Wavelength (Ang)  Step Number  Raw Counts  Counts/Second

  206.72        3331.00           6581          42.00       148.21
  206.94        3331.25           6585          32.00       104.62
  206.97        3331.50           6589          39.00       135.14
  207.00        3331.75           6593          33.00       108.98
  207.02        3332.00           6596          33.00       108.98
  207.05        3332.25           6600          36.00       122.06
  207.08        3332.50           6604          34.00       113.34
  207.11        3332.75           6608          35.00       117.70
  207.13        3333.00           6611          35.00       117.70
  207.16        3333.25           6615          36.00       122.06
  207.19        3333.50           6619          36.00       122.06
  207.21        3333.75           6623          36.00       122.06
  207.24        3334.00           6626          35.00       117.70
  207.27        3334.25           6630          37.00       126.42
  207.30        3334.50           6634          33.00       108.98
  207.32        3334.75           6638          42.00       148.21
  207.35        3335.00           6641          42.00       148.21
  207.38        3335.25           6645          43.00       152.57
  207.41        3335.50           6649          51.00       187.45
  207.43        3335.75           6653          76.00       296.43
  207.46        3336.00           6656         184.00       767.24
  207.49        3336.25           6660         586.00      2519.79
  207.51        3336.50           6664        1401.00      6073.40
  207.54        3336.75           6668        2611.00     11350.60
  207.57        3337.00           6671        3128.00     13605.88
  207.60        3337.25           6675        5240.00     22821.90
  207.62        3337.50           6679        7580.00     33038.40
  207.65        3337.75           6683        9957.00     43422.42
  207.68        3338.00           6686       11896.00     51897.51
  207.71        3338.25           6690       14339.00     62581.23
  207.73        3338.50           6694       16722.00     73008.73
  207.76        3338.75           6698       19261.00     84125.57
  207.79        3339.00           6701       21081.00     92098.58
  207.82        3339.25           6705       23770.00    103885.00
  207.84        3339.50           6709       26525.00    115968.80
  207.87        3339.75           6713       28930.00    126524.20
  207.90        3340.00           6716       30811.00    134784.10
  207.93        3340.25           6720       33275.00    145609.90
  207.95        3340.50           6724       35591.00    155791.40
  207.98        3340.75           6728       38115.00    166894.00
  208.01        3341.00           6731       39740.00    174045.80
  208.04        3341.25           6735       41532.00    181935.80
  208.06        3341.50           6739       42977.00    188300.60
  208.09        3341.75           6743       43464.00    190446.20
  208.12        3342.00           6746       43600.00    191045.40
  208.15        3342.25           6750       43026.00    188516.40
  208.17        3342.50           6754       40629.00    177959.50
  208.20        3342.75           6758       38228.00    167391.30
  208.23        3343.00           6761       36386.00    159287.80
  208.26        3343.25           6765       34400.00    150554.90
  208.28        3343.50           6769       31787.00    139071.40
  208.31        3343.75           6773       29434.00    128737.00
  208.34        3344.00           6776       27686.00    121063.60
  208.37        3344.25           6780       25059.00    109537.70
  208.39        3344.50           6784       22461.00     98146.41
  208.42        3344.75           6788       19699.00     86044.02
  208.45        3345.00           6791       17336.00     75696.46
  208.48        3345.25           6795       14274.00     62296.89
  208.50        3345.50           6799       11217.00     48929.24
  208.53        3345.75           6803        8590.00     37449.89
  208.56        3346.00           6806        6882.00     29990.30
  208.59        3346.25           6810        4692.00     20430.17
  208.61        3346.50           6814        2875.00     12502.20
  208.64        3346.75           6818        2007.00      8716.16
  208.67        3347.00           6821        1134.00      4909.13
  208.70        3347.25           6825         342.00      1456.03
  208.72        3347.50           6829          72.00       278.99
  208.75        3347.75           6833          47.00       170.01
  208.78        3348.00           6836          42.00       148.21
  208.80        3348.25           6840          38.00       130.78
  208.83        3348.50           6844          40.00       139.49
  208.86        3348.75           6848          36.00       122.06
  208.89        3349.00           6851          39.00       135.14
  208.91        3349.25           6855          42.00       148.21
  208.94        3349.50           6859          41.00       143.85
  208.97        3349.75           6863          41.00       143.85
  209.00        3350.00           6867          47.00       170.01
  209.02        3350.25           6870          38.00       130.78
  209.05        3350.50           6874          35.00       117.70
  209.08        3350.75           6878          46.00       165.65
  209.10        3351.00           6882          41.00       143.85
HL scan finished at 03:29:44
end
