************************************************************
  HL Scan of (1) Internal mercury lamp
************************************************************
Integration time is 0.2294 seconds per sample
dh040717Tamanrasset 22.79-5.529 3.516246pr865
************************************************************
Dead Time -------------------------  2.8E-08 
Number of Cycles Used -------------  4 
Starting Wavelength (Angstroms) ---  3331 
Final Wavelength (Angstoms) -------  3351 
Wavelength Increment (Angstroms) --  .25 
Filter Wheel #1 Position ---------- (1) Ground quartz diffuser (ND=2.32)
Filter Wheel #2 Position ---------- (0) Clear Aperture



************************************************************
HL scan start time = 03:24:12
Dark Count =  6.3 


Time (GMT)  Wavelength (Ang)  Step Number  Raw Counts  Counts/Second

  204.71        3331.00           6581          39.00       142.55
  204.92        3331.25           6585          28.00        94.59
  204.95        3331.50           6589          36.00       129.47
  204.98        3331.75           6593          31.00       107.67
  205.01        3332.00           6596          33.00       116.39
  205.03        3332.25           6600          33.00       116.39
  205.06        3332.50           6604          40.00       146.91
  205.09        3332.75           6608          37.00       133.83
  205.12        3333.00           6611          34.00       120.75
  205.14        3333.25           6615          38.00       138.19
  205.17        3333.50           6619          33.00       116.39
  205.20        3333.75           6623          30.00       103.31
  205.23        3334.00           6626          34.00       120.75
  205.25        3334.25           6630          37.00       133.83
  205.28        3334.50           6634          36.00       129.47
  205.31        3334.75           6638          32.00       112.03
  205.33        3335.00           6641          39.00       142.55
  205.36        3335.25           6645          37.00       133.83
  205.39        3335.50           6649          41.00       151.26
  205.42        3335.75           6653          50.00       190.50
  205.44        3336.00           6656         113.00       465.13
  205.47        3336.25           6660         372.00      1594.23
  205.50        3336.50           6664        1100.00      4768.29
  205.53        3336.75           6668        2150.00      9347.26
  205.55        3337.00           6671        2429.00     10564.15
  205.58        3337.25           6675        4174.00     18177.08
  205.61        3337.50           6679        6550.00     28548.10
  205.64        3337.75           6683        8745.00     38134.42
  205.66        3338.00           6686       10656.00     46484.62
  205.69        3338.25           6690       13155.00     57410.00
  205.72        3338.50           6694       15459.00     67488.80
  205.75        3338.75           6698       17886.00     78111.81
  205.77        3339.00           6701       19813.00     86550.82
  205.80        3339.25           6705       22247.00     97215.88
  205.83        3339.50           6709       24710.00    108014.50
  205.86        3339.75           6713       27268.00    119236.60
  205.88        3340.00           6716       29017.00    126913.60
  205.91        3340.25           6720       31659.00    138516.60
  205.94        3340.50           6724       34035.00    148957.80
  205.97        3340.75           6728       36296.00    158899.40
  205.99        3341.00           6731       38059.00    166655.10
  206.02        3341.25           6735       40038.00    175365.10
  206.05        3341.50           6739       41712.00    182736.00
  206.08        3341.75           6743       42485.00    186140.70
  206.10        3342.00           6746       42580.00    186559.20
  206.13        3342.25           6750       42135.00    184599.00
  206.16        3342.50           6754       40435.00    177112.90
  206.19        3342.75           6758       37640.00    164811.60
  206.21        3343.00           6761       36223.00    158578.30
  206.24        3343.25           6765       33660.00    147309.50
  206.27        3343.50           6769       31986.00    139953.20
  206.30        3343.75           6773       29606.00    129499.70
  206.32        3344.00           6776       27478.00    120158.20
  206.35        3344.25           6780       25156.00    109970.60
  206.38        3344.50           6784       22838.00     99806.42
  206.40        3344.75           6788       20189.00     88197.92
  206.43        3345.00           6791       17993.00     78580.29
  206.46        3345.25           6795       15358.00     67046.85
  206.49        3345.50           6799       11821.00     51577.05
  206.51        3345.75           6803        9263.00     40397.46
  206.54        3346.00           6806        7521.00     32788.16
  206.57        3346.25           6810        5268.00     22951.54
  206.60        3346.50           6814        3514.00     15297.31
  206.62        3346.75           6818        2338.00     10167.24
  206.65        3347.00           6821        1689.00      7336.73
  206.68        3347.25           6825         599.00      2583.88
  206.71        3347.50           6829         131.00       543.60
  206.73        3347.75           6833          45.00       168.70
  206.76        3348.00           6836          45.00       168.70
  206.79        3348.25           6840          42.00       155.62
  206.82        3348.50           6844          45.00       168.70
  206.84        3348.75           6848          34.00       120.75
  206.87        3349.00           6851          39.00       142.55
  206.90        3349.25           6855          37.00       133.83
  206.93        3349.50           6859          42.00       155.62
  206.95        3349.75           6863          45.00       168.70
  206.98        3350.00           6867          39.00       142.55
  207.01        3350.25           6870          44.00       164.34
  207.04        3350.50           6874          34.00       120.75
  207.06        3350.75           6878          38.00       138.19
  207.09        3351.00           6882          33.00       116.39
HL scan finished at 03:27:43
end
