************************************************************
  HL Scan of (1) Internal mercury lamp
************************************************************
Integration time is 0.2294 seconds per sample
dh110717Tamanrasset 22.79-5.529 3.414281pr865
************************************************************
Dead Time -------------------------  2.8E-08 
Number of Cycles Used -------------  4 
Starting Wavelength (Angstroms) ---  3331 
Final Wavelength (Angstoms) -------  3351 
Wavelength Increment (Angstroms) --  .25 
Filter Wheel #1 Position ---------- (1) Ground quartz diffuser (ND=2.32)
Filter Wheel #2 Position ---------- (0) Clear Aperture



************************************************************
HL scan start time = 03:27:11
Dark Count =  5.9 


Time (GMT)  Wavelength (Ang)  Step Number  Raw Counts  Counts/Second

  207.69        3331.00           6581          34.00       122.49
  207.91        3331.25           6585          31.00       109.42
  207.94        3331.50           6589          35.00       126.85
  207.96        3331.75           6593          32.00       113.78
  207.99        3332.00           6596          36.00       131.21
  208.02        3332.25           6600          34.00       122.49
  208.05        3332.50           6604          32.00       113.78
  208.07        3332.75           6608          39.00       144.29
  208.10        3333.00           6611          30.00       105.06
  208.13        3333.25           6615          30.00       105.06
  208.16        3333.50           6619          35.00       126.85
  208.18        3333.75           6623          35.00       126.85
  208.21        3334.00           6626          33.00       118.13
  208.24        3334.25           6630          41.00       153.01
  208.26        3334.50           6634          37.00       135.57
  208.29        3334.75           6638          32.00       113.78
  208.32        3335.00           6641          40.00       148.65
  208.35        3335.25           6645          37.00       135.57
  208.37        3335.50           6649          54.00       209.68
  208.40        3335.75           6653          82.00       331.74
  208.43        3336.00           6656         191.00       806.91
  208.46        3336.25           6660         583.00      2515.87
  208.48        3336.50           6664        1320.00      5729.34
  208.51        3336.75           6668        2221.00      9658.67
  208.54        3337.00           6671        2872.00     12498.27
  208.57        3337.25           6675        4841.00     21089.61
  208.59        3337.50           6679        6997.00     30501.63
  208.62        3337.75           6683        9161.00     39953.56
  208.65        3338.00           6686       10816.00     47185.66
  208.67        3338.25           6690       13101.00     57175.59
  208.70        3338.50           6694       15324.00     66899.83
  208.73        3338.75           6698       17539.00     76594.35
  208.76        3339.00           6701       19317.00     84380.03
  208.78        3339.25           6705       21715.00     94886.03
  208.81        3339.50           6709       24259.00    106038.40
  208.84        3339.75           6713       26489.00    115820.10
  208.87        3340.00           6716       28042.00    122635.30
  208.89        3340.25           6720       30277.00    132448.00
  208.92        3340.50           6724       32434.00    141923.40
  208.95        3340.75           6728       34778.00    152225.90
  208.98        3341.00           6731       36334.00    159068.30
  209.00        3341.25           6735       38162.00    167110.10
  209.03        3341.50           6739       39175.00    171568.10
  209.06        3341.75           6743       40160.00    175903.90
  209.09        3342.00           6746       39944.00    174953.00
  209.11        3342.25           6750       39194.00    171651.70
  209.14        3342.50           6754       37246.00    163080.00
  209.17        3342.75           6758       35068.00    153501.00
  209.20        3343.00           6761       33282.00    145649.90
  209.22        3343.25           6765       31576.00    138153.70
  209.25        3343.50           6769       29117.00    127354.40
  209.28        3343.75           6773       27028.00    118185.10
  209.31        3344.00           6776       25297.00    110590.80
  209.33        3344.25           6780       23050.00    100737.60
  209.36        3344.50           6784       20764.00     90718.81
  209.39        3344.75           6788       18172.00     79365.80
  209.42        3345.00           6791       16061.00     70124.91
  209.44        3345.25           6795       13419.00     58566.32
  209.47        3345.50           6799       10304.00     44947.99
  209.50        3345.75           6803        7917.00     34519.40
  209.53        3346.00           6806        6274.00     27344.82
  209.55        3346.25           6810        4096.00     17838.47
  209.58        3346.50           6814        2905.00     12642.23
  209.61        3346.75           6818        1872.00      8136.55
  209.64        3347.00           6821        1032.00      4473.53
  209.66        3347.25           6825         284.00      1212.33
  209.69        3347.50           6829          65.00       257.63
  209.72        3347.75           6833          45.00       170.45
  209.74        3348.00           6836          40.00       148.65
  209.77        3348.25           6840          41.00       153.01
  209.80        3348.50           6844          38.00       139.93
  209.83        3348.75           6848          37.00       135.57
  209.85        3349.00           6851          36.00       131.21
  209.88        3349.25           6855          38.00       139.93
  209.91        3349.50           6859          33.00       118.13
  209.94        3349.75           6863          39.00       144.29
  209.96        3350.00           6867          42.00       157.37
  209.99        3350.25           6870          40.00       148.65
  210.02        3350.50           6874          41.00       153.01
  210.05        3350.75           6878          33.00       118.13
  210.07        3351.00           6882          39.00       144.29
HL scan finished at 03:30:42
end
