************************************************************
  HL Scan of (1) Internal mercury lamp
************************************************************
Integration time is 0.2294 seconds per sample
dh120717Tamanrasset 22.79-5.529 3.337806pr865
************************************************************
Dead Time -------------------------  2.8E-08 
Number of Cycles Used -------------  4 
Starting Wavelength (Angstroms) ---  3331 
Final Wavelength (Angstoms) -------  3351 
Wavelength Increment (Angstroms) --  .25 
Filter Wheel #1 Position ---------- (1) Ground quartz diffuser (ND=2.32)
Filter Wheel #2 Position ---------- (0) Clear Aperture



************************************************************
HL scan start time = 03:28:11
Dark Count =  5.9 


Time (GMT)  Wavelength (Ang)  Step Number  Raw Counts  Counts/Second

  208.69        3331.00           6581          34.00       122.49
  208.91        3331.25           6585          32.00       113.78
  208.94        3331.50           6589          30.00       105.06
  208.96        3331.75           6593          33.00       118.13
  208.99        3332.00           6596          31.00       109.42
  209.02        3332.25           6600          29.00       100.70
  209.05        3332.50           6604          30.00       105.06
  209.07        3332.75           6608          35.00       126.85
  209.10        3333.00           6611          29.00       100.70
  209.13        3333.25           6615          28.00        96.34
  209.16        3333.50           6619          36.00       131.21
  209.18        3333.75           6623          36.00       131.21
  209.21        3334.00           6626          33.00       118.13
  209.24        3334.25           6630          31.00       109.42
  209.27        3334.50           6634          31.00       109.42
  209.29        3334.75           6638          31.00       109.42
  209.32        3335.00           6641          35.00       126.85
  209.35        3335.25           6645          39.00       144.29
  209.38        3335.50           6649          39.00       144.29
  209.40        3335.75           6653          57.00       222.76
  209.43        3336.00           6656         148.00       619.45
  209.46        3336.25           6660         454.00      1953.46
  209.48        3336.50           6664        1025.00      4443.01
  209.51        3336.75           6668        1913.00      8315.36
  209.54        3337.00           6671        2513.00     10932.29
  209.57        3337.25           6675        4345.00     18925.02
  209.59        3337.50           6679        6483.00     28257.31
  209.62        3337.75           6683        8538.00     37231.91
  209.65        3338.00           6686       10015.00     43685.05
  209.68        3338.25           6690       12283.00     53598.69
  209.70        3338.50           6694       14558.00     63548.46
  209.73        3338.75           6698       16604.00     72501.44
  209.76        3339.00           6701       18270.00     79794.91
  209.79        3339.25           6705       20556.00     89807.50
  209.81        3339.50           6709       22873.00     99961.61
  209.84        3339.75           6713       25105.00    109748.70
  209.87        3340.00           6716       26448.00    115640.20
  209.90        3340.25           6720       28763.00    125800.20
  209.92        3340.50           6724       30993.00    135592.70
  209.95        3340.75           6728       32946.00    144173.30
  209.98        3341.00           6731       34702.00    151891.80
  210.01        3341.25           6735       36278.00    158822.00
  210.03        3341.50           6739       37478.00    164100.60
  210.06        3341.75           6743       38299.00    167712.90
  210.09        3342.00           6746       38401.00    168161.80
  210.12        3342.25           6750       37679.00    164984.90
  210.14        3342.50           6754       36099.00    158034.80
  210.17        3342.75           6758       34124.00    149350.80
  210.20        3343.00           6761       32403.00    141787.20
  210.23        3343.25           6765       30546.00    133629.40
  210.26        3343.50           6769       28628.00    125207.60
  210.28        3343.75           6773       26363.00    115267.20
  210.31        3344.00           6776       24755.00    108213.60
  210.34        3344.25           6780       22457.00     98138.09
  210.37        3344.50           6784       20302.00     88694.72
  210.39        3344.75           6788       18032.00     78752.80
  210.42        3345.00           6791       15971.00     69731.04
  210.45        3345.25           6795       13355.00     58286.42
  210.47        3345.50           6799       10306.00     44956.73
  210.50        3345.75           6803        8215.00     35821.00
  210.53        3346.00           6806        6468.00     28191.82
  210.56        3346.25           6810        4520.00     19688.71
  210.58        3346.50           6814        3346.00     14566.10
  210.61        3346.75           6818        2167.00      9423.15
  210.64        3347.00           6821        1306.00      5668.29
  210.67        3347.25           6825         425.00      1827.03
  210.69        3347.50           6829          96.00       392.77
  210.72        3347.75           6833          50.00       192.24
  210.75        3348.00           6836          37.00       135.57
  210.78        3348.25           6840          43.00       161.73
  210.80        3348.50           6844          32.00       113.78
  210.83        3348.75           6848          39.00       144.29
  210.86        3349.00           6851          32.00       113.78
  210.89        3349.25           6855          34.00       122.49
  210.91        3349.50           6859          36.00       131.21
  210.94        3349.75           6863          34.00       122.49
  210.97        3350.00           6867          38.00       139.93
  210.99        3350.25           6870          39.00       144.29
  211.02        3350.50           6874          44.00       166.09
  211.05        3350.75           6878          42.00       157.37
  211.08        3351.00           6882          39.00       144.29
HL scan finished at 03:31:42
end
