************************************************************
  HL Scan of (1) Internal mercury lamp
************************************************************
Integration time is 0.2294 seconds per sample
dh090717Tamanrasset 22.79-5.529 3.388789pr865
************************************************************
Dead Time -------------------------  2.8E-08 
Number of Cycles Used -------------  4 
Starting Wavelength (Angstroms) ---  3331 
Final Wavelength (Angstoms) -------  3351 
Wavelength Increment (Angstroms) --  .25 
Filter Wheel #1 Position ---------- (1) Ground quartz diffuser (ND=2.32)
Filter Wheel #2 Position ---------- (0) Clear Aperture



************************************************************
HL scan start time = 03:26:13
Dark Count =  5.5 


Time (GMT)  Wavelength (Ang)  Step Number  Raw Counts  Counts/Second

  206.73        3331.00           6581          29.00       102.44
  206.94        3331.25           6585          37.00       137.32
  206.97        3331.50           6589          37.00       137.32
  207.00        3331.75           6593          36.00       132.96
  207.03        3332.00           6596          31.00       111.16
  207.05        3332.25           6600          33.00       119.88
  207.08        3332.50           6604          30.00       106.80
  207.11        3332.75           6608          37.00       137.32
  207.14        3333.00           6611          32.00       115.52
  207.16        3333.25           6615          40.00       150.39
  207.19        3333.50           6619          32.00       115.52
  207.22        3333.75           6623          32.00       115.52
  207.25        3334.00           6626          32.00       115.52
  207.27        3334.25           6630          29.00       102.44
  207.30        3334.50           6634          35.00       128.60
  207.33        3334.75           6638          35.00       128.60
  207.35        3335.00           6641          36.00       132.96
  207.38        3335.25           6645          39.00       146.03
  207.41        3335.50           6649          43.00       163.47
  207.44        3335.75           6653          54.00       211.42
  207.46        3336.00           6656         146.00       612.48
  207.49        3336.25           6660         461.00      1985.73
  207.52        3336.50           6664        1096.00      4754.34
  207.55        3336.75           6668        1887.00      8203.72
  207.57        3337.00           6671        2462.00     10711.58
  207.60        3337.25           6675        4391.00     19127.51
  207.63        3337.50           6679        6476.00     28228.50
  207.66        3337.75           6683        8497.00     37054.56
  207.68        3338.00           6686       10205.00     44517.10
  207.71        3338.25           6690       12362.00     53945.85
  207.74        3338.50           6694       14809.00     64648.30
  207.77        3338.75           6698       16953.00     74030.80
  207.79        3339.00           6701       18589.00     81193.54
  207.82        3339.25           6705       20953.00     91548.68
  207.85        3339.50           6709       23422.00    102370.20
  207.88        3339.75           6713       25697.00    112347.20
  207.90        3340.00           6716       27107.00    118533.60
  207.93        3340.25           6720       29476.00    128932.40
  207.96        3340.50           6724       31712.00    138752.90
  207.98        3340.75           6728       33963.00    148644.90
  208.01        3341.00           6731       35318.00    154602.00
  208.04        3341.25           6735       37131.00    162575.80
  208.07        3341.50           6739       38529.00    168726.80
  208.10        3341.75           6743       39446.00    172762.70
  208.12        3342.00           6746       39637.00    173603.40
  208.15        3342.25           6750       38829.00    170047.10
  208.18        3342.50           6754       36974.00    161885.10
  208.21        3342.75           6758       34815.00    152390.40
  208.23        3343.00           6761       33348.00    145941.70
  208.26        3343.25           6765       31338.00    137109.90
  208.29        3343.50           6769       29280.00    128071.80
  208.31        3343.75           6773       27046.00    118265.90
  208.34        3344.00           6776       25312.00    110658.40
  208.37        3344.25           6780       23283.00    101760.80
  208.40        3344.50           6784       20803.00     90891.44
  208.42        3344.75           6788       18299.00     79923.66
  208.45        3345.00           6791       15932.00     69562.13
  208.48        3345.25           6795       13434.00     58633.67
  208.51        3345.50           6799       10589.00     46195.28
  208.54        3345.75           6803        8289.00     36145.98
  208.56        3346.00           6806        6509.00     28372.58
  208.59        3346.25           6810        4415.00     19232.24
  208.62        3346.50           6814        2975.00     12949.33
  208.64        3346.75           6818        2142.00      9315.86
  208.67        3347.00           6821        1282.00      5565.38
  208.70        3347.25           6825         377.00      1619.52
  208.73        3347.50           6829          72.00       289.89
  208.75        3347.75           6833          46.00       176.55
  208.78        3348.00           6836          35.00       128.60
  208.81        3348.25           6840          40.00       150.39
  208.84        3348.50           6844          36.00       132.96
  208.86        3348.75           6848          33.00       119.88
  208.89        3349.00           6851          37.00       137.32
  208.92        3349.25           6855          38.00       141.67
  208.95        3349.50           6859          32.00       115.52
  208.97        3349.75           6863          34.00       124.24
  209.00        3350.00           6867          39.00       146.03
  209.03        3350.25           6870          35.00       128.60
  209.05        3350.50           6874          39.00       146.03
  209.08        3350.75           6878          34.00       124.24
  209.11        3351.00           6882          31.00       111.16
HL scan finished at 03:29:44
end
