************************************************************
  HL Scan of (1) Internal mercury lamp
************************************************************
Integration time is 0.2294 seconds per sample
dh150717Tamanrasset 22.79-5.529 3.240938pr865
************************************************************
Dead Time -------------------------  2.8E-08 
Number of Cycles Used -------------  4 
Starting Wavelength (Angstroms) ---  3331 
Final Wavelength (Angstoms) -------  3351 
Wavelength Increment (Angstroms) --  .25 
Filter Wheel #1 Position ---------- (1) Ground quartz diffuser (ND=2.32)
Filter Wheel #2 Position ---------- (0) Clear Aperture



************************************************************
HL scan start time = 03:29:08
Dark Count =  4.2 


Time (GMT)  Wavelength (Ang)  Step Number  Raw Counts  Counts/Second

  209.64        3331.00           6581          31.00       116.83
  209.86        3331.25           6585          32.00       121.19
  209.89        3331.50           6589          35.00       134.26
  209.92        3331.75           6593          32.00       121.19
  209.94        3332.00           6596          32.00       121.19
  209.97        3332.25           6600          32.00       121.19
  210.00        3332.50           6604          30.00       112.47
  210.02        3332.75           6608          34.00       129.90
  210.05        3333.00           6611          34.00       129.90
  210.08        3333.25           6615          33.00       125.55
  210.11        3333.50           6619          26.00        95.03
  210.13        3333.75           6623          30.00       112.47
  210.16        3334.00           6626          32.00       121.19
  210.19        3334.25           6630          29.00       108.11
  210.22        3334.50           6634          33.00       125.55
  210.24        3334.75           6638          29.00       108.11
  210.27        3335.00           6641          33.00       125.55
  210.30        3335.25           6645          36.00       138.62
  210.32        3335.50           6649          46.00       182.22
  210.35        3335.75           6653          55.00       221.45
  210.38        3336.00           6656         126.00       530.96
  210.41        3336.25           6660         422.00      1821.37
  210.43        3336.50           6664         971.00      4214.97
  210.46        3336.75           6668        1700.00      7393.86
  210.49        3337.00           6671        2302.00     10019.38
  210.52        3337.25           6675        3985.00     17361.53
  210.54        3337.50           6679        5875.00     25610.34
  210.57        3337.75           6683        7825.00     34125.01
  210.60        3338.00           6686        9411.00     41053.27
  210.63        3338.25           6690       11562.00     50453.97
  210.65        3338.50           6694       13494.00     58901.77
  210.68        3338.75           6698       15616.00     68184.99
  210.71        3339.00           6701       17128.00     74802.55
  210.73        3339.25           6705       19159.00     83695.49
  210.76        3339.50           6709       21304.00     93092.38
  210.79        3339.75           6713       23368.00    102139.10
  210.82        3340.00           6716       24898.00    108848.20
  210.84        3340.25           6720       27027.00    118188.20
  210.87        3340.50           6724       28813.00    126027.20
  210.90        3340.75           6728       30926.00    135305.90
  210.93        3341.00           6731       32349.00    141557.40
  210.95        3341.25           6735       34075.00    149142.90
  210.98        3341.50           6739       35344.00    154722.00
  211.01        3341.75           6743       35936.00    157325.30
  211.04        3342.00           6746       36192.00    158451.20
  211.06        3342.25           6750       35523.00    155509.10
  211.09        3342.50           6754       34046.00    149015.40
  211.12        3342.75           6758       32040.00    140199.70
  211.14        3343.00           6761       30489.00    133386.50
  211.17        3343.25           6765       29055.00    127089.60
  211.20        3343.50           6769       27089.00    118460.30
  211.23        3343.75           6773       25070.00    109602.60
  211.25        3344.00           6776       23478.00    102621.40
  211.28        3344.25           6780       21269.00     92939.02
  211.31        3344.50           6784       19186.00     83813.73
  211.34        3344.75           6788       16992.00     74207.22
  211.36        3345.00           6791       14967.00     65345.26
  211.39        3345.25           6795       12649.00     55206.46
  211.42        3345.50           6799       10074.00     43950.30
  211.45        3345.75           6803        7777.00     33915.36
  211.47        3346.00           6806        6132.00     26732.29
  211.50        3346.25           6810        4265.00     18583.34
  211.53        3346.50           6814        3084.00     13430.51
  211.56        3346.75           6818        2265.00      9858.00
  211.58        3347.00           6821        1370.00      5954.79
  211.61        3347.25           6825         424.00      1830.09
  211.64        3347.50           6829          87.00       360.95
  211.66        3347.75           6833          45.00       177.86
  211.69        3348.00           6836          40.00       156.06
  211.72        3348.25           6840          41.00       160.42
  211.75        3348.50           6844          33.00       125.55
  211.77        3348.75           6848          32.00       121.19
  211.80        3349.00           6851          31.00       116.83
  211.83        3349.25           6855          32.00       121.19
  211.85        3349.50           6859          38.00       147.34
  211.88        3349.75           6863          33.00       125.55
  211.91        3350.00           6867          40.00       156.06
  211.94        3350.25           6870          39.00       151.70
  211.96        3350.50           6874          39.00       151.70
  211.99        3350.75           6878          40.00       156.06
  212.02        3351.00           6882          33.00       125.55
HL scan finished at 03:32:38
end
