************************************************************
  HL Scan of (1) Internal mercury lamp
************************************************************
Integration time is 0.2294 seconds per sample
dh180717Tamanrasset 22.79-5.529 3.230741pr865
************************************************************
Dead Time -------------------------  2.8E-08 
Number of Cycles Used -------------  4 
Starting Wavelength (Angstroms) ---  3331 
Final Wavelength (Angstoms) -------  3351 
Wavelength Increment (Angstroms) --  .25 
Filter Wheel #1 Position ---------- (1) Ground quartz diffuser (ND=2.32)
Filter Wheel #2 Position ---------- (0) Clear Aperture



************************************************************
HL scan start time = 03:30:10
Dark Count =  4.9 


Time (GMT)  Wavelength (Ang)  Step Number  Raw Counts  Counts/Second

  210.68        3331.00           6581          26.00        91.98
  210.89        3331.25           6585          32.00       118.13
  210.92        3331.50           6589          31.00       113.78
  210.95        3331.75           6593          32.00       118.13
  210.98        3332.00           6596          29.00       105.06
  211.00        3332.25           6600          31.00       113.78
  211.03        3332.50           6604          35.00       131.21
  211.06        3332.75           6608          31.00       113.78
  211.09        3333.00           6611          24.00        83.26
  211.11        3333.25           6615          36.00       135.57
  211.14        3333.50           6619          32.00       118.13
  211.17        3333.75           6623          34.00       126.85
  211.19        3334.00           6626          33.00       122.49
  211.22        3334.25           6630          38.00       144.29
  211.25        3334.50           6634          26.00        91.98
  211.27        3334.75           6638          31.00       113.78
  211.30        3335.00           6641          34.00       126.85
  211.33        3335.25           6645          36.00       135.57
  211.36        3335.50           6649          36.00       135.57
  211.38        3335.75           6653          69.00       279.43
  211.41        3336.00           6656         155.00       654.33
  211.44        3336.25           6660         452.00      1949.10
  211.47        3336.50           6664        1131.00      4909.57
  211.49        3336.75           6668        1837.00      7988.27
  211.52        3337.00           6671        2391.00     10404.51
  211.55        3337.25           6675        4198.00     18287.92
  211.57        3337.50           6679        6077.00     26489.13
  211.60        3337.75           6683        8152.00     35550.19
  211.63        3338.00           6686        9789.00     42701.86
  211.66        3338.25           6690       11803.00     51504.48
  211.68        3338.50           6694       13769.00     60101.50
  211.71        3338.75           6698       15874.00     69310.93
  211.74        3339.00           6701       17512.00     76480.52
  211.77        3339.25           6705       19518.00     85264.79
  211.79        3339.50           6709       21578.00     94290.02
  211.82        3339.75           6713       23559.00    102973.50
  211.85        3340.00           6716       25081.00    109647.80
  211.87        3340.25           6720       27272.00    119260.30
  211.90        3340.50           6724       29213.00    127780.30
  211.93        3340.75           6728       31185.00    136440.50
  211.96        3341.00           6731       32639.00    142828.60
  211.98        3341.25           6735       33843.00    148120.00
  212.01        3341.50           6739       35196.00    154068.20
  212.04        3341.75           6743       35806.00    156750.60
  212.07        3342.00           6746       35705.00    156306.40
  212.09        3342.25           6750       34836.00    152485.30
  212.12        3342.50           6754       33288.00    145680.70
  212.15        3342.75           6758       31067.00    135922.20
  212.18        3343.00           6761       29833.00    130502.60
  212.20        3343.25           6765       28284.00    123701.90
  212.23        3343.50           6769       26131.00    114253.80
  212.26        3343.75           6773       24119.00    105428.90
  212.29        3344.00           6776       22431.00     98028.52
  212.31        3344.25           6780       20496.00     89549.02
  212.34        3344.50           6784       18634.00     81393.23
  212.37        3344.75           6788       16432.00     71752.99
  212.39        3345.00           6791       14525.00     63408.47
  212.42        3345.25           6795       11806.00     51517.59
  212.45        3345.50           6799        9364.00     40844.85
  212.48        3345.75           6803        7350.00     32047.49
  212.50        3346.00           6806        5819.00     25362.82
  212.53        3346.25           6810        4015.00     17489.38
  212.56        3346.50           6814        2755.00     11992.26
  212.59        3346.75           6818        1978.00      8603.21
  212.61        3347.00           6821        1107.00      4804.92
  212.64        3347.25           6825         328.00      1408.51
  212.67        3347.50           6829          73.00       296.86
  212.69        3347.75           6833          39.00       148.65
  212.72        3348.00           6836          34.00       126.85
  212.75        3348.25           6840          37.00       139.93
  212.78        3348.50           6844          34.00       126.85
  212.80        3348.75           6848          35.00       131.21
  212.83        3349.00           6851          37.00       139.93
  212.86        3349.25           6855          35.00       131.21
  212.89        3349.50           6859          36.00       135.57
  212.91        3349.75           6863          29.00       105.06
  212.94        3350.00           6867          39.00       148.65
  212.97        3350.25           6870          38.00       144.29
  213.00        3350.50           6874          34.00       126.85
  213.02        3350.75           6878          35.00       131.21
  213.05        3351.00           6882          35.00       131.21
HL scan finished at 03:33:40
end
