************************************************************
  HL Scan of (1) Internal mercury lamp
************************************************************
Integration time is 0.2294 seconds per sample
dh100717Tamanrasset 22.79-5.529 3.419379pr865
************************************************************
Dead Time -------------------------  2.8E-08 
Number of Cycles Used -------------  4 
Starting Wavelength (Angstroms) ---  3331 
Final Wavelength (Angstoms) -------  3351 
Wavelength Increment (Angstroms) --  .25 
Filter Wheel #1 Position ---------- (1) Ground quartz diffuser (ND=2.32)
Filter Wheel #2 Position ---------- (0) Clear Aperture



************************************************************
HL scan start time = 03:27:13
Dark Count =  7.6 


Time (GMT)  Wavelength (Ang)  Step Number  Raw Counts  Counts/Second

  207.72        3331.00           6581          31.00       102.01
  207.94        3331.25           6585          32.00       106.36
  207.97        3331.50           6589          35.00       119.44
  208.00        3331.75           6593          33.00       110.72
  208.02        3332.00           6596          38.00       132.52
  208.05        3332.25           6600          31.00       102.01
  208.08        3332.50           6604          32.00       106.36
  208.11        3332.75           6608          38.00       132.52
  208.13        3333.00           6611          30.00        97.65
  208.16        3333.25           6615          31.00       102.01
  208.19        3333.50           6619          26.00        80.21
  208.22        3333.75           6623          33.00       110.72
  208.24        3334.00           6626          28.00        88.93
  208.27        3334.25           6630          38.00       132.52
  208.30        3334.50           6634          37.00       128.16
  208.33        3334.75           6638          37.00       128.16
  208.35        3335.00           6641          38.00       132.52
  208.38        3335.25           6645          35.00       119.44
  208.41        3335.50           6649          46.00       167.39
  208.43        3335.75           6653          77.00       302.53
  208.46        3336.00           6656         200.00       838.73
  208.49        3336.25           6660         620.00      2669.77
  208.52        3336.50           6664        1447.00      6275.73
  208.55        3336.75           6668        2425.00     10541.04
  208.57        3337.00           6671        3041.00     13228.09
  208.60        3337.25           6675        4974.00     21662.66
  208.63        3337.50           6679        7155.00     31184.15
  208.65        3337.75           6683        9352.00     40780.63
  208.68        3338.00           6686       11059.00     48240.36
  208.71        3338.25           6690       13415.00     58541.40
  208.74        3338.50           6694       15508.00     67697.52
  208.76        3338.75           6698       17898.00     78158.66
  208.79        3339.00           6701       19810.00     86531.99
  208.82        3339.25           6705       21978.00     96031.19
  208.85        3339.50           6709       24449.00    106864.20
  208.87        3339.75           6713       26585.00    116233.80
  208.90        3340.00           6716       28467.00    124493.40
  208.93        3340.25           6720       30527.00    133538.50
  208.96        3340.50           6724       33031.00    144539.30
  208.98        3340.75           6728       35048.00    153405.60
  209.01        3341.00           6731       36550.00    160010.90
  209.04        3341.25           6735       38304.00    167727.50
  209.07        3341.50           6739       39653.00    173664.60
  209.09        3341.75           6743       40027.00    175310.90
  209.12        3342.00           6746       40145.00    175830.40
  209.15        3342.25           6750       39136.00    171389.00
  209.18        3342.50           6754       36992.00    161955.10
  209.20        3342.75           6758       34802.00    152324.00
  209.23        3343.00           6761       33508.00    146635.70
  209.26        3343.25           6765       31470.00    137680.60
  209.29        3343.50           6769       29251.00    127935.20
  209.31        3343.75           6773       27104.00    118511.20
  209.34        3344.00           6776       25281.00    110513.20
  209.37        3344.25           6780       23069.00    100813.40
  209.40        3344.50           6784       20720.00     90518.59
  209.42        3344.75           6788       18017.00     78679.69
  209.45        3345.00           6791       15610.00     68143.85
  209.48        3345.25           6795       12716.00     55484.57
  209.51        3345.50           6799       10093.00     44018.48
  209.53        3345.75           6803        7787.00     33944.19
  209.56        3346.00           6806        6206.00     27040.52
  209.59        3346.25           6810        4056.00     17656.50
  209.62        3346.50           6814        2633.00     11448.31
  209.64        3346.75           6818        1772.00      7693.03
  209.67        3347.00           6821        1000.00      4326.59
  209.70        3347.25           6825         276.00      1170.05
  209.73        3347.50           6829          59.00       224.06
  209.75        3347.75           6833          44.00       158.68
  209.78        3348.00           6836          45.00       163.03
  209.81        3348.25           6840          37.00       128.16
  209.84        3348.50           6844          38.00       132.52
  209.86        3348.75           6848          40.00       141.24
  209.89        3349.00           6851          33.00       110.72
  209.92        3349.25           6855          37.00       128.16
  209.94        3349.50           6859          41.00       145.60
  209.97        3349.75           6863          37.00       128.16
  210.00        3350.00           6867          38.00       132.52
  210.03        3350.25           6870          34.00       115.08
  210.05        3350.50           6874          40.00       141.24
  210.08        3350.75           6878          32.00       106.36
  210.11        3351.00           6882          40.00       141.24
HL scan finished at 03:30:44
end
