************************************************************
  HL Scan of (1) Internal mercury lamp
************************************************************
Integration time is 0.2294 seconds per sample
dh170717Tamanrasset 22.79-5.529 3.26643pr865
************************************************************
Dead Time -------------------------  2.8E-08 
Number of Cycles Used -------------  4 
Starting Wavelength (Angstroms) ---  3331 
Final Wavelength (Angstoms) -------  3351 
Wavelength Increment (Angstroms) --  .25 
Filter Wheel #1 Position ---------- (1) Ground quartz diffuser (ND=2.32)
Filter Wheel #2 Position ---------- (0) Clear Aperture



************************************************************
HL scan start time = 03:30:08
Dark Count =  3.8 


Time (GMT)  Wavelength (Ang)  Step Number  Raw Counts  Counts/Second

  210.65        3331.00           6581          32.00       122.93
  210.87        3331.25           6585          30.00       114.21
  210.89        3331.50           6589          33.00       127.29
  210.92        3331.75           6593          28.00       105.49
  210.95        3332.00           6596          36.00       140.37
  210.97        3332.25           6600          25.00        92.42
  211.00        3332.50           6604          32.00       122.93
  211.03        3332.75           6608          37.00       144.73
  211.06        3333.00           6611          30.00       114.21
  211.08        3333.25           6615          33.00       127.29
  211.11        3333.50           6619          33.00       127.29
  211.14        3333.75           6623          33.00       127.29
  211.16        3334.00           6626          36.00       140.37
  211.19        3334.25           6630          36.00       140.37
  211.22        3334.50           6634          32.00       122.93
  211.25        3334.75           6638          34.00       131.65
  211.27        3335.00           6641          38.00       149.09
  211.30        3335.25           6645          36.00       140.37
  211.33        3335.50           6649          41.00       162.16
  211.35        3335.75           6653          59.00       240.63
  211.38        3336.00           6656         121.00       510.91
  211.41        3336.25           6660         375.00      1618.21
  211.44        3336.50           6664         879.00      3815.58
  211.46        3336.75           6668        1540.00      6697.86
  211.49        3337.00           6671        2108.00      9174.98
  211.52        3337.25           6675        3781.00     16473.16
  211.54        3337.50           6679        5722.00     24944.18
  211.57        3337.75           6683        7687.00     33524.04
  211.60        3338.00           6686        9340.00     40744.81
  211.63        3338.25           6690       11292.00     49275.44
  211.65        3338.50           6694       13376.00     58387.45
  211.68        3338.75           6698       15453.00     67473.48
  211.71        3339.00           6701       16786.00     73307.25
  211.74        3339.25           6705       19118.00     83517.66
  211.76        3339.50           6709       21169.00     92502.57
  211.79        3339.75           6713       23330.00    101974.30
  211.82        3340.00           6716       24671.00    107854.40
  211.85        3340.25           6720       26769.00    117057.90
  211.87        3340.50           6724       28974.00    126735.80
  211.90        3340.75           6728       30748.00    134525.80
  211.93        3341.00           6731       32293.00    141313.10
  211.96        3341.25           6735       33834.00    148085.30
  211.98        3341.50           6739       35261.00    154358.80
  212.01        3341.75           6743       36125.00    158158.30
  212.04        3342.00           6746       36268.00    158787.20
  212.06        3342.25           6750       35860.00    156992.90
  212.09        3342.50           6754       34382.00    150494.20
  212.12        3342.75           6758       32336.00    141502.00
  212.15        3343.00           6761       31111.00    136120.30
  212.17        3343.25           6765       29386.00    128544.70
  212.20        3343.50           6769       27360.00    119651.30
  212.23        3343.75           6773       25266.00    110464.10
  212.26        3344.00           6776       23670.00    103465.00
  212.28        3344.25           6780       21861.00     95535.07
  212.31        3344.50           6784       19541.00     85370.34
  212.34        3344.75           6788       17404.00     76012.53
  212.37        3345.00           6791       15289.00     66755.87
  212.39        3345.25           6795       13045.00     56939.89
  212.42        3345.50           6799       10457.00     45625.82
  212.45        3345.75           6803        8053.00     35122.58
  212.48        3346.00           6806        6470.00     28209.72
  212.50        3346.25           6810        4536.00     19767.70
  212.53        3346.50           6814        3188.00     13885.96
  212.56        3346.75           6818        2315.00     10077.82
  212.58        3347.00           6821        1461.00      6353.35
  212.61        3347.25           6825         509.00      2202.40
  212.64        3347.50           6829         114.00       480.39
  212.67        3347.75           6833          42.00       166.52
  212.69        3348.00           6836          38.00       149.09
  212.72        3348.25           6840          37.00       144.73
  212.75        3348.50           6844          39.00       153.44
  212.77        3348.75           6848          35.00       136.01
  212.80        3349.00           6851          36.00       140.37
  212.83        3349.25           6855          34.00       131.65
  212.86        3349.50           6859          35.00       136.01
  212.88        3349.75           6863          36.00       140.37
  212.91        3350.00           6867          39.00       153.44
  212.94        3350.25           6870          33.00       127.29
  212.96        3350.50           6874          35.00       136.01
  212.99        3350.75           6878          33.00       127.29
  213.02        3351.00           6882          42.00       166.52
HL scan finished at 03:33:39
end
