************************************************************
  HL Scan of (1) Internal mercury lamp
************************************************************
Integration time is 0.2294 seconds per sample
dh140717Tamanrasset 22.79-5.529 3.297019pr865
************************************************************
Dead Time -------------------------  2.8E-08 
Number of Cycles Used -------------  4 
Starting Wavelength (Angstroms) ---  3331 
Final Wavelength (Angstoms) -------  3351 
Wavelength Increment (Angstroms) --  .25 
Filter Wheel #1 Position ---------- (1) Ground quartz diffuser (ND=2.32)
Filter Wheel #2 Position ---------- (0) Clear Aperture



************************************************************
HL scan start time = 03:28:21
Dark Count =  6 


Time (GMT)  Wavelength (Ang)  Step Number  Raw Counts  Counts/Second

  208.87        3331.00           6581          35.00       126.42
  209.09        3331.25           6585          35.00       126.42
  209.11        3331.50           6589          29.00       100.26
  209.14        3331.75           6593          33.00       117.70
  209.17        3332.00           6596          30.00       104.62
  209.20        3332.25           6600          31.00       108.98
  209.22        3332.50           6604          33.00       117.70
  209.25        3332.75           6608          29.00       100.26
  209.28        3333.00           6611          33.00       117.70
  209.30        3333.25           6615          33.00       117.70
  209.33        3333.50           6619          31.00       108.98
  209.36        3333.75           6623          31.00       108.98
  209.39        3334.00           6626          31.00       108.98
  209.41        3334.25           6630          36.00       130.78
  209.44        3334.50           6634          34.00       122.06
  209.47        3334.75           6638          35.00       126.42
  209.49        3335.00           6641          31.00       108.98
  209.52        3335.25           6645          41.00       152.57
  209.55        3335.50           6649          40.00       148.21
  209.58        3335.75           6653          64.00       252.84
  209.60        3336.00           6656         151.00       632.09
  209.63        3336.25           6660         447.00      1922.51
  209.66        3336.50           6664         910.00      3941.15
  209.68        3336.75           6668        1620.00      7037.13
  209.71        3337.00           6671        2373.00     10321.20
  209.74        3337.25           6675        4249.00     18505.66
  209.77        3337.50           6679        6231.00     27156.65
  209.79        3337.75           6683        8289.00     36143.80
  209.82        3338.00           6686        9881.00     43099.06
  209.85        3338.25           6690       11980.00     52273.49
  209.88        3338.50           6694       14255.00     62222.53
  209.90        3338.75           6698       16426.00     71721.93
  209.93        3339.00           6701       17957.00     78423.99
  209.96        3339.25           6705       20327.00     88803.80
  209.99        3339.50           6709       22622.00     98860.91
  210.01        3339.75           6713       24636.00    107691.30
  210.04        3340.00           6716       26275.00    114880.70
  210.07        3340.25           6720       28163.00    123166.00
  210.10        3340.50           6724       30435.00    133141.50
  210.12        3340.75           6728       32242.00    141079.30
  210.15        3341.00           6731       33644.00    147240.50
  210.18        3341.25           6735       35525.00    155510.00
  210.20        3341.50           6739       36928.00    161680.60
  210.23        3341.75           6743       37443.00    163946.20
  210.26        3342.00           6746       37554.00    164434.50
  210.29        3342.25           6750       36971.00    161869.70
  210.31        3342.50           6754       35317.00    154595.40
  210.34        3342.75           6758       33084.00    144779.30
  210.37        3343.00           6761       31782.00    139058.30
  210.40        3343.25           6765       30049.00    131446.30
  210.42        3343.50           6769       27955.00    122253.00
  210.45        3343.75           6773       25756.00    112603.80
  210.48        3344.00           6776       23974.00    104788.30
  210.51        3344.25           6780       21924.00     95801.53
  210.53        3344.50           6784       19783.00     86420.72
  210.56        3344.75           6788       17445.00     76182.40
  210.59        3345.00           6791       15670.00     68413.40
  210.61        3345.25           6795       13022.00     56829.68
  210.64        3345.50           6799        9940.00     43356.88
  210.67        3345.75           6803        7736.00     33728.44
  210.70        3346.00           6806        6130.00     26715.70
  210.72        3346.25           6810        4187.00     18235.11
  210.75        3346.50           6814        3230.00     14059.59
  210.78        3346.75           6818        2077.00      9030.18
  210.81        3347.00           6821        1190.00      5162.04
  210.83        3347.25           6825         387.00      1660.93
  210.86        3347.50           6829          75.00       300.79
  210.89        3347.75           6833          36.00       130.78
  210.91        3348.00           6836          39.00       143.85
  210.94        3348.25           6840          41.00       152.57
  210.97        3348.50           6844          34.00       122.06
  211.00        3348.75           6848          39.00       143.85
  211.02        3349.00           6851          35.00       126.42
  211.05        3349.25           6855          38.00       139.49
  211.08        3349.50           6859          31.00       108.98
  211.10        3349.75           6863          41.00       152.57
  211.13        3350.00           6867          36.00       130.78
  211.16        3350.25           6870          34.00       122.06
  211.19        3350.50           6874          37.00       135.14
  211.21        3350.75           6878          40.00       148.21
  211.24        3351.00           6882          35.00       126.42
HL scan finished at 03:31:52
end
