************************************************************
  HL Scan of (1) Internal mercury lamp
************************************************************
Integration time is 0.2294 seconds per sample
dh160717Tamanrasset 22.79-5.529 3.261331pr865
************************************************************
Dead Time -------------------------  2.8E-08 
Number of Cycles Used -------------  4 
Starting Wavelength (Angstroms) ---  3331 
Final Wavelength (Angstoms) -------  3351 
Wavelength Increment (Angstroms) --  .25 
Filter Wheel #1 Position ---------- (1) Ground quartz diffuser (ND=2.32)
Filter Wheel #2 Position ---------- (0) Clear Aperture



************************************************************
HL scan start time = 03:29:09
Dark Count =  6.6 


Time (GMT)  Wavelength (Ang)  Step Number  Raw Counts  Counts/Second

  209.65        3331.00           6581          27.00        88.93
  209.87        3331.25           6585          31.00       106.36
  209.90        3331.50           6589          33.00       115.08
  209.93        3331.75           6593          30.00       102.01
  209.95        3332.00           6596          32.00       110.72
  209.98        3332.25           6600          30.00       102.01
  210.01        3332.50           6604          39.00       141.24
  210.04        3332.75           6608          27.00        88.93
  210.06        3333.00           6611          28.00        93.29
  210.09        3333.25           6615          33.00       115.08
  210.12        3333.50           6619          33.00       115.08
  210.14        3333.75           6623          28.00        93.29
  210.17        3334.00           6626          37.00       132.52
  210.20        3334.25           6630          37.00       132.52
  210.23        3334.50           6634          33.00       115.08
  210.25        3334.75           6638          31.00       106.36
  210.28        3335.00           6641          36.00       128.16
  210.31        3335.25           6645          36.00       128.16
  210.33        3335.50           6649          37.00       132.52
  210.36        3335.75           6653          54.00       206.63
  210.39        3336.00           6656         121.00       498.70
  210.42        3336.25           6660         383.00      1640.88
  210.44        3336.50           6664         910.00      3938.53
  210.47        3336.75           6668        1606.00      6973.46
  210.50        3337.00           6671        2145.00      9324.14
  210.53        3337.25           6675        3788.00     16491.49
  210.55        3337.50           6679        5684.00     24766.08
  210.58        3337.75           6683        7639.00     33302.18
  210.61        3338.00           6686        9074.00     39570.41
  210.63        3338.25           6690       11293.00     49267.57
  210.66        3338.50           6694       13228.00     57727.94
  210.69        3338.75           6698       15336.00     66949.28
  210.72        3339.00           6701       16832.00     73496.35
  210.74        3339.25           6705       18962.00     82822.19
  210.77        3339.50           6709       21037.00     91911.91
  210.80        3339.75           6713       22995.00    100493.40
  210.83        3340.00           6716       24711.00    108017.60
  210.85        3340.25           6720       26819.00    117265.00
  210.88        3340.50           6724       28700.00    125520.60
  210.91        3340.75           6728       30986.00    135558.90
  210.94        3341.00           6731       32255.00    141133.80
  210.96        3341.25           6735       33885.00    148297.10
  210.99        3341.50           6739       35189.00    154029.90
  211.02        3341.75           6743       36037.00    157759.00
  211.04        3342.00           6746       36116.00    158106.40
  211.07        3342.25           6750       35871.00    157028.90
  211.10        3342.50           6754       34378.00    150464.30
  211.13        3342.75           6758       32377.00    141669.90
  211.15        3343.00           6761       30733.00    134447.70
  211.18        3343.25           6765       29358.00    128409.40
  211.21        3343.50           6769       27294.00    119349.40
  211.24        3343.75           6773       25225.00    110272.00
  211.26        3344.00           6776       23514.00    102768.70
  211.29        3344.25           6780       21591.00     94339.55
  211.32        3344.50           6784       19445.00     84937.60
  211.35        3344.75           6788       17387.00     75925.85
  211.37        3345.00           6791       15530.00     67798.16
  211.40        3345.25           6795       12928.00     56415.99
  211.43        3345.50           6799       10060.00     43878.64
  211.46        3345.75           6803        7961.00     34708.52
  211.48        3346.00           6806        6422.00     27987.92
  211.51        3346.25           6810        4472.00     19476.18
  211.54        3346.50           6814        3213.00     13982.81
  211.56        3346.75           6818        2182.00      9485.52
  211.59        3347.00           6821        1397.00      6062.06
  211.62        3347.25           6825         476.00      2046.32
  211.65        3347.50           6829          94.00       381.00
  211.67        3347.75           6833          46.00       171.75
  211.70        3348.00           6836          43.00       158.68
  211.73        3348.25           6840          34.00       119.44
  211.75        3348.50           6844          34.00       119.44
  211.78        3348.75           6848          35.00       123.80
  211.81        3349.00           6851          36.00       128.16
  211.84        3349.25           6855          37.00       132.52
  211.86        3349.50           6859          33.00       115.08
  211.89        3349.75           6863          38.00       136.88
  211.92        3350.00           6867          35.00       123.80
  211.95        3350.25           6870          37.00       132.52
  211.97        3350.50           6874          36.00       128.16
  212.00        3350.75           6878          31.00       106.36
  212.03        3351.00           6882          32.00       110.72
HL scan finished at 03:32:39
end
