************************************************************
  HL Scan of (1) Internal mercury lamp
************************************************************
Integration time is 0.2294 seconds per sample
dh130717Tamanrasset 22.79-5.529 3.337806pr865
************************************************************
Dead Time -------------------------  2.8E-08 
Number of Cycles Used -------------  4 
Starting Wavelength (Angstroms) ---  3331 
Final Wavelength (Angstoms) -------  3351 
Wavelength Increment (Angstroms) --  .25 
Filter Wheel #1 Position ---------- (1) Ground quartz diffuser (ND=2.32)
Filter Wheel #2 Position ---------- (0) Clear Aperture



************************************************************
HL scan start time = 03:28:23
Dark Count =  6.1 


Time (GMT)  Wavelength (Ang)  Step Number  Raw Counts  Counts/Second

  208.90        3331.00           6581          27.00        91.11
  209.12        3331.25           6585          31.00       108.54
  209.15        3331.50           6589          30.00       104.19
  209.17        3331.75           6593          32.00       112.90
  209.20        3332.00           6596          29.00        99.83
  209.23        3332.25           6600          30.00       104.19
  209.25        3332.50           6604          29.00        99.83
  209.28        3332.75           6608          26.00        86.75
  209.31        3333.00           6611          40.00       147.78
  209.34        3333.25           6615          32.00       112.90
  209.36        3333.50           6619          37.00       134.70
  209.39        3333.75           6623          36.00       130.34
  209.42        3334.00           6626          33.00       117.26
  209.44        3334.25           6630          33.00       117.26
  209.47        3334.50           6634          39.00       143.42
  209.50        3334.75           6638          32.00       112.90
  209.53        3335.00           6641          40.00       147.78
  209.55        3335.25           6645          47.00       178.29
  209.58        3335.50           6649          43.00       160.86
  209.61        3335.75           6653          61.00       239.32
  209.63        3336.00           6656         157.00       657.82
  209.66        3336.25           6660         494.00      2126.98
  209.69        3336.50           6664        1082.00      4690.68
  209.72        3336.75           6668        2019.00      8776.79
  209.74        3337.00           6671        2643.00     11498.47
  209.77        3337.25           6675        4533.00     19744.57
  209.80        3337.50           6679        6469.00     28195.31
  209.83        3337.75           6683        8730.00     38069.77
  209.85        3338.00           6686       10325.00     45038.89
  209.88        3338.25           6690       12457.00     54358.62
  209.91        3338.50           6694       14729.00     64295.68
  209.93        3338.75           6698       16775.00     73249.03
  209.96        3339.00           6701       18425.00     80472.75
  209.99        3339.25           6705       20549.00     89775.96
  210.02        3339.50           6709       22905.00    100101.00
  210.04        3339.75           6713       25038.00    109453.90
  210.07        3340.00           6716       26585.00    116240.40
  210.10        3340.25           6720       28856.00    126207.60
  210.13        3340.50           6724       31009.00    135662.10
  210.15        3340.75           6728       33001.00    144414.10
  210.18        3341.00           6731       34481.00    150919.30
  210.21        3341.25           6735       36269.00    158781.50
  210.24        3341.50           6739       37613.00    164693.70
  210.26        3341.75           6743       38214.00    167338.00
  210.29        3342.00           6746       37935.00    166110.40
  210.32        3342.25           6750       37545.00    164394.50
  210.34        3342.50           6754       35726.00    156393.50
  210.37        3342.75           6758       33498.00    146598.30
  210.40        3343.00           6761       32082.00    140375.90
  210.43        3343.25           6765       30434.00    133136.60
  210.45        3343.50           6769       28211.00    123376.20
  210.48        3343.75           6773       25912.00    113287.70
  210.51        3344.00           6776       24135.00    105493.80
  210.54        3344.25           6780       22038.00     96300.74
  210.56        3344.50           6784       19848.00     86705.02
  210.59        3344.75           6788       17341.00     75726.66
  210.62        3345.00           6791       15311.00     66842.08
  210.65        3345.25           6795       12816.00     55928.41
  210.67        3345.50           6799       10096.00     44038.14
  210.70        3345.75           6803        7694.00     33544.57
  210.73        3346.00           6806        6052.00     26374.75
  210.76        3346.25           6810        4015.00     17484.15
  210.78        3346.50           6814        2762.00     12017.56
  210.81        3346.75           6818        1876.00      8153.13
  210.84        3347.00           6821        1067.00      4625.27
  210.86        3347.25           6825         292.00      1246.34
  210.89        3347.50           6829          61.00       239.32
  210.92        3347.75           6833          43.00       160.86
  210.95        3348.00           6836          38.00       139.06
  210.97        3348.25           6840          38.00       139.06
  211.00        3348.50           6844          39.00       143.42
  211.03        3348.75           6848          39.00       143.42
  211.05        3349.00           6851          38.00       139.06
  211.08        3349.25           6855          33.00       117.26
  211.11        3349.50           6859          33.00       117.26
  211.14        3349.75           6863          40.00       147.78
  211.16        3350.00           6867          35.00       125.98
  211.19        3350.25           6870          36.00       130.34
  211.22        3350.50           6874          30.00       104.19
  211.24        3350.75           6878          40.00       147.78
  211.27        3351.00           6882          40.00       147.78
HL scan finished at 03:31:54
end
