************************************************************
  HL Scan of (1) Internal mercury lamp
************************************************************
Integration time is 0.2294 seconds per sample
dh280717Tamanrasset 22.79-5.529 3.307216pr865
************************************************************
Dead Time -------------------------  2.8E-08 
Number of Cycles Used -------------  4 
Starting Wavelength (Angstroms) ---  3331 
Final Wavelength (Angstoms) -------  3351 
Wavelength Increment (Angstroms) --  .25 
Filter Wheel #1 Position ---------- (1) Ground quartz diffuser (ND=2.32)
Filter Wheel #2 Position ---------- (0) Clear Aperture



************************************************************
HL scan start time = 03:35:46
Dark Count =  6 


Time (GMT)  Wavelength (Ang)  Step Number  Raw Counts  Counts/Second

  216.28        3331.00           6581          34.00       122.06
  216.50        3331.25           6585          35.00       126.42
  216.53        3331.50           6589          32.00       113.34
  216.56        3331.75           6593          30.00       104.62
  216.58        3332.00           6596          28.00        95.90
  216.61        3332.25           6600          28.00        95.90
  216.64        3332.50           6604          31.00       108.98
  216.67        3332.75           6608          34.00       122.06
  216.69        3333.00           6611          33.00       117.70
  216.72        3333.25           6615          34.00       122.06
  216.75        3333.50           6619          28.00        95.90
  216.77        3333.75           6623          35.00       126.42
  216.80        3334.00           6626          31.00       108.98
  216.83        3334.25           6630          32.00       113.34
  216.86        3334.50           6634          36.00       130.78
  216.88        3334.75           6638          37.00       135.14
  216.91        3335.00           6641          35.00       126.42
  216.94        3335.25           6645          37.00       135.14
  216.96        3335.50           6649          40.00       148.21
  216.99        3335.75           6653          55.00       213.60
  217.02        3336.00           6656         153.00       640.81
  217.05        3336.25           6660         449.00      1931.23
  217.07        3336.50           6664        1001.00      4337.93
  217.10        3336.75           6668        1675.00      7276.98
  217.13        3337.00           6671        2443.00     10626.53
  217.16        3337.25           6675        4237.00     18453.30
  217.18        3337.50           6679        6358.00     27711.12
  217.21        3337.75           6683        8380.00     36541.29
  217.24        3338.00           6686        9899.00     43177.72
  217.26        3338.25           6690       12097.00     52785.02
  217.29        3338.50           6694       14191.00     61942.57
  217.32        3338.75           6698       16366.00     71459.31
  217.35        3339.00           6701       18123.00     79150.82
  217.37        3339.25           6705       20267.00     88540.94
  217.40        3339.50           6709       22639.00     98935.41
  217.43        3339.75           6713       24590.00    107489.60
  217.46        3340.00           6716       26256.00    114797.40
  217.48        3340.25           6720       28508.00    124680.40
  217.51        3340.50           6724       30536.00    133585.00
  217.54        3340.75           6728       32695.00    143069.80
  217.56        3341.00           6731       33893.00    148335.00
  217.59        3341.25           6735       35708.00    156314.80
  217.62        3341.50           6739       37006.00    162023.70
  217.65        3341.75           6743       37564.00    164478.50
  217.67        3342.00           6746       37492.00    164161.70
  217.70        3342.25           6750       36764.00    160959.20
  217.73        3342.50           6754       35040.00    153377.40
  217.76        3342.75           6758       33031.00    144546.40
  217.78        3343.00           6761       31513.00    137876.50
  217.81        3343.25           6765       29801.00    130357.20
  217.84        3343.50           6769       27604.00    120712.50
  217.87        3343.75           6773       25356.00    110849.20
  217.89        3344.00           6776       23848.00    104235.80
  217.92        3344.25           6780       21581.00     94298.34
  217.95        3344.50           6784       19407.00     84773.79
  217.97        3344.75           6788       17077.00     74571.41
  218.00        3345.00           6791       15230.00     66488.10
  218.03        3345.25           6795       12540.00     54721.97
  218.06        3345.50           6799        9721.00     42399.92
  218.08        3345.75           6803        7544.00     32889.91
  218.11        3346.00           6806        5965.00     25995.38
  218.14        3346.25           6810        4118.00     17934.02
  218.17        3346.50           6814        3094.00     13466.28
  218.19        3346.75           6818        2037.00      8855.73
  218.22        3347.00           6821        1167.00      5061.75
  218.25        3347.25           6825         352.00      1508.35
  218.28        3347.50           6829          73.00       292.07
  218.30        3347.75           6833          46.00       174.37
  218.33        3348.00           6836          39.00       143.85
  218.36        3348.25           6840          39.00       143.85
  218.38        3348.50           6844          36.00       130.78
  218.41        3348.75           6848          43.00       161.29
  218.44        3349.00           6851          40.00       148.21
  218.47        3349.25           6855          38.00       139.49
  218.49        3349.50           6859          39.00       143.85
  218.52        3349.75           6863          36.00       130.78
  218.55        3350.00           6867          42.00       156.93
  218.57        3350.25           6870          37.00       135.14
  218.60        3350.50           6874          32.00       113.34
  218.63        3350.75           6878          35.00       126.42
  218.66        3351.00           6882          34.00       122.06
HL scan finished at 03:39:17
end
