************************************************************
  HL Scan of (1) Internal mercury lamp
************************************************************
Integration time is 0.2294 seconds per sample
dh210717Tamanrasset 22.79-5.529 3.246036pr865
************************************************************
Dead Time -------------------------  2.8E-08 
Number of Cycles Used -------------  4 
Starting Wavelength (Angstroms) ---  3331 
Final Wavelength (Angstoms) -------  3351 
Wavelength Increment (Angstroms) --  .25 
Filter Wheel #1 Position ---------- (1) Ground quartz diffuser (ND=2.32)
Filter Wheel #2 Position ---------- (0) Clear Aperture



************************************************************
HL scan start time = 03:32:08
Dark Count =  4.1 


Time (GMT)  Wavelength (Ang)  Step Number  Raw Counts  Counts/Second

  212.65        3331.00           6581          29.00       108.54
  212.87        3331.25           6585          30.00       112.90
  212.89        3331.50           6589          36.00       139.06
  212.92        3331.75           6593          30.00       112.90
  212.95        3332.00           6596          30.00       112.90
  212.97        3332.25           6600          34.00       130.34
  213.00        3332.50           6604          33.00       125.98
  213.03        3332.75           6608          30.00       112.90
  213.06        3333.00           6611          35.00       134.70
  213.08        3333.25           6615          31.00       117.26
  213.11        3333.50           6619          33.00       125.98
  213.14        3333.75           6623          32.00       121.62
  213.17        3334.00           6626          35.00       134.70
  213.19        3334.25           6630          40.00       156.50
  213.22        3334.50           6634          40.00       156.50
  213.25        3334.75           6638          40.00       156.50
  213.27        3335.00           6641          30.00       112.90
  213.30        3335.25           6645          34.00       130.34
  213.33        3335.50           6649          43.00       169.57
  213.36        3335.75           6653          60.00       243.68
  213.38        3336.00           6656         117.00       492.16
  213.41        3336.25           6660         377.00      1625.62
  213.44        3336.50           6664         852.00      3696.55
  213.46        3336.75           6668        1624.00      7062.86
  213.49        3337.00           6671        2175.00      9465.89
  213.52        3337.25           6675        3903.00     17004.17
  213.55        3337.50           6679        5780.00     25196.06
  213.57        3337.75           6683        7772.00     33893.97
  213.60        3338.00           6686        9288.00     40516.30
  213.63        3338.25           6690       11339.00     49479.58
  213.66        3338.50           6694       13296.00     58036.26
  213.68        3338.75           6698       15398.00     67231.50
  213.71        3339.00           6701       16904.00     73822.45
  213.74        3339.25           6705       19066.00     83288.61
  213.76        3339.50           6709       21360.00     93338.22
  213.79        3339.75           6713       23134.00    101113.70
  213.82        3340.00           6716       24872.00    108734.70
  213.85        3340.25           6720       26805.00    117214.50
  213.87        3340.50           6724       28872.00    126286.70
  213.90        3340.75           6728       30821.00    134845.10
  213.93        3341.00           6731       32001.00    140028.80
  213.96        3341.25           6735       33670.00    147363.10
  213.98        3341.50           6739       34950.00    152990.10
  214.01        3341.75           6743       35463.00    155245.70
  214.04        3342.00           6746       35404.00    154986.30
  214.07        3342.25           6750       35039.00    153381.40
  214.09        3342.50           6754       33463.00    146453.30
  214.12        3342.75           6758       31354.00    137186.40
  214.15        3343.00           6761       29985.00    131173.60
  214.18        3343.25           6765       28476.00    124548.20
  214.20        3343.50           6769       26322.00    115095.30
  214.23        3343.75           6773       24427.00    106783.10
  214.26        3344.00           6776       22822.00     99745.94
  214.28        3344.25           6780       20881.00     91239.34
  214.31        3344.50           6784       18874.00     82447.75
  214.34        3344.75           6788       16681.00     72846.35
  214.37        3345.00           6791       14794.00     64588.81
  214.39        3345.25           6795       12248.00     53453.53
  214.42        3345.50           6799        9639.00     42049.92
  214.45        3345.75           6803        7492.00     32671.11
  214.48        3346.00           6806        6043.00     26344.19
  214.50        3346.25           6810        4148.00     18073.22
  214.53        3346.50           6814        3034.00     13212.82
  214.56        3346.75           6818        2038.00      8868.37
  214.59        3347.00           6821        1254.00      5449.39
  214.61        3347.25           6825         430.00      1856.68
  214.64        3347.50           6829          88.00       365.74
  214.67        3347.75           6833          43.00       169.57
  214.69        3348.00           6836          38.00       147.78
  214.72        3348.25           6840          35.00       134.70
  214.75        3348.50           6844          39.00       152.14
  214.78        3348.75           6848          30.00       112.90
  214.80        3349.00           6851          36.00       139.06
  214.83        3349.25           6855          29.00       108.54
  214.86        3349.50           6859          33.00       125.98
  214.89        3349.75           6863          35.00       134.70
  214.91        3350.00           6867          35.00       134.70
  214.94        3350.25           6870          37.00       143.42
  214.97        3350.50           6874          39.00       152.14
  215.00        3350.75           6878          40.00       156.50
  215.02        3351.00           6882          36.00       139.06
HL scan finished at 03:35:39
end
