************************************************************
  HL Scan of (1) Internal mercury lamp
************************************************************
Integration time is 0.2294 seconds per sample
dh220717Tamanrasset 22.79-5.529 3.460166pr865
************************************************************
Dead Time -------------------------  2.8E-08 
Number of Cycles Used -------------  4 
Starting Wavelength (Angstroms) ---  3331 
Final Wavelength (Angstoms) -------  3351 
Wavelength Increment (Angstroms) --  .25 
Filter Wheel #1 Position ---------- (1) Ground quartz diffuser (ND=2.32)
Filter Wheel #2 Position ---------- (0) Clear Aperture



************************************************************
HL scan start time = 03:32:11
Dark Count =  6.6 


Time (GMT)  Wavelength (Ang)  Step Number  Raw Counts  Counts/Second

  212.70        3331.00           6581          29.00        97.65
  212.91        3331.25           6585          37.00       132.52
  212.94        3331.50           6589          30.00       102.01
  212.97        3331.75           6593          30.00       102.01
  213.00        3332.00           6596          31.00       106.36
  213.02        3332.25           6600          34.00       119.44
  213.05        3332.50           6604          30.00       102.01
  213.08        3332.75           6608          43.00       158.68
  213.11        3333.00           6611          34.00       119.44
  213.13        3333.25           6615          33.00       115.08
  213.16        3333.50           6619          37.00       132.52
  213.19        3333.75           6623          33.00       115.08
  213.21        3334.00           6626          32.00       110.72
  213.24        3334.25           6630          36.00       128.16
  213.27        3334.50           6634          32.00       110.72
  213.30        3334.75           6638          28.00        93.29
  213.32        3335.00           6641          35.00       123.80
  213.35        3335.25           6645          36.00       128.16
  213.38        3335.50           6649          42.00       154.32
  213.40        3335.75           6653          61.00       237.14
  213.43        3336.00           6656         163.00       681.79
  213.46        3336.25           6660         507.00      2181.48
  213.49        3336.50           6664        1326.00      5752.45
  213.51        3336.75           6668        2397.00     10423.27
  213.54        3337.00           6671        2723.00     11845.25
  213.57        3337.25           6675        4645.00     20231.16
  213.60        3337.50           6679        6797.00     29625.26
  213.62        3337.75           6683        9100.00     39684.01
  213.65        3338.00           6686       10914.00     47610.95
  213.68        3338.25           6690       13117.00     57242.51
  213.70        3338.50           6694       15584.00     68034.46
  213.73        3338.75           6698       17740.00     77471.28
  213.76        3339.00           6701       19665.00     85901.22
  213.79        3339.25           6705       21907.00     95724.41
  213.81        3339.50           6709       24242.00    105960.80
  213.84        3339.75           6713       26744.00    116935.90
  213.87        3340.00           6716       28784.00    125889.40
  213.90        3340.25           6720       30882.00    135102.10
  213.92        3340.50           6724       33150.00    145066.70
  213.95        3340.75           6728       35319.00    154601.50
  213.98        3341.00           6731       37328.00    163437.60
  214.01        3341.25           6735       39063.00    171072.10
  214.03        3341.50           6739       40179.00    175984.50
  214.06        3341.75           6743       41155.00    180281.80
  214.09        3342.00           6746       40936.00    179317.40
  214.11        3342.25           6750       40478.00    177300.90
  214.14        3342.50           6754       38443.00    168343.50
  214.17        3342.75           6758       35914.00    157218.00
  214.20        3343.00           6761       34581.00    151356.80
  214.22        3343.25           6765       32304.00    141349.10
  214.25        3343.50           6769       30416.00    133055.40
  214.28        3343.75           6773       28075.00    122777.10
  214.31        3344.00           6776       26069.00    113974.30
  214.33        3344.25           6780       24045.00    105097.00
  214.36        3344.50           6784       21578.00     94282.57
  214.39        3344.75           6788       19015.00     83054.31
  214.41        3345.00           6791       16924.00     73899.05
  214.44        3345.25           6795       14442.00     63037.94
  214.47        3345.50           6799       11035.00     48139.83
  214.50        3345.75           6803        8681.00     37853.53
  214.52        3346.00           6806        6980.00     30424.34
  214.55        3346.25           6810        4819.00     20990.54
  214.58        3346.50           6814        3211.00     13974.08
  214.61        3346.75           6818        2191.00      9524.77
  214.63        3347.00           6821        1429.00      6201.60
  214.66        3347.25           6825         475.00      2041.97
  214.69        3347.50           6829         103.00       420.23
  214.72        3347.75           6833          40.00       145.60
  214.74        3348.00           6836          43.00       158.68
  214.77        3348.25           6840          39.00       141.24
  214.80        3348.50           6844          44.00       163.03
  214.82        3348.75           6848          34.00       119.44
  214.85        3349.00           6851          34.00       119.44
  214.88        3349.25           6855          38.00       136.88
  214.91        3349.50           6859          40.00       145.60
  214.93        3349.75           6863          38.00       136.88
  214.96        3350.00           6867          38.00       136.88
  214.99        3350.25           6870          38.00       136.88
  215.01        3350.50           6874          41.00       149.96
  215.04        3350.75           6878          41.00       149.96
  215.07        3351.00           6882          43.00       158.68
HL scan finished at 03:35:41
end
