************************************************************
  HL Scan of (1) Internal mercury lamp
************************************************************
Integration time is 0.2294 seconds per sample
dh270717Tamanrasset 22.79-5.529 3.348003pr865
************************************************************
Dead Time -------------------------  2.8E-08 
Number of Cycles Used -------------  4 
Starting Wavelength (Angstroms) ---  3331 
Final Wavelength (Angstoms) -------  3351 
Wavelength Increment (Angstroms) --  .25 
Filter Wheel #1 Position ---------- (1) Ground quartz diffuser (ND=2.32)
Filter Wheel #2 Position ---------- (0) Clear Aperture



************************************************************
HL scan start time = 03:34:11
Dark Count =  4.7 


Time (GMT)  Wavelength (Ang)  Step Number  Raw Counts  Counts/Second

  214.70        3331.00           6581          38.00       145.16
  214.92        3331.25           6585          32.00       119.01
  214.94        3331.50           6589          31.00       114.65
  214.97        3331.75           6593          33.00       123.37
  215.00        3332.00           6596          33.00       123.37
  215.02        3332.25           6600          27.00        97.21
  215.05        3332.50           6604          28.00       101.57
  215.08        3332.75           6608          33.00       123.37
  215.11        3333.00           6611          29.00       105.93
  215.13        3333.25           6615          35.00       132.08
  215.16        3333.50           6619          35.00       132.08
  215.19        3333.75           6623          33.00       123.37
  215.21        3334.00           6626          34.00       127.72
  215.24        3334.25           6630          35.00       132.08
  215.27        3334.50           6634          26.00        92.85
  215.30        3334.75           6638          38.00       145.16
  215.32        3335.00           6641          30.00       110.29
  215.35        3335.25           6645          38.00       145.16
  215.38        3335.50           6649          40.00       153.88
  215.41        3335.75           6653          66.00       267.22
  215.43        3336.00           6656         159.00       672.64
  215.46        3336.25           6660         508.00      2194.12
  215.49        3336.50           6664        1219.00      5294.16
  215.51        3336.75           6668        1975.00      8590.99
  215.54        3337.00           6671        2616.00     11386.80
  215.57        3337.25           6675        4532.00     19746.31
  215.60        3337.50           6679        6442.00     28083.54
  215.62        3337.75           6683        8684.00     37874.93
  215.65        3338.00           6686       10174.00     44385.12
  215.68        3338.25           6690       12362.00     53949.35
  215.71        3338.50           6694       14602.00     63746.20
  215.73        3338.75           6698       16830.00     73495.91
  215.76        3339.00           6701       18614.00     81306.52
  215.79        3339.25           6705       20818.00     90960.66
  215.81        3339.50           6709       23176.00    101295.20
  215.84        3339.75           6713       25208.00    110205.70
  215.87        3340.00           6716       26822.00    117286.50
  215.90        3340.25           6720       29063.00    127122.60
  215.92        3340.50           6724       31324.00    137052.00
  215.95        3340.75           6728       33305.00    145756.30
  215.98        3341.00           6731       34838.00    152495.00
  216.01        3341.25           6735       36494.00    159777.30
  216.03        3341.50           6739       37985.00    166336.60
  216.06        3341.75           6743       38595.00    169020.80
  216.09        3342.00           6746       38326.00    167837.00
  216.12        3342.25           6750       38061.00    166671.00
  216.14        3342.50           6754       36228.00    158607.40
  216.17        3342.75           6758       33815.00    147997.80
  216.20        3343.00           6761       32381.00    141695.80
  216.23        3343.25           6765       30852.00    134978.70
  216.25        3343.50           6769       28681.00    125445.50
  216.28        3343.75           6773       26371.00    115307.60
  216.31        3344.00           6776       24780.00    108328.50
  216.33        3344.25           6780       22550.00     98551.00
  216.36        3344.50           6784       20416.00     89199.40
  216.39        3344.75           6788       17853.00     77974.34
  216.42        3345.00           6791       15957.00     69675.03
  216.44        3345.25           6795       13338.00     58217.32
  216.47        3345.50           6799       10385.00     45307.23
  216.50        3345.75           6803        8001.00     34891.52
  216.53        3346.00           6806        6416.00     27970.02
  216.55        3346.25           6810        4356.00     18978.26
  216.58        3346.50           6814        3024.00     13166.58
  216.61        3346.75           6818        2214.00      9633.37
  216.63        3347.00           6821        1314.00      5708.41
  216.66        3347.25           6825         419.00      1806.11
  216.69        3347.50           6829          74.00       302.10
  216.72        3347.75           6833          43.00       166.96
  216.74        3348.00           6836          41.00       158.24
  216.77        3348.25           6840          40.00       153.88
  216.80        3348.50           6844          41.00       158.24
  216.83        3348.75           6848          39.00       149.52
  216.85        3349.00           6851          37.00       140.80
  216.88        3349.25           6855          37.00       140.80
  216.91        3349.50           6859          37.00       140.80
  216.93        3349.75           6863          40.00       153.88
  216.96        3350.00           6867          32.00       119.01
  216.99        3350.25           6870          31.00       114.65
  217.02        3350.50           6874          38.00       145.16
  217.04        3350.75           6878          39.00       149.52
  217.07        3351.00           6882          35.00       132.08
HL scan finished at 03:37:42
end
