************************************************************
  HL Scan of (1) Internal mercury lamp
************************************************************
Integration time is 0.2294 seconds per sample
dh200717Tamanrasset 22.79-5.529 3.353101pr865
************************************************************
Dead Time -------------------------  2.8E-08 
Number of Cycles Used -------------  4 
Starting Wavelength (Angstroms) ---  3331 
Final Wavelength (Angstoms) -------  3351 
Wavelength Increment (Angstroms) --  .25 
Filter Wheel #1 Position ---------- (1) Ground quartz diffuser (ND=2.32)
Filter Wheel #2 Position ---------- (0) Clear Aperture



************************************************************
HL scan start time = 03:31:11
Dark Count =  6.7 


Time (GMT)  Wavelength (Ang)  Step Number  Raw Counts  Counts/Second

  211.69        3331.00           6581          32.00       110.29
  211.91        3331.25           6585          32.00       110.29
  211.93        3331.50           6589          36.00       127.72
  211.96        3331.75           6593          35.00       123.37
  211.99        3332.00           6596          30.00       101.57
  212.01        3332.25           6600          30.00       101.57
  212.04        3332.50           6604          32.00       110.29
  212.07        3332.75           6608          38.00       136.44
  212.10        3333.00           6611          38.00       136.44
  212.12        3333.25           6615          30.00       101.57
  212.15        3333.50           6619          26.00        84.13
  212.18        3333.75           6623          32.00       110.29
  212.21        3334.00           6626          29.00        97.21
  212.23        3334.25           6630          35.00       123.37
  212.26        3334.50           6634          31.00       105.93
  212.29        3334.75           6638          35.00       123.37
  212.31        3335.00           6641          33.00       114.65
  212.34        3335.25           6645          42.00       153.88
  212.37        3335.50           6649          43.00       158.24
  212.40        3335.75           6653          61.00       236.71
  212.42        3336.00           6656         150.00       624.68
  212.45        3336.25           6660         461.00      1980.49
  212.48        3336.50           6664        1109.00      4805.79
  212.50        3336.75           6668        1989.00      8643.33
  212.53        3337.00           6671        2553.00     11103.28
  212.56        3337.25           6675        4508.00     19632.85
  212.59        3337.50           6679        6494.00     28301.84
  212.61        3337.75           6683        8632.00     37639.04
  212.64        3338.00           6686       10353.00     45158.64
  212.67        3338.25           6690       12499.00     54539.64
  212.69        3338.50           6694       14681.00     64083.06
  212.72        3338.75           6698       16893.00     73762.91
  212.75        3339.00           6701       18474.00     80684.70
  212.78        3339.25           6705       20942.00     91495.22
  212.80        3339.50           6709       23247.00    101597.70
  212.83        3339.75           6713       25625.00    112026.10
  212.86        3340.00           6716       26984.00    117988.60
  212.89        3340.25           6720       29324.00    128259.70
  212.91        3340.50           6724       31594.00    138229.30
  212.94        3340.75           6728       33602.00    147052.80
  212.97        3341.00           6731       35041.00    153378.70
  213.00        3341.25           6735       36845.00    161312.40
  213.02        3341.50           6739       38219.00    167357.40
  213.05        3341.75           6743       38722.00    169570.90
  213.08        3342.00           6746       38829.00    170041.80
  213.11        3342.25           6750       38296.00    167696.20
  213.13        3342.50           6754       36346.00    159117.50
  213.16        3342.75           6758       34181.00    149597.90
  213.19        3343.00           6761       32296.00    141313.50
  213.21        3343.25           6765       30750.00    134521.90
  213.24        3343.50           6769       28657.00    125331.40
  213.27        3343.75           6773       26500.00    115864.80
  213.30        3344.00           6776       24546.00    107293.50
  213.32        3344.25           6780       22557.00     98572.92
  213.35        3344.50           6784       20378.00     89024.16
  213.38        3344.75           6788       17915.00     78237.03
  213.41        3345.00           6791       15611.00     68152.16
  213.43        3345.25           6795       13132.00     57307.67
  213.46        3345.50           6799       10123.00     44153.51
  213.49        3345.75           6803        7765.00     33852.04
  213.52        3346.00           6806        6134.00     26730.11
  213.54        3346.25           6810        4086.00     17791.34
  213.57        3346.50           6814        2895.00     12595.11
  213.60        3346.75           6818        1860.00      8080.73
  213.63        3347.00           6821        1099.00      4762.19
  213.65        3347.25           6825         350.00      1496.58
  213.68        3347.50           6829          74.00       293.38
  213.71        3347.75           6833          44.00       162.60
  213.73        3348.00           6836          42.00       153.88
  213.76        3348.25           6840          38.00       136.44
  213.79        3348.50           6844          32.00       110.29
  213.82        3348.75           6848          36.00       127.72
  213.84        3349.00           6851          37.00       132.08
  213.87        3349.25           6855          42.00       153.88
  213.90        3349.50           6859          37.00       132.08
  213.92        3349.75           6863          33.00       114.65
  213.95        3350.00           6867          38.00       136.44
  213.98        3350.25           6870          40.00       145.16
  214.01        3350.50           6874          39.00       140.80
  214.03        3350.75           6878          40.00       145.16
  214.06        3351.00           6882          36.00       127.72
HL scan finished at 03:34:41
end
