************************************************************
  HL Scan of (1) Internal mercury lamp
************************************************************
Integration time is 0.2294 seconds per sample
dh230717Tamanrasset 22.79-5.529 3.332708pr865
************************************************************
Dead Time -------------------------  2.8E-08 
Number of Cycles Used -------------  4 
Starting Wavelength (Angstroms) ---  3331 
Final Wavelength (Angstoms) -------  3351 
Wavelength Increment (Angstroms) --  .25 
Filter Wheel #1 Position ---------- (1) Ground quartz diffuser (ND=2.32)
Filter Wheel #2 Position ---------- (0) Clear Aperture



************************************************************
HL scan start time = 03:33:09
Dark Count =  5.9 


Time (GMT)  Wavelength (Ang)  Step Number  Raw Counts  Counts/Second

  213.67        3331.00           6581          40.00       148.65
  213.88        3331.25           6585          27.00        91.98
  213.91        3331.50           6589          29.00       100.70
  213.94        3331.75           6593          35.00       126.85
  213.97        3332.00           6596          34.00       122.49
  213.99        3332.25           6600          31.00       109.42
  214.02        3332.50           6604          34.00       122.49
  214.05        3332.75           6608          33.00       118.13
  214.07        3333.00           6611          35.00       126.85
  214.10        3333.25           6615          32.00       113.78
  214.13        3333.50           6619          37.00       135.57
  214.16        3333.75           6623          30.00       105.06
  214.18        3334.00           6626          30.00       105.06
  214.21        3334.25           6630          34.00       122.49
  214.24        3334.50           6634          38.00       139.93
  214.26        3334.75           6638          33.00       118.13
  214.29        3335.00           6641          41.00       153.01
  214.32        3335.25           6645          42.00       157.37
  214.35        3335.50           6649          41.00       153.01
  214.37        3335.75           6653          71.00       283.79
  214.40        3336.00           6656         179.00       754.59
  214.43        3336.25           6660         548.00      2363.28
  214.46        3336.50           6664        1120.00      4857.24
  214.48        3336.75           6668        1947.00      8463.64
  214.51        3337.00           6671        2753.00     11979.17
  214.54        3337.25           6675        4711.00     20522.25
  214.57        3337.50           6679        6790.00     29597.76
  214.59        3337.75           6683        8971.00     39123.48
  214.62        3338.00           6686       10533.00     45948.79
  214.65        3338.25           6690       12667.00     55277.74
  214.67        3338.50           6694       14792.00     64572.17
  214.70        3338.75           6698       17058.00     74488.68
  214.73        3339.00           6701       18533.00     80946.55
  214.76        3339.25           6705       21042.00     91936.88
  214.78        3339.50           6709       23303.00    101846.70
  214.81        3339.75           6713       25264.00    110446.10
  214.84        3340.00           6716       26995.00    118040.30
  214.87        3340.25           6720       29236.00    127876.90
  214.89        3340.50           6724       31267.00    136796.30
  214.92        3340.75           6728       33287.00    145671.90
  214.95        3341.00           6731       34745.00    152080.90
  214.98        3341.25           6735       36569.00    160101.90
  215.00        3341.50           6739       37766.00    165367.70
  215.03        3341.75           6743       38322.00    167814.10
  215.06        3342.00           6746       38184.00    167206.90
  215.09        3342.25           6750       37404.00    163775.00
  215.11        3342.50           6754       35547.00    155607.20
  215.14        3342.75           6758       33438.00    146335.50
  215.17        3343.00           6761       32036.00    140174.60
  215.20        3343.25           6765       30106.00    131697.00
  215.22        3343.50           6769       27919.00    122095.40
  215.25        3343.75           6773       25793.00    112766.60
  215.28        3344.00           6776       23851.00    104249.40
  215.30        3344.25           6780       21824.00     95363.71
  215.33        3344.50           6784       19588.00     85567.01
  215.36        3344.75           6788       17218.00     75189.08
  215.39        3345.00           6791       15184.00     66287.26
  215.41        3345.25           6795       12661.00     55251.50
  215.44        3345.50           6799        9653.00     42103.23
  215.47        3345.75           6803        7436.00     32418.69
  215.50        3346.00           6806        5773.00     25157.65
  215.52        3346.25           6810        3875.00     16874.15
  215.55        3346.50           6814        2798.00     12175.47
  215.58        3346.75           6818        1731.00      7521.64
  215.61        3347.00           6821         906.00      3924.15
  215.63        3347.25           6825         250.00      1064.11
  215.66        3347.50           6829          61.00       240.19
  215.69        3347.75           6833          42.00       157.37
  215.71        3348.00           6836          37.00       135.57
  215.74        3348.25           6840          35.00       126.85
  215.77        3348.50           6844          41.00       153.01
  215.80        3348.75           6848          33.00       118.13
  215.82        3349.00           6851          37.00       135.57
  215.85        3349.25           6855          38.00       139.93
  215.88        3349.50           6859          39.00       144.29
  215.91        3349.75           6863          35.00       126.85
  215.93        3350.00           6867          32.00       113.78
  215.96        3350.25           6870          39.00       144.29
  215.99        3350.50           6874          37.00       135.57
  216.01        3350.75           6878          43.00       161.73
  216.04        3351.00           6882          39.00       144.29
HL scan finished at 03:36:40
end
