************************************************************
  HL Scan of (1) Internal mercury lamp
************************************************************
Integration time is 0.2294 seconds per sample
dh280718Tamanrasset 22.79-5.529 4.974364pr865
************************************************************
Dead Time -------------------------  2.8E-08 
Number of Cycles Used -------------  4 
Starting Wavelength (Angstroms) ---  3331 
Final Wavelength (Angstoms) -------  3351 
Wavelength Increment (Angstroms) --  .25 
Filter Wheel #1 Position ---------- (1) Ground quartz diffuser (ND=2.32)
Filter Wheel #2 Position ---------- (0) Clear Aperture



************************************************************
HL scan start time = 03:35:22
Dark Count =  6.6 


Time (GMT)  Wavelength (Ang)  Step Number  Raw Counts  Counts/Second

  215.87        3331.00           6581          32.00       110.72
  216.09        3331.25           6585          38.00       136.88
  216.12        3331.50           6589          37.00       132.52
  216.15        3331.75           6593          36.00       128.16
  216.17        3332.00           6596          33.00       115.08
  216.20        3332.25           6600          36.00       128.16
  216.23        3332.50           6604          34.00       119.44
  216.26        3332.75           6608          36.00       128.16
  216.28        3333.00           6611          33.00       115.08
  216.31        3333.25           6615          39.00       141.24
  216.34        3333.50           6619          27.00        88.93
  216.36        3333.75           6623          35.00       123.80
  216.39        3334.00           6626          36.00       128.16
  216.42        3334.25           6630          35.00       123.80
  216.45        3334.50           6634          36.00       128.16
  216.47        3334.75           6638          40.00       145.60
  216.50        3335.00           6641          33.00       115.08
  216.53        3335.25           6645          36.00       128.16
  216.55        3335.50           6649          40.00       145.60
  216.58        3335.75           6653          50.00       189.19
  216.61        3336.00           6656         159.00       664.35
  216.64        3336.25           6660         537.00      2312.27
  216.66        3336.50           6664        1375.00      5966.12
  216.69        3336.75           6668        2490.00     10828.92
  216.72        3337.00           6671        3074.00     13376.41
  216.74        3337.25           6675        4895.00     21322.23
  216.77        3337.50           6679        7097.00     30935.24
  216.80        3337.75           6683        9320.00     40645.19
  216.83        3338.00           6686       11163.00     48699.32
  216.85        3338.25           6690       13489.00     58869.42
  216.88        3338.50           6694       15652.00     68332.01
  216.91        3338.75           6698       18055.00     78850.46
  216.94        3339.00           6701       19901.00     86934.99
  216.96        3339.25           6705       22381.00     97801.90
  216.99        3339.50           6709       24618.00    107609.70
  217.02        3339.75           6713       27276.00    119270.40
  217.05        3340.00           6716       29067.00    127131.80
  217.07        3340.25           6720       31316.00    137008.50
  217.10        3340.50           6724       33774.00    147809.30
  217.13        3340.75           6728       36058.00    157851.30
  217.16        3341.00           6731       37328.00    163437.60
  217.18        3341.25           6735       39235.00    171829.10
  217.21        3341.50           6739       40610.00    177882.00
  217.24        3341.75           6743       40953.00    179392.30
  217.26        3342.00           6746       40858.00    178974.00
  217.29        3342.25           6750       40208.00    176112.20
  217.32        3342.50           6754       38782.00    169835.40
  217.35        3342.75           6758       36391.00    159315.90
  217.37        3343.00           6761       34757.00    152130.50
  217.40        3343.25           6765       32307.00    141362.30
  217.43        3343.50           6769       30168.00    131966.30
  217.46        3343.75           6773       27588.00    120639.60
  217.48        3344.00           6776       26068.00    113969.90
  217.51        3344.25           6780       23710.00    103628.10
  217.54        3344.50           6784       21284.00     92994.22
  217.57        3344.75           6788       18867.00     82406.15
  217.59        3345.00           6791       17081.00     74586.30
  217.62        3345.25           6795       14753.00     64398.50
  217.65        3345.50           6799       11977.00     52257.75
  217.67        3345.75           6803        8436.00     36783.29
  217.70        3346.00           6806        6669.00     29066.37
  217.73        3346.25           6810        4395.00     19140.16
  217.76        3346.50           6814        2664.00     11587.89
  217.78        3346.75           6818        1717.00      7457.53
  217.81        3347.00           6821        1086.00      4705.94
  217.84        3347.25           6825         330.00      1409.82
  217.87        3347.50           6829          75.00       298.17
  217.89        3347.75           6833          45.00       167.39
  217.92        3348.00           6836          40.00       145.60
  217.95        3348.25           6840          36.00       128.16
  217.97        3348.50           6844          41.00       149.96
  218.00        3348.75           6848          43.00       158.68
  218.03        3349.00           6851          32.00       110.72
  218.05        3349.25           6855          40.00       145.60
  218.08        3349.50           6859          41.00       149.96
  218.11        3349.75           6863          40.00       145.60
  218.14        3350.00           6867          40.00       145.60
  218.16        3350.25           6870          44.00       163.03
  218.19        3350.50           6874          38.00       136.88
  218.22        3350.75           6878          41.00       149.96
  218.24        3351.00           6882          38.00       136.88
HL scan finished at 03:38:52
end
