************************************************************
  HL Scan of (1) Internal mercury lamp
************************************************************
Integration time is 0.2294 seconds per sample
dh260717Tamanrasset 22.79-5.529 3.179758pr865
************************************************************
Dead Time -------------------------  2.8E-08 
Number of Cycles Used -------------  4 
Starting Wavelength (Angstroms) ---  3331 
Final Wavelength (Angstoms) -------  3351 
Wavelength Increment (Angstroms) --  .25 
Filter Wheel #1 Position ---------- (1) Ground quartz diffuser (ND=2.32)
Filter Wheel #2 Position ---------- (0) Clear Aperture



************************************************************
HL scan start time = 03:34:09
Dark Count =  5.2 


Time (GMT)  Wavelength (Ang)  Step Number  Raw Counts  Counts/Second

  214.66        3331.00           6581          34.00       125.55
  214.88        3331.25           6585          31.00       112.47
  214.91        3331.50           6589          36.00       134.26
  214.94        3331.75           6593          33.00       121.19
  214.96        3332.00           6596          30.00       108.11
  214.99        3332.25           6600          26.00        90.67
  215.02        3332.50           6604          31.00       112.47
  215.05        3332.75           6608          28.00        99.39
  215.07        3333.00           6611          24.00        81.95
  215.10        3333.25           6615          31.00       112.47
  215.13        3333.50           6619          28.00        99.39
  215.15        3333.75           6623          30.00       108.11
  215.18        3334.00           6626          31.00       112.47
  215.21        3334.25           6630          24.00        81.95
  215.24        3334.50           6634          28.00        99.39
  215.26        3334.75           6638          32.00       116.83
  215.29        3335.00           6641          34.00       125.55
  215.32        3335.25           6645          36.00       134.26
  215.34        3335.50           6649          41.00       156.06
  215.37        3335.75           6653          50.00       195.29
  215.40        3336.00           6656         104.00       430.69
  215.43        3336.25           6660         363.00      1559.79
  215.45        3336.50           6664         827.00      3582.75
  215.48        3336.75           6668        1544.00      6709.19
  215.51        3337.00           6671        1988.00      8645.51
  215.53        3337.25           6675        3550.00     15459.18
  215.56        3337.50           6679        5399.00     23528.14
  215.59        3337.75           6683        7296.00     31810.36
  215.62        3338.00           6686        8837.00     38541.13
  215.64        3338.25           6690       10844.00     47311.11
  215.67        3338.50           6694       12583.00     54913.49
  215.70        3338.75           6698       14678.00     64076.50
  215.73        3339.00           6701       16072.00     70176.11
  215.75        3339.25           6705       18159.00     79311.96
  215.78        3339.50           6709       20241.00     88430.55
  215.81        3339.75           6713       22080.00     96488.76
  215.84        3340.00           6716       23663.00    103428.10
  215.86        3340.25           6720       25486.00    111422.90
  215.89        3340.50           6724       27527.00    120378.00
  215.92        3340.75           6728       29364.00    128441.90
  215.95        3341.00           6731       30800.00    134748.10
  215.97        3341.25           6735       32376.00    141671.60
  216.00        3341.50           6739       33666.00    147340.70
  216.03        3341.75           6743       34281.00    150044.10
  216.05        3342.00           6746       34541.00    151187.10
  216.08        3342.25           6750       34109.00    149287.90
  216.11        3342.50           6754       32658.00    142910.70
  216.14        3342.75           6758       30706.00    134335.20
  216.16        3343.00           6761       29335.00    128314.60
  216.19        3343.25           6765       27741.00    121317.30
  216.22        3343.50           6769       25874.00    113125.00
  216.25        3343.75           6773       23896.00    104449.80
  216.27        3344.00           6776       22298.00     97444.24
  216.30        3344.25           6780       20471.00     89438.18
  216.33        3344.50           6784       18477.00     80704.40
  216.36        3344.75           6788       16528.00     72171.86
  216.38        3345.00           6791       14605.00     63757.14
  216.41        3345.25           6795       12079.00     52709.83
  216.44        3345.50           6799        9702.00     42320.39
  216.46        3345.75           6803        7524.00     32806.06
  216.49        3346.00           6806        5889.00     25667.09
  216.52        3346.25           6810        4060.00     17684.43
  216.55        3346.50           6814        2792.00     12152.35
  216.57        3346.75           6818        1936.00      8418.72
  216.60        3347.00           6821        1183.00      5135.00
  216.63        3347.25           6825         381.00      1638.26
  216.66        3347.50           6829          79.00       321.71
  216.68        3347.75           6833          50.00       195.29
  216.71        3348.00           6836          39.00       147.34
  216.74        3348.25           6840          40.00       151.70
  216.76        3348.50           6844          30.00       108.11
  216.79        3348.75           6848          36.00       134.26
  216.82        3349.00           6851          34.00       125.55
  216.85        3349.25           6855          32.00       116.83
  216.87        3349.50           6859          32.00       116.83
  216.90        3349.75           6863          36.00       134.26
  216.93        3350.00           6867          38.00       142.98
  216.95        3350.25           6870          35.00       129.90
  216.98        3350.50           6874          34.00       125.55
  217.01        3350.75           6878          30.00       108.11
  217.04        3351.00           6882          34.00       125.55
HL scan finished at 03:37:40
end
