************************************************************
  HL Scan of (1) Internal mercury lamp
************************************************************
Integration time is 0.2294 seconds per sample
dh270718Tamanrasset 22.79-5.529 4.974364pr865
************************************************************
Dead Time -------------------------  2.8E-08 
Number of Cycles Used -------------  4 
Starting Wavelength (Angstroms) ---  3331 
Final Wavelength (Angstoms) -------  3351 
Wavelength Increment (Angstroms) --  .25 
Filter Wheel #1 Position ---------- (1) Ground quartz diffuser (ND=2.32)
Filter Wheel #2 Position ---------- (0) Clear Aperture



************************************************************
HL scan start time = 03:34:07
Dark Count =  6.2 


Time (GMT)  Wavelength (Ang)  Step Number  Raw Counts  Counts/Second

  214.63        3331.00           6581          30.00       103.75
  214.85        3331.25           6585          26.00        86.31
  214.88        3331.50           6589          35.00       125.55
  214.91        3331.75           6593          32.00       112.47
  214.93        3332.00           6596          36.00       129.90
  214.96        3332.25           6600          31.00       108.11
  214.99        3332.50           6604          34.00       121.19
  215.01        3332.75           6608          32.00       112.47
  215.04        3333.00           6611          35.00       125.55
  215.07        3333.25           6615          30.00       103.75
  215.10        3333.50           6619          31.00       108.11
  215.12        3333.75           6623          27.00        90.67
  215.15        3334.00           6626          35.00       125.55
  215.18        3334.25           6630          31.00       108.11
  215.20        3334.50           6634          32.00       112.47
  215.23        3334.75           6638          35.00       125.55
  215.26        3335.00           6641          40.00       147.34
  215.29        3335.25           6645          38.00       138.62
  215.31        3335.50           6649          44.00       164.78
  215.34        3335.75           6653          48.00       182.22
  215.37        3336.00           6656          94.00       382.74
  215.40        3336.25           6660         401.00      1721.09
  215.42        3336.50           6664        1274.00      5527.45
  215.45        3336.75           6668        2330.00     10132.78
  215.48        3337.00           6671        2850.00     12400.99
  215.51        3337.25           6675        4680.00     20385.65
  215.53        3337.50           6679        6848.00     29849.70
  215.56        3337.75           6683        8906.00     38838.20
  215.59        3338.00           6686       10515.00     45868.82
  215.62        3338.25           6690       12513.00     54603.04
  215.64        3338.50           6694       14775.00     64496.49
  215.67        3338.75           6698       17008.00     74268.50
  215.70        3339.00           6701       18670.00     81545.18
  215.72        3339.25           6705       20745.00     90634.25
  215.75        3339.50           6709       23193.00    101363.10
  215.78        3339.75           6713       25237.00    110326.40
  215.81        3340.00           6716       26825.00    117293.00
  215.83        3340.25           6720       28973.00    126720.90
  215.86        3340.50           6724       31130.00    136193.20
  215.89        3340.75           6728       33163.00    145125.60
  215.92        3341.00           6731       34659.00    151701.40
  215.94        3341.25           6735       36360.00    159181.30
  215.97        3341.50           6739       37409.00    163795.70
  216.00        3341.75           6743       37895.00    165933.90
  216.03        3342.00           6746       37709.00    165115.60
  216.05        3342.25           6750       37056.00    162242.80
  216.08        3342.50           6754       35847.00    156925.10
  216.11        3342.75           6758       33526.00    146721.00
  216.14        3343.00           6761       32078.00    140357.90
  216.16        3343.25           6765       29844.00    130545.20
  216.19        3343.50           6769       27767.00    121427.00
  216.22        3343.75           6773       25454.00    111278.20
  216.25        3344.00           6776       23732.00    103726.30
  216.27        3344.25           6780       21603.00     94393.89
  216.30        3344.50           6784       19429.00     84869.28
  216.33        3344.75           6788       17220.00     75196.53
  216.36        3345.00           6791       15562.00     67939.93
  216.38        3345.25           6795       13402.00     58490.66
  216.41        3345.50           6799       11027.00     48106.60
  216.44        3345.75           6803        8138.00     35483.36
  216.47        3346.00           6806        6001.00     26151.66
  216.49        3346.25           6810        3914.00     17043.01
  216.52        3346.50           6814        2279.00      9910.34
  216.55        3346.75           6818        1361.00      5906.82
  216.58        3347.00           6821         905.00      3918.48
  216.60        3347.25           6825         275.00      1171.79
  216.63        3347.50           6829          54.00       208.37
  216.66        3347.75           6833          48.00       182.22
  216.69        3348.00           6836          42.00       156.06
  216.71        3348.25           6840          41.00       151.70
  216.74        3348.50           6844          37.00       134.26
  216.77        3348.75           6848          32.00       112.47
  216.79        3349.00           6851          33.00       116.83
  216.82        3349.25           6855          36.00       129.90
  216.85        3349.50           6859          33.00       116.83
  216.88        3349.75           6863          39.00       142.98
  216.90        3350.00           6867          35.00       125.55
  216.93        3350.25           6870          29.00        99.39
  216.96        3350.50           6874          38.00       138.62
  216.99        3350.75           6878          34.00       121.19
  217.01        3351.00           6882          31.00       108.11
HL scan finished at 03:37:38
end
