************************************************************
  HL Scan of (1) Internal mercury lamp
************************************************************
Integration time is 0.2294 seconds per sample
dh250718Tamanrasset 22.79-5.529 4.974364pr865
************************************************************
Dead Time -------------------------  2.8E-08 
Number of Cycles Used -------------  4 
Starting Wavelength (Angstroms) ---  3331 
Final Wavelength (Angstoms) -------  3351 
Wavelength Increment (Angstroms) --  .25 
Filter Wheel #1 Position ---------- (1) Ground quartz diffuser (ND=2.32)
Filter Wheel #2 Position ---------- (0) Clear Aperture



************************************************************
HL scan start time = 03:34:27
Dark Count =  5.7 


Time (GMT)  Wavelength (Ang)  Step Number  Raw Counts  Counts/Second

  214.96        3331.00           6581          33.00       119.01
  215.18        3331.25           6585          32.00       114.65
  215.20        3331.50           6589          33.00       119.01
  215.23        3331.75           6593          35.00       127.72
  215.26        3332.00           6596          27.00        92.85
  215.29        3332.25           6600          33.00       119.01
  215.31        3332.50           6604          35.00       127.72
  215.34        3332.75           6608          37.00       136.44
  215.37        3333.00           6611          35.00       127.72
  215.39        3333.25           6615          30.00       105.93
  215.42        3333.50           6619          36.00       132.08
  215.45        3333.75           6623          40.00       149.52
  215.48        3334.00           6626          32.00       114.65
  215.50        3334.25           6630          37.00       136.44
  215.53        3334.50           6634          31.00       110.29
  215.56        3334.75           6638          32.00       114.65
  215.59        3335.00           6641          32.00       114.65
  215.61        3335.25           6645          44.00       166.96
  215.64        3335.50           6649          43.00       162.60
  215.67        3335.75           6653          43.00       162.60
  215.69        3336.00           6656         116.00       480.83
  215.72        3336.25           6660         482.00      2076.41
  215.75        3336.50           6664        1207.00      5237.47
  215.78        3336.75           6668        2375.00     10331.24
  215.80        3337.00           6671        3035.00     13210.20
  215.83        3337.25           6675        4771.00     20784.98
  215.86        3337.50           6679        6899.00     30074.58
  215.89        3337.75           6683        8975.00     39141.83
  215.91        3338.00           6686       10650.00     46461.01
  215.94        3338.25           6690       12824.00     55965.14
  215.97        3338.50           6694       15026.00     65596.84
  216.00        3338.75           6698       17262.00     75382.58
  216.02        3339.00           6701       18940.00     82729.78
  216.05        3339.25           6705       21094.00     92165.62
  216.08        3339.50           6709       23332.00    101974.70
  216.11        3339.75           6713       25832.00    112938.50
  216.13        3340.00           6716       27559.00    120516.30
  216.16        3340.25           6720       29769.00    130218.10
  216.19        3340.50           6724       31787.00    139081.60
  216.22        3340.75           6728       34008.00    148841.80
  216.24        3341.00           6731       35436.00    155120.00
  216.27        3341.25           6735       36942.00    161743.50
  216.30        3341.50           6739       38140.00    167014.20
  216.33        3341.75           6743       38812.00    169971.40
  216.35        3342.00           6746       38464.00    168439.90
  216.38        3342.25           6750       37955.00    166200.10
  216.41        3342.50           6754       36435.00    159513.40
  216.44        3342.75           6758       34284.00    150055.10
  216.46        3343.00           6761       32654.00    142891.00
  216.49        3343.25           6765       30325.00    132659.70
  216.52        3343.50           6769       28256.00    123575.50
  216.55        3343.75           6773       25928.00    113359.70
  216.57        3344.00           6776       24315.00    106284.90
  216.60        3344.25           6780       22109.00     96613.66
  216.63        3344.50           6784       19951.00     87157.96
  216.65        3344.75           6788       17723.00     77400.78
  216.68        3345.00           6791       15897.00     69408.08
  216.71        3345.25           6795       13639.00     59529.40
  216.74        3345.50           6799       11035.00     48143.76
  216.76        3345.75           6803        8125.00     35428.77
  216.79        3346.00           6806        6100.00     26586.04
  216.82        3346.25           6810        4040.00     17594.98
  216.85        3346.50           6814        2406.00     10466.45
  216.87        3346.75           6818        1385.00      6013.66
  216.90        3347.00           6821         903.00      3911.94
  216.93        3347.25           6825         291.00      1243.72
  216.96        3347.50           6829          66.00       262.86
  216.98        3347.75           6833          43.00       162.60
  217.01        3348.00           6836          46.00       175.68
  217.04        3348.25           6840          36.00       132.08
  217.07        3348.50           6844          38.00       140.80
  217.09        3348.75           6848          35.00       127.72
  217.12        3349.00           6851          41.00       153.88
  217.15        3349.25           6855          35.00       127.72
  217.17        3349.50           6859          40.00       149.52
  217.20        3349.75           6863          36.00       132.08
  217.23        3350.00           6867          37.00       136.44
  217.26        3350.25           6870          40.00       149.52
  217.28        3350.50           6874          40.00       149.52
  217.31        3350.75           6878          34.00       123.37
  217.34        3351.00           6882          39.00       145.16
HL scan finished at 03:37:58
end
