************************************************************
  HL Scan of (1) Internal mercury lamp
************************************************************
Integration time is 0.2294 seconds per sample
dh190717Tamanrasset 22.79-5.529 3.368395pr865
************************************************************
Dead Time -------------------------  2.8E-08 
Number of Cycles Used -------------  4 
Starting Wavelength (Angstroms) ---  3331 
Final Wavelength (Angstoms) -------  3351 
Wavelength Increment (Angstroms) --  .25 
Filter Wheel #1 Position ---------- (1) Ground quartz diffuser (ND=2.32)
Filter Wheel #2 Position ---------- (0) Clear Aperture



************************************************************
HL scan start time = 03:31:11
Dark Count =  6.1 


Time (GMT)  Wavelength (Ang)  Step Number  Raw Counts  Counts/Second

  211.69        3331.00           6581          31.00       108.54
  211.91        3331.25           6585          29.00        99.83
  211.93        3331.50           6589          39.00       143.42
  211.96        3331.75           6593          33.00       117.26
  211.99        3332.00           6596          35.00       125.98
  212.02        3332.25           6600          33.00       117.26
  212.04        3332.50           6604          38.00       139.06
  212.07        3332.75           6608          31.00       108.54
  212.10        3333.00           6611          29.00        99.83
  212.12        3333.25           6615          33.00       117.26
  212.15        3333.50           6619          28.00        95.47
  212.18        3333.75           6623          35.00       125.98
  212.21        3334.00           6626          39.00       143.42
  212.23        3334.25           6630          34.00       121.62
  212.26        3334.50           6634          31.00       108.54
  212.29        3334.75           6638          33.00       117.26
  212.31        3335.00           6641          34.00       121.62
  212.34        3335.25           6645          35.00       125.98
  212.37        3335.50           6649          34.00       121.62
  212.40        3335.75           6653          57.00       221.88
  212.42        3336.00           6656         105.00       431.13
  212.45        3336.25           6660         343.00      1468.67
  212.48        3336.50           6664        1009.00      4372.38
  212.50        3336.75           6668        1699.00      7381.21
  212.53        3337.00           6671        2110.00      9173.67
  212.56        3337.25           6675        3791.00     16506.76
  212.59        3337.50           6679        5860.00     25536.56
  212.61        3337.75           6683        7923.00     34544.74
  212.64        3338.00           6686        9683.00     42233.44
  212.67        3338.25           6690       11951.00     52146.27
  212.70        3338.50           6694       14154.00     61780.28
  212.72        3338.75           6698       16324.00     71275.06
  212.75        3339.00           6701       18016.00     78681.87
  212.78        3339.25           6705       20129.00     87935.96
  212.81        3339.50           6709       22437.00     98049.56
  212.83        3339.75           6713       24625.00    107642.60
  212.86        3340.00           6716       26411.00    115477.00
  212.89        3340.25           6720       28684.00    125452.60
  212.91        3340.50           6724       30967.00    135477.70
  212.94        3340.75           6728       32743.00    143280.30
  212.97        3341.00           6731       34384.00    150492.90
  213.00        3341.25           6735       36221.00    158570.40
  213.02        3341.50           6739       37773.00    165397.60
  213.05        3341.75           6743       38529.00    168724.20
  213.08        3342.00           6746       38972.00    170673.80
  213.11        3342.25           6750       38396.00    168138.90
  213.13        3342.50           6754       37045.00    162194.80
  213.16        3342.75           6758       34777.00    152220.60
  213.19        3343.00           6761       33469.00    146470.90
  213.22        3343.25           6765       31311.00    136988.70
  213.24        3343.50           6769       29365.00    128442.40
  213.27        3343.75           6773       27266.00    119228.70
  213.30        3344.00           6776       25434.00    111190.90
  213.32        3344.25           6780       23219.00    101477.60
  213.35        3344.50           6784       21035.00     91905.34
  213.38        3344.75           6788       18773.00     81996.68
  213.41        3345.00           6791       16610.00     72526.82
  213.43        3345.25           6795       14167.00     61837.14
  213.46        3345.50           6799       10923.00     47652.47
  213.49        3345.75           6803        8609.00     37541.18
  213.52        3346.00           6806        6955.00     30317.36
  213.54        3346.25           6810        4949.00     21560.09
  213.57        3346.50           6814        3501.00     15241.47
  213.60        3346.75           6818        2305.00     10024.17
  213.63        3347.00           6821        1639.00      7119.55
  213.65        3347.25           6825         557.00      2401.64
  213.68        3347.50           6829         135.00       561.91
  213.71        3347.75           6833          44.00       165.21
  213.73        3348.00           6836          41.00       152.14
  213.76        3348.25           6840          38.00       139.06
  213.79        3348.50           6844          38.00       139.06
  213.82        3348.75           6848          31.00       108.54
  213.84        3349.00           6851          36.00       130.34
  213.87        3349.25           6855          36.00       130.34
  213.90        3349.50           6859          39.00       143.42
  213.92        3349.75           6863          36.00       130.34
  213.95        3350.00           6867          34.00       121.62
  213.98        3350.25           6870          38.00       139.06
  214.01        3350.50           6874          38.00       139.06
  214.03        3350.75           6878          37.00       134.70
  214.06        3351.00           6882          33.00       117.26
HL scan finished at 03:34:41
end
