************************************************************
  HL Scan of (1) Internal mercury lamp
************************************************************
Integration time is 0.2294 seconds per sample
dh240718Tamanrasset 22.79-5.529 4.974364pr865
************************************************************
Dead Time -------------------------  2.8E-08 
Number of Cycles Used -------------  4 
Starting Wavelength (Angstroms) ---  3331 
Final Wavelength (Angstoms) -------  3351 
Wavelength Increment (Angstroms) --  .25 
Filter Wheel #1 Position ---------- (1) Ground quartz diffuser (ND=2.32)
Filter Wheel #2 Position ---------- (0) Clear Aperture



************************************************************
HL scan start time = 03:33:02
Dark Count =  6.7 


Time (GMT)  Wavelength (Ang)  Step Number  Raw Counts  Counts/Second

  213.55        3331.00           6581          36.00       127.72
  213.76        3331.25           6585          29.00        97.21
  213.79        3331.50           6589          32.00       110.29
  213.82        3331.75           6593          30.00       101.57
  213.85        3332.00           6596          39.00       140.80
  213.87        3332.25           6600          33.00       114.65
  213.90        3332.50           6604          33.00       114.65
  213.93        3332.75           6608          38.00       136.44
  213.95        3333.00           6611          31.00       105.93
  213.98        3333.25           6615          36.00       127.72
  214.01        3333.50           6619          36.00       127.72
  214.04        3333.75           6623          35.00       123.37
  214.06        3334.00           6626          36.00       127.72
  214.09        3334.25           6630          32.00       110.29
  214.12        3334.50           6634          29.00        97.21
  214.15        3334.75           6638          33.00       114.65
  214.17        3335.00           6641          40.00       145.16
  214.20        3335.25           6645          36.00       127.72
  214.23        3335.50           6649          47.00       175.68
  214.25        3335.75           6653          47.00       175.68
  214.28        3336.00           6656          71.00       280.30
  214.31        3336.25           6660         332.00      1418.10
  214.34        3336.50           6664        1029.00      4456.96
  214.36        3336.75           6668        1988.00      8638.97
  214.39        3337.00           6671        2800.00     12180.70
  214.42        3337.25           6675        4506.00     19624.12
  214.45        3337.50           6679        6764.00     29480.73
  214.47        3337.75           6683        8974.00     39133.09
  214.50        3338.00           6686       10622.00     46334.27
  214.53        3338.25           6690       13020.00     56817.87
  214.56        3338.50           6694       15213.00     66410.65
  214.58        3338.75           6698       17523.00     76520.81
  214.61        3339.00           6701       19153.00     83658.25
  214.64        3339.25           6705       21275.00     92954.36
  214.67        3339.50           6709       23535.00    102860.30
  214.69        3339.75           6713       25882.00    113153.50
  214.72        3340.00           6716       27688.00    121078.10
  214.75        3340.25           6720       29942.00    130973.40
  214.78        3340.50           6724       32101.00    140456.70
  214.80        3340.75           6728       34252.00    149910.00
  214.83        3341.00           6731       35982.00    157516.60
  214.86        3341.25           6735       37395.00    163731.90
  214.89        3341.50           6739       38890.00    170310.20
  214.91        3341.75           6743       39435.00    172708.90
  214.94        3342.00           6746       39325.00    172224.80
  214.97        3342.25           6750       38594.00    169007.60
  215.00        3342.50           6754       37202.00    162882.90
  215.02        3342.75           6758       35094.00    153611.80
  215.05        3343.00           6761       33536.00    146762.70
  215.08        3343.25           6765       31121.00    136151.40
  215.11        3343.50           6769       29076.00    127170.90
  215.13        3343.75           6773       26883.00    117545.40
  215.16        3344.00           6776       25067.00    109578.50
  215.19        3344.25           6780       22947.00    100282.50
  215.21        3344.50           6784       20475.00     89449.12
  215.24        3344.75           6788       18204.00     79502.41
  215.27        3345.00           6791       16587.00     72423.53
  215.30        3345.25           6795       14359.00     62674.41
  215.32        3345.50           6799       11880.00     51833.24
  215.35        3345.75           6803        8710.00     37979.77
  215.38        3346.00           6806        6544.00     28520.15
  215.41        3346.25           6810        4344.00     18917.16
  215.43        3346.50           6814        2728.00     11866.63
  215.46        3346.75           6818        1635.00      7099.49
  215.49        3347.00           6821        1060.00      4592.13
  215.52        3347.25           6825         349.00      1492.22
  215.54        3347.50           6829          69.00       271.58
  215.57        3347.75           6833          42.00       153.88
  215.60        3348.00           6836          36.00       127.72
  215.63        3348.25           6840          41.00       149.52
  215.65        3348.50           6844          40.00       145.16
  215.68        3348.75           6848          38.00       136.44
  215.71        3349.00           6851          38.00       136.44
  215.73        3349.25           6855          36.00       127.72
  215.76        3349.50           6859          37.00       132.08
  215.79        3349.75           6863          39.00       140.80
  215.82        3350.00           6867          37.00       132.08
  215.84        3350.25           6870          34.00       119.01
  215.87        3350.50           6874          38.00       136.44
  215.90        3350.75           6878          34.00       119.01
  215.93        3351.00           6882          47.00       175.68
HL scan finished at 03:36:33
end
