************************************************************
  HL Scan of (1) Internal mercury lamp
************************************************************
Integration time is 0.2294 seconds per sample
dh250717Tamanrasset 22.79-5.529 3.200151pr865
************************************************************
Dead Time -------------------------  2.8E-08 
Number of Cycles Used -------------  4 
Starting Wavelength (Angstroms) ---  3331 
Final Wavelength (Angstoms) -------  3351 
Wavelength Increment (Angstroms) --  .25 
Filter Wheel #1 Position ---------- (1) Ground quartz diffuser (ND=2.32)
Filter Wheel #2 Position ---------- (0) Clear Aperture



************************************************************
HL scan start time = 03:34:09
Dark Count =  6 


Time (GMT)  Wavelength (Ang)  Step Number  Raw Counts  Counts/Second

  214.65        3331.00           6581          33.00       117.70
  214.87        3331.25           6585          30.00       104.62
  214.90        3331.50           6589          34.00       122.06
  214.93        3331.75           6593          30.00       104.62
  214.95        3332.00           6596          28.00        95.90
  214.98        3332.25           6600          32.00       113.34
  215.01        3332.50           6604          30.00       104.62
  215.04        3332.75           6608          30.00       104.62
  215.06        3333.00           6611          36.00       130.78
  215.09        3333.25           6615          32.00       113.34
  215.12        3333.50           6619          32.00       113.34
  215.14        3333.75           6623          29.00       100.26
  215.17        3334.00           6626          35.00       126.42
  215.20        3334.25           6630          27.00        91.54
  215.23        3334.50           6634          35.00       126.42
  215.25        3334.75           6638          30.00       104.62
  215.28        3335.00           6641          35.00       126.42
  215.31        3335.25           6645          31.00       108.98
  215.33        3335.50           6649          33.00       117.70
  215.36        3335.75           6653          55.00       213.60
  215.39        3336.00           6656         135.00       562.35
  215.42        3336.25           6660         408.00      1752.48
  215.44        3336.50           6664         884.00      3827.79
  215.47        3336.75           6668        1559.00      6771.12
  215.50        3337.00           6671        2244.00      9758.55
  215.52        3337.25           6675        4072.00     17733.30
  215.55        3337.50           6679        5966.00     25999.74
  215.58        3337.75           6683        7828.00     34130.25
  215.61        3338.00           6686        9229.00     40250.22
  215.63        3338.25           6690       11250.00     49082.23
  215.66        3338.50           6694       13156.00     57415.69
  215.69        3338.75           6698       15179.00     66264.95
  215.72        3339.00           6701       16711.00     72969.35
  215.74        3339.25           6705       18683.00     81602.99
  215.77        3339.50           6709       20853.00     91108.33
  215.80        3339.75           6713       22827.00     99759.52
  215.82        3340.00           6716       24367.00    106511.60
  215.85        3340.25           6720       26229.00    114678.90
  215.88        3340.50           6724       28087.00    122832.40
  215.91        3340.75           6728       29954.00    131029.10
  215.93        3341.00           6731       31512.00    137872.10
  215.96        3341.25           6735       33012.00    144462.90
  215.99        3341.50           6739       34225.00    149794.40
  216.02        3341.75           6743       34913.00    152819.00
  216.04        3342.00           6746       34699.00    151878.20
  216.07        3342.25           6750       34124.00    149350.40
  216.10        3342.50           6754       32733.00    143236.80
  216.12        3342.75           6758       30619.00    133949.60
  216.15        3343.00           6761       29391.00    128557.00
  216.18        3343.25           6765       27500.00    120256.00
  216.21        3343.50           6769       25687.00    112301.10
  216.23        3343.75           6773       23744.00    103779.80
  216.26        3344.00           6776       22152.00     96800.82
  216.29        3344.25           6780       20179.00     88155.44
  216.32        3344.50           6784       18188.00     79435.43
  216.34        3344.75           6788       16005.00     69879.41
  216.37        3345.00           6791       14336.00     62576.86
  216.40        3345.25           6795       11956.00     52168.57
  216.43        3345.50           6799        9481.00     41351.25
  216.45        3345.75           6803        7170.00     31256.64
  216.48        3346.00           6806        5590.00     24358.37
  216.51        3346.25           6810        3803.00     16559.55
  216.54        3346.50           6814        2769.00     12048.53
  216.56        3346.75           6818        1851.00      8044.53
  216.59        3347.00           6821        1026.00      4446.94
  216.62        3347.25           6825         299.00      1277.29
  216.64        3347.50           6829          65.00       257.19
  216.67        3347.75           6833          38.00       139.49
  216.70        3348.00           6836          41.00       152.57
  216.72        3348.25           6840          37.00       135.14
  216.75        3348.50           6844          31.00       108.98
  216.78        3348.75           6848          36.00       130.78
  216.81        3349.00           6851          32.00       113.34
  216.83        3349.25           6855          36.00       130.78
  216.86        3349.50           6859          32.00       113.34
  216.89        3349.75           6863          34.00       122.06
  216.92        3350.00           6867          38.00       139.49
  216.94        3350.25           6870          39.00       143.85
  216.97        3350.50           6874          41.00       152.57
  217.00        3350.75           6878          42.00       156.93
  217.02        3351.00           6882          34.00       122.06
HL scan finished at 03:37:39
end
