************************************************************
  HL Scan of (1) Internal mercury lamp
************************************************************
Integration time is 0.2294 seconds per sample
dh260718Tamanrasset 22.79-5.529 4.974364pr865
************************************************************
Dead Time -------------------------  2.8E-08 
Number of Cycles Used -------------  4 
Starting Wavelength (Angstroms) ---  3331 
Final Wavelength (Angstoms) -------  3351 
Wavelength Increment (Angstroms) --  .25 
Filter Wheel #1 Position ---------- (1) Ground quartz diffuser (ND=2.32)
Filter Wheel #2 Position ---------- (0) Clear Aperture



************************************************************
HL scan start time = 03:33:03
Dark Count =  5.3 


Time (GMT)  Wavelength (Ang)  Step Number  Raw Counts  Counts/Second

  213.56        3331.00           6581          34.00       125.11
  213.78        3331.25           6585          36.00       133.83
  213.81        3331.50           6589          33.00       120.75
  213.83        3331.75           6593          36.00       133.83
  213.86        3332.00           6596          34.00       125.11
  213.89        3332.25           6600          28.00        98.95
  213.92        3332.50           6604          33.00       120.75
  213.94        3332.75           6608          34.00       125.11
  213.97        3333.00           6611          38.00       142.55
  214.00        3333.25           6615          31.00       112.03
  214.03        3333.50           6619          33.00       120.75
  214.05        3333.75           6623          25.00        85.88
  214.08        3334.00           6626          32.00       116.39
  214.11        3334.25           6630          34.00       125.11
  214.14        3334.50           6634          33.00       120.75
  214.16        3334.75           6638          32.00       116.39
  214.19        3335.00           6641          32.00       116.39
  214.22        3335.25           6645          49.00       190.50
  214.25        3335.50           6649          44.00       168.70
  214.27        3335.75           6653          42.00       159.98
  214.30        3336.00           6656         108.00       447.70
  214.33        3336.25           6660         447.00      1925.56
  214.35        3336.50           6664        1197.00      5195.61
  214.38        3336.75           6668        2232.00      9709.27
  214.41        3337.00           6671        2882.00     12544.51
  214.44        3337.25           6675        4568.00     19900.80
  214.46        3337.50           6679        6642.00     28954.16
  214.49        3337.75           6683        8720.00     38029.58
  214.52        3338.00           6686       10432.00     45510.01
  214.55        3338.25           6690       12593.00     54956.78
  214.57        3338.50           6694       14753.00     64404.18
  214.60        3338.75           6698       17071.00     74548.21
  214.63        3339.00           6701       18698.00     81671.74
  214.66        3339.25           6705       20913.00     91374.29
  214.68        3339.50           6709       23392.00    102239.50
  214.71        3339.75           6713       25579.00    111830.40
  214.74        3340.00           6716       27443.00    120009.00
  214.77        3340.25           6720       29459.00    128858.60
  214.79        3340.50           6724       31656.00    138507.80
  214.82        3340.75           6728       33700.00    147489.70
  214.85        3341.00           6731       35398.00    154954.60
  214.88        3341.25           6735       37147.00    162647.10
  214.90        3341.50           6739       38261.00    167548.40
  214.93        3341.75           6743       38973.00    170681.70
  214.96        3342.00           6746       38903.00    170373.60
  214.99        3342.25           6750       38093.00    166809.10
  215.01        3342.50           6754       36803.00    161133.80
  215.04        3342.75           6758       34708.00    151920.80
  215.07        3343.00           6761       32889.00    143925.40
  215.10        3343.25           6765       30479.00    133337.80
  215.12        3343.50           6769       28427.00    124327.90
  215.15        3343.75           6773       26302.00    115002.20
  215.18        3344.00           6776       24453.00    106891.80
  215.21        3344.25           6780       22241.00     97193.96
  215.23        3344.50           6784       20058.00     87628.44
  215.26        3344.75           6788       17693.00     77271.18
  215.29        3345.00           6791       16030.00     69991.88
  215.32        3345.25           6795       13689.00     59749.84
  215.34        3345.50           6799       11207.00     48897.33
  215.37        3345.75           6803        7942.00     34631.21
  215.40        3346.00           6806        6144.00     26779.88
  215.43        3346.25           6810        4112.00     17910.90
  215.45        3346.50           6814        2411.00     10490.00
  215.48        3346.75           6818        1409.00      6120.05
  215.51        3347.00           6821         869.00      3765.44
  215.54        3347.25           6825         266.00      1136.48
  215.56        3347.50           6829          63.00       251.53
  215.59        3347.75           6833          43.00       164.34
  215.62        3348.00           6836          40.00       151.26
  215.65        3348.25           6840          38.00       142.55
  215.67        3348.50           6844          37.00       138.19
  215.70        3348.75           6848          40.00       151.26
  215.73        3349.00           6851          35.00       129.47
  215.75        3349.25           6855          40.00       151.26
  215.78        3349.50           6859          36.00       133.83
  215.81        3349.75           6863          35.00       129.47
  215.84        3350.00           6867          33.00       120.75
  215.86        3350.25           6870          35.00       129.47
  215.89        3350.50           6874          35.00       129.47
  215.92        3350.75           6878          34.00       125.11
  215.95        3351.00           6882          39.00       146.91
HL scan finished at 03:36:34
end
