************************************************************
  HL Scan of (1) Internal mercury lamp
************************************************************
Integration time is 0.2294 seconds per sample
dh240717Tamanrasset 22.79-5.529 3.281725pr865
************************************************************
Dead Time -------------------------  2.8E-08 
Number of Cycles Used -------------  4 
Starting Wavelength (Angstroms) ---  3331 
Final Wavelength (Angstoms) -------  3351 
Wavelength Increment (Angstroms) --  .25 
Filter Wheel #1 Position ---------- (1) Ground quartz diffuser (ND=2.32)
Filter Wheel #2 Position ---------- (0) Clear Aperture



************************************************************
HL scan start time = 03:33:38
Dark Count =  5.4 


Time (GMT)  Wavelength (Ang)  Step Number  Raw Counts  Counts/Second

  214.14        3331.00           6581          25.00        85.44
  214.36        3331.25           6585          31.00       111.60
  214.38        3331.50           6589          31.00       111.60
  214.41        3331.75           6593          33.00       120.31
  214.44        3332.00           6596          34.00       124.67
  214.47        3332.25           6600          27.00        94.16
  214.49        3332.50           6604          37.00       137.75
  214.52        3332.75           6608          33.00       120.31
  214.55        3333.00           6611          33.00       120.31
  214.57        3333.25           6615          35.00       129.03
  214.60        3333.50           6619          29.00       102.88
  214.63        3333.75           6623          37.00       137.75
  214.66        3334.00           6626          31.00       111.60
  214.68        3334.25           6630          27.00        94.16
  214.71        3334.50           6634          34.00       124.67
  214.74        3334.75           6638          30.00       107.24
  214.76        3335.00           6641          40.00       150.83
  214.79        3335.25           6645          39.00       146.47
  214.82        3335.50           6649          35.00       129.03
  214.85        3335.75           6653          51.00       198.78
  214.87        3336.00           6656         117.00       486.49
  214.90        3336.25           6660         336.00      1441.21
  214.93        3336.50           6664         752.00      3254.87
  214.96        3336.75           6668        1476.00      6411.79
  214.98        3337.00           6671        2259.00      9826.59
  215.01        3337.25           6675        3914.00     17046.50
  215.04        3337.50           6679        5787.00     25220.95
  215.06        3337.75           6683        7838.00     34176.54
  215.09        3338.00           6686        9301.00     40567.42
  215.12        3338.25           6690       11584.00     50544.89
  215.15        3338.50           6694       13573.00     59242.04
  215.17        3338.75           6698       15657.00     68359.15
  215.20        3339.00           6701       17158.00     74928.62
  215.23        3339.25           6705       19413.00     84802.69
  215.26        3339.50           6709       21701.00     94826.86
  215.28        3339.75           6713       23630.00    103282.60
  215.31        3340.00           6716       25217.00    110242.10
  215.34        3340.25           6720       27271.00    119253.70
  215.37        3340.50           6724       29427.00    128717.70
  215.39        3340.75           6728       31309.00    136983.00
  215.42        3341.00           6731       32893.00    143942.60
  215.45        3341.25           6735       34624.00    151551.10
  215.47        3341.50           6739       35694.00    156255.90
  215.50        3341.75           6743       36525.00    159910.60
  215.53        3342.00           6746       36469.00    159664.30
  215.56        3342.25           6750       36080.00    157953.40
  215.58        3342.50           6754       34808.00    152360.00
  215.61        3342.75           6758       32714.00    143155.90
  215.64        3343.00           6761       31234.00    136653.50
  215.67        3343.25           6765       29270.00    128028.30
  215.69        3343.50           6769       27493.00    120228.00
  215.72        3343.75           6773       25355.00    110847.40
  215.75        3344.00           6776       23699.00    103585.10
  215.78        3344.25           6780       21689.00     94774.27
  215.80        3344.50           6784       19659.00     85880.19
  215.83        3344.75           6788       17376.00     75882.94
  215.86        3345.00           6791       15454.00     67470.86
  215.88        3345.25           6795       13193.00     57580.12
  215.91        3345.50           6799       10222.00     44591.82
  215.94        3345.75           6803        7969.00     34748.70
  215.97        3346.00           6806        6380.00     27809.79
  215.99        3346.25           6810        4468.00     19463.96
  216.02        3346.50           6814        3513.00     15296.87
  216.05        3346.75           6818        2327.00     10123.18
  216.08        3347.00           6821        1420.00      6167.59
  216.10        3347.25           6825         496.00      2138.75
  216.13        3347.50           6829         114.00       473.42
  216.16        3347.75           6833          47.00       181.34
  216.18        3348.00           6836          34.00       124.67
  216.21        3348.25           6840          39.00       146.47
  216.24        3348.50           6844          33.00       120.31
  216.27        3348.75           6848          35.00       129.03
  216.29        3349.00           6851          30.00       107.24
  216.32        3349.25           6855          30.00       107.24
  216.35        3349.50           6859          31.00       111.60
  216.37        3349.75           6863          39.00       146.47
  216.40        3350.00           6867          32.00       115.96
  216.43        3350.25           6870          34.00       124.67
  216.46        3350.50           6874          31.00       111.60
  216.48        3350.75           6878          35.00       129.03
  216.51        3351.00           6882          32.00       115.96
HL scan finished at 03:37:08
end
