************************************************************
  HL Scan of (1) Internal mercury lamp
************************************************************
Integration time is 0.2294 seconds per sample
dh040817Tamanrasset 22.79-5.529 3.485657pr865
************************************************************
Dead Time -------------------------  2.8E-08 
Number of Cycles Used -------------  4 
Starting Wavelength (Angstroms) ---  3331 
Final Wavelength (Angstoms) -------  3351 
Wavelength Increment (Angstroms) --  .25 
Filter Wheel #1 Position ---------- (1) Ground quartz diffuser (ND=2.32)
Filter Wheel #2 Position ---------- (0) Clear Aperture



************************************************************
HL scan start time = 03:38:38
Dark Count =  6.2 


Time (GMT)  Wavelength (Ang)  Step Number  Raw Counts  Counts/Second

  219.15        3331.00           6581          34.00       121.19
  219.36        3331.25           6585          34.00       121.19
  219.39        3331.50           6589          38.00       138.62
  219.42        3331.75           6593          31.00       108.11
  219.45        3332.00           6596          39.00       142.98
  219.47        3332.25           6600          37.00       134.26
  219.50        3332.50           6604          35.00       125.55
  219.53        3332.75           6608          33.00       116.83
  219.55        3333.00           6611          36.00       129.90
  219.58        3333.25           6615          31.00       108.11
  219.61        3333.50           6619          38.00       138.62
  219.64        3333.75           6623          35.00       125.55
  219.66        3334.00           6626          33.00       116.83
  219.69        3334.25           6630          38.00       138.62
  219.72        3334.50           6634          32.00       112.47
  219.74        3334.75           6638          34.00       121.19
  219.77        3335.00           6641          39.00       142.98
  219.80        3335.25           6645          39.00       142.98
  219.83        3335.50           6649          49.00       186.57
  219.85        3335.75           6653          69.00       273.76
  219.88        3336.00           6656         172.00       722.77
  219.91        3336.25           6660         569.00      2453.53
  219.94        3336.50           6664        1337.00      5802.16
  219.96        3336.75           6668        2375.00     10329.06
  219.99        3337.00           6671        3019.00     13138.22
  220.02        3337.25           6675        5020.00     21869.53
  220.04        3337.50           6679        7330.00     31954.47
  220.07        3337.75           6683        9717.00     42381.57
  220.10        3338.00           6686       11473.00     50056.16
  220.13        3338.25           6690       13810.00     60275.14
  220.15        3338.50           6694       16202.00     70740.68
  220.18        3338.75           6698       18651.00     81461.98
  220.21        3339.00           6701       20374.00     89008.84
  220.24        3339.25           6705       22992.00    100482.00
  220.26        3339.50           6709       25510.00    111523.80
  220.29        3339.75           6713       27975.00    122339.90
  220.32        3340.00           6716       29690.00    129869.00
  220.34        3340.25           6720       31984.00    139944.90
  220.37        3340.50           6724       34353.00    150356.20
  220.40        3340.75           6728       36775.00    161006.70
  220.43        3341.00           6731       38442.00    168340.90
  220.45        3341.25           6735       40056.00    175444.80
  220.48        3341.50           6739       41320.00    181010.10
  220.51        3341.75           6743       42263.00    185163.30
  220.54        3342.00           6746       42063.00    184282.40
  220.56        3342.25           6750       41231.00    180618.20
  220.59        3342.50           6754       39389.00    172508.70
  220.62        3342.75           6758       36939.00    161728.10
  220.65        3343.00           6761       35073.00    153521.60
  220.67        3343.25           6765       33232.00    145428.80
  220.70        3343.50           6769       30752.00    134532.90
  220.73        3343.75           6773       28554.00    124881.40
  220.76        3344.00           6776       26622.00    116402.30
  220.78        3344.25           6780       24327.00    106335.30
  220.81        3344.50           6784       21941.00     95875.18
  220.84        3344.75           6788       19246.00     84067.75
  220.86        3345.00           6791       17068.00     74531.15
  220.89        3345.25           6795       14067.00     61399.28
  220.92        3345.50           6799       10745.00     46874.04
  220.95        3345.75           6803        8450.00     36846.19
  220.97        3346.00           6806        6683.00     29129.24
  221.00        3346.25           6810        4489.00     19552.11
  221.03        3346.50           6814        3091.00     13452.32
  221.06        3346.75           6818        2021.00      8785.07
  221.08        3347.00           6821        1131.00      4903.90
  221.11        3347.25           6825         337.00      1442.08
  221.14        3347.50           6829          63.00       247.60
  221.17        3347.75           6833          45.00       169.14
  221.19        3348.00           6836          44.00       164.78
  221.22        3348.25           6840          41.00       151.70
  221.25        3348.50           6844          39.00       142.98
  221.27        3348.75           6848          34.00       121.19
  221.30        3349.00           6851          42.00       156.06
  221.33        3349.25           6855          34.00       121.19
  221.36        3349.50           6859          36.00       129.90
  221.38        3349.75           6863          41.00       151.70
  221.41        3350.00           6867          39.00       142.98
  221.44        3350.25           6870          39.00       142.98
  221.46        3350.50           6874          40.00       147.34
  221.49        3350.75           6878          38.00       138.62
  221.52        3351.00           6882          42.00       156.06
HL scan finished at 03:42:09
end
