************************************************************
  HL Scan of (1) Internal mercury lamp
************************************************************
Integration time is 0.2294 seconds per sample
dh010818Tamanrasset 22.79-5.529 4.974364pr865
************************************************************
Dead Time -------------------------  2.8E-08 
Number of Cycles Used -------------  4 
Starting Wavelength (Angstroms) ---  3331 
Final Wavelength (Angstoms) -------  3351 
Wavelength Increment (Angstroms) --  .25 
Filter Wheel #1 Position ---------- (1) Ground quartz diffuser (ND=2.32)
Filter Wheel #2 Position ---------- (0) Clear Aperture



************************************************************
HL scan start time = 03:36:53
Dark Count =  4.9 


Time (GMT)  Wavelength (Ang)  Step Number  Raw Counts  Counts/Second

  217.40        3331.00           6581          36.00       135.57
  217.62        3331.25           6585          34.00       126.85
  217.64        3331.50           6589          32.00       118.13
  217.67        3331.75           6593          36.00       135.57
  217.70        3332.00           6596          34.00       126.85
  217.73        3332.25           6600          30.00       109.42
  217.75        3332.50           6604          28.00       100.70
  217.78        3332.75           6608          32.00       118.13
  217.81        3333.00           6611          27.00        96.34
  217.83        3333.25           6615          32.00       118.13
  217.86        3333.50           6619          32.00       118.13
  217.89        3333.75           6623          30.00       109.42
  217.92        3334.00           6626          32.00       118.13
  217.94        3334.25           6630          32.00       118.13
  217.97        3334.50           6634          37.00       139.93
  218.00        3334.75           6638          32.00       118.13
  218.03        3335.00           6641          35.00       131.21
  218.05        3335.25           6645          32.00       118.13
  218.08        3335.50           6649          40.00       153.01
  218.11        3335.75           6653          45.00       174.80
  218.13        3336.00           6656          82.00       336.10
  218.16        3336.25           6660         333.00      1430.31
  218.19        3336.50           6664        1023.00      4438.65
  218.22        3336.75           6668        1812.00      7879.25
  218.24        3337.00           6671        2295.00      9985.79
  218.27        3337.25           6675        3789.00     16503.27
  218.30        3337.50           6679        5649.00     24620.72
  218.32        3337.75           6683        7552.00     32929.65
  218.35        3338.00           6686        9059.00     39512.31
  218.38        3338.25           6690       11023.00     48094.80
  218.41        3338.50           6694       12827.00     55981.75
  218.43        3338.75           6698       14907.00     65079.69
  218.46        3339.00           6701       16433.00     71757.36
  218.49        3339.25           6705       18420.00     80456.11
  218.52        3339.50           6709       20419.00     89211.66
  218.54        3339.75           6713       22359.00     97712.91
  218.57        3340.00           6716       23946.00    104670.30
  218.60        3340.25           6720       25729.00    112490.20
  218.62        3340.50           6724       27741.00    121318.60
  218.65        3340.75           6728       29755.00    130160.10
  218.68        3341.00           6731       31055.00    135869.40
  218.71        3341.25           6735       32510.00    142261.70
  218.73        3341.50           6739       33725.00    147601.40
  218.76        3341.75           6743       34661.00    151715.90
  218.79        3342.00           6746       34445.00    150766.30
  218.82        3342.25           6750       34149.00    149465.10
  218.84        3342.50           6754       33103.00    144867.60
  218.87        3342.75           6758       31310.00    136989.60
  218.90        3343.00           6761       29989.00    131187.60
  218.93        3343.25           6765       27851.00    121801.40
  218.95        3343.50           6769       25747.00    112569.20
  218.98        3343.75           6773       23580.00    103065.50
  219.01        3344.00           6776       22078.00     96481.31
  219.03        3344.25           6780       20199.00     88247.86
  219.06        3344.50           6784       18208.00     79527.81
  219.09        3344.75           6788       16251.00     70960.82
  219.12        3345.00           6791       14722.00     64270.30
  219.14        3345.25           6795       12667.00     55282.11
  219.17        3345.50           6799       10161.00     44327.44
  219.20        3345.75           6803        7584.00     33069.40
  219.23        3346.00           6806        5720.00     24930.65
  219.25        3346.25           6810        3887.00     16930.87
  219.28        3346.50           6814        2361.00     10273.66
  219.31        3346.75           6818        1463.00      6357.28
  219.33        3347.00           6821        1018.00      4416.85
  219.36        3347.25           6825         351.00      1508.78
  219.39        3347.50           6829          66.00       266.35
  219.42        3347.75           6833          39.00       148.65
  219.44        3348.00           6836          33.00       122.49
  219.47        3348.25           6840          36.00       135.57
  219.50        3348.50           6844          34.00       126.85
  219.52        3348.75           6848          36.00       135.57
  219.55        3349.00           6851          40.00       153.01
  219.58        3349.25           6855          33.00       122.49
  219.61        3349.50           6859          31.00       113.78
  219.63        3349.75           6863          33.00       122.49
  219.66        3350.00           6867          36.00       135.57
  219.69        3350.25           6870          30.00       109.42
  219.71        3350.50           6874          35.00       131.21
  219.74        3350.75           6878          38.00       144.29
  219.77        3351.00           6882          34.00       126.85
HL scan finished at 03:40:23
end
