************************************************************
  HL Scan of (1) Internal mercury lamp
************************************************************
Integration time is 0.2294 seconds per sample
dh300717Tamanrasset 22.79-5.529 3.337806pr865
************************************************************
Dead Time -------------------------  2.8E-08 
Number of Cycles Used -------------  4 
Starting Wavelength (Angstroms) ---  3331 
Final Wavelength (Angstoms) -------  3351 
Wavelength Increment (Angstroms) --  .25 
Filter Wheel #1 Position ---------- (1) Ground quartz diffuser (ND=2.32)
Filter Wheel #2 Position ---------- (0) Clear Aperture



************************************************************
HL scan start time = 03:36:13
Dark Count =  5.9 


Time (GMT)  Wavelength (Ang)  Step Number  Raw Counts  Counts/Second

  216.74        3331.00           6581          37.00       135.57
  216.95        3331.25           6585          31.00       109.42
  216.98        3331.50           6589          35.00       126.85
  217.01        3331.75           6593          30.00       105.06
  217.04        3332.00           6596          29.00       100.70
  217.06        3332.25           6600          33.00       118.13
  217.09        3332.50           6604          35.00       126.85
  217.12        3332.75           6608          33.00       118.13
  217.14        3333.00           6611          37.00       135.57
  217.17        3333.25           6615          36.00       131.21
  217.20        3333.50           6619          36.00       131.21
  217.23        3333.75           6623          36.00       131.21
  217.25        3334.00           6626          33.00       118.13
  217.28        3334.25           6630          36.00       131.21
  217.31        3334.50           6634          33.00       118.13
  217.33        3334.75           6638          33.00       118.13
  217.36        3335.00           6641          30.00       105.06
  217.39        3335.25           6645          41.00       153.01
  217.42        3335.50           6649          40.00       148.65
  217.44        3335.75           6653          65.00       257.63
  217.47        3336.00           6656         169.00       711.00
  217.50        3336.25           6660         525.00      2263.00
  217.52        3336.50           6664        1214.00      5267.12
  217.55        3336.75           6668        2105.00      9152.74
  217.58        3337.00           6671        2712.00     11800.32
  217.61        3337.25           6675        4621.00     20129.48
  217.63        3337.50           6679        6683.00     29130.55
  217.66        3337.75           6683        8769.00     38241.01
  217.69        3338.00           6686       10543.00     45992.50
  217.72        3338.25           6690       12687.00     55365.19
  217.74        3338.50           6694       14824.00     64712.18
  217.77        3338.75           6698       17130.00     74803.85
  217.80        3339.00           6701       18614.00     81301.26
  217.82        3339.25           6705       20763.00     90714.42
  217.85        3339.50           6709       23461.00    102539.40
  217.88        3339.75           6713       25400.00    111042.60
  217.91        3340.00           6716       26960.00    117886.70
  217.93        3340.25           6720       29118.00    127358.80
  217.96        3340.50           6724       31217.00    136576.70
  217.99        3340.75           6728       33598.00    147038.80
  218.02        3341.00           6731       34909.00    152801.90
  218.04        3341.25           6735       36538.00    159965.60
  218.07        3341.50           6739       37707.00    165108.10
  218.10        3341.75           6743       38303.00    167730.50
  218.13        3342.00           6746       38528.00    168720.70
  218.15        3342.25           6750       37823.00    165618.50
  218.18        3342.50           6754       36045.00    157797.30
  218.21        3342.75           6758       33833.00    148071.70
  218.24        3343.00           6761       32243.00    141084.10
  218.26        3343.25           6765       30538.00    133594.30
  218.29        3343.50           6769       28202.00    123337.60
  218.32        3343.75           6773       26293.00    114960.10
  218.34        3344.00           6776       24385.00    106591.00
  218.37        3344.25           6780       22372.00     97765.52
  218.40        3344.50           6784       20145.00     88006.92
  218.43        3344.75           6788       17717.00     77373.63
  218.45        3345.00           6791       15702.00     68553.87
  218.48        3345.25           6795       13048.00     56943.82
  218.51        3345.50           6799       10120.00     44143.89
  218.54        3345.75           6803        7932.00     34584.92
  218.56        3346.00           6806        6285.00     27392.85
  218.59        3346.25           6810        4275.00     18619.56
  218.62        3346.50           6814        3054.00     13292.22
  218.65        3346.75           6818        2087.00      9074.23
  218.67        3347.00           6821        1185.00      5140.67
  218.70        3347.25           6825         364.00      1561.10
  218.73        3347.50           6829          73.00       292.50
  218.75        3347.75           6833          46.00       174.80
  218.78        3348.00           6836          40.00       148.65
  218.81        3348.25           6840          38.00       139.93
  218.84        3348.50           6844          36.00       131.21
  218.86        3348.75           6848          34.00       122.49
  218.89        3349.00           6851          36.00       131.21
  218.92        3349.25           6855          35.00       126.85
  218.95        3349.50           6859          40.00       148.65
  218.97        3349.75           6863          34.00       122.49
  219.00        3350.00           6867          43.00       161.73
  219.03        3350.25           6870          37.00       135.57
  219.05        3350.50           6874          37.00       135.57
  219.08        3350.75           6878          39.00       144.29
  219.11        3351.00           6882          37.00       135.57
HL scan finished at 03:39:44
end
