************************************************************
  HL Scan of (1) Internal mercury lamp
************************************************************
Integration time is 0.2294 seconds per sample
dh010817Tamanrasset 22.79-5.529 3.485657pr865
************************************************************
Dead Time -------------------------  2.8E-08 
Number of Cycles Used -------------  4 
Starting Wavelength (Angstroms) ---  3331 
Final Wavelength (Angstoms) -------  3351 
Wavelength Increment (Angstroms) --  .25 
Filter Wheel #1 Position ---------- (1) Ground quartz diffuser (ND=2.32)
Filter Wheel #2 Position ---------- (0) Clear Aperture



************************************************************
HL scan start time = 03:37:09
Dark Count =  6.8 


Time (GMT)  Wavelength (Ang)  Step Number  Raw Counts  Counts/Second

  217.66        3331.00           6581          33.00       114.21
  217.88        3331.25           6585          30.00       101.13
  217.91        3331.50           6589          36.00       127.29
  217.93        3331.75           6593          31.00       105.49
  217.96        3332.00           6596          30.00       101.13
  217.99        3332.25           6600          26.00        83.70
  218.02        3332.50           6604          40.00       144.73
  218.04        3332.75           6608          39.00       140.37
  218.07        3333.00           6611          31.00       105.49
  218.10        3333.25           6615          30.00       101.13
  218.13        3333.50           6619          25.00        79.34
  218.15        3333.75           6623          35.00       122.93
  218.18        3334.00           6626          37.00       131.65
  218.21        3334.25           6630          38.00       136.01
  218.23        3334.50           6634          31.00       105.49
  218.26        3334.75           6638          35.00       122.93
  218.29        3335.00           6641          34.00       118.57
  218.32        3335.25           6645          43.00       157.80
  218.34        3335.50           6649          49.00       183.96
  218.37        3335.75           6653          60.00       231.91
  218.40        3336.00           6656         151.00       628.61
  218.42        3336.25           6660         514.00      2211.12
  218.45        3336.50           6664        1330.00      5769.02
  218.48        3336.75           6668        2596.00     11290.40
  218.51        3337.00           6671        2974.00     12939.30
  218.53        3337.25           6675        4719.00     20553.24
  218.56        3337.50           6679        6872.00     29951.88
  218.59        3337.75           6683        9200.00     40120.02
  218.62        3338.00           6686       11005.00     48007.83
  218.64        3338.25           6690       13361.00     58308.73
  218.67        3338.50           6694       15686.00     68479.93
  218.70        3338.75           6698       18121.00     79138.56
  218.73        3339.00           6701       19944.00     87122.47
  218.75        3339.25           6705       22441.00     98064.01
  218.78        3339.50           6709       24773.00    108288.60
  218.81        3339.75           6713       27175.00    118826.30
  218.83        3340.00           6716       29144.00    127469.00
  218.86        3340.25           6720       31403.00    137389.80
  218.89        3340.50           6724       33746.00    147685.30
  218.92        3340.75           6728       35945.00    157353.50
  218.94        3341.00           6731       37781.00    165429.70
  218.97        3341.25           6735       39579.00    173342.40
  219.00        3341.50           6739       41038.00    179765.70
  219.03        3341.75           6743       41578.00    182143.70
  219.05        3342.00           6746       41827.00    183240.30
  219.08        3342.25           6750       41165.00    180324.90
  219.11        3342.50           6754       39543.00    173183.90
  219.13        3342.75           6758       36939.00    161725.40
  219.16        3343.00           6761       35223.00    154178.60
  219.19        3343.25           6765       32898.00    143958.40
  219.22        3343.50           6769       30942.00    135364.80
  219.24        3343.75           6773       28870.00    126266.00
  219.27        3344.00           6776       26985.00    117992.50
  219.30        3344.25           6780       24737.00    108130.70
  219.33        3344.50           6784       22259.00     97266.28
  219.35        3344.75           6788       19802.00     86500.44
  219.38        3345.00           6791       17541.00     76599.16
  219.41        3345.25           6795       14835.00     64756.37
  219.44        3345.50           6799       11208.00     48895.14
  219.46        3345.75           6803        8767.00     38228.35
  219.49        3346.00           6806        6944.00     30266.27
  219.52        3346.25           6810        4768.00     20767.09
  219.54        3346.50           6814        3082.00     13410.44
  219.57        3346.75           6818        1897.00      8241.66
  219.60        3347.00           6821        1318.00      5716.70
  219.63        3347.25           6825         445.00      1910.30
  219.65        3347.50           6829          91.00       367.05
  219.68        3347.75           6833          50.00       188.32
  219.71        3348.00           6836          37.00       131.65
  219.74        3348.25           6840          40.00       144.73
  219.76        3348.50           6844          42.00       153.44
  219.79        3348.75           6848          35.00       122.93
  219.82        3349.00           6851          38.00       136.01
  219.84        3349.25           6855          40.00       144.73
  219.87        3349.50           6859          42.00       153.44
  219.90        3349.75           6863          42.00       153.44
  219.93        3350.00           6867          41.00       149.09
  219.95        3350.25           6870          41.00       149.09
  219.98        3350.50           6874          38.00       136.01
  220.01        3350.75           6878          38.00       136.01
  220.03        3351.00           6882          37.00       131.65
HL scan finished at 03:40:39
end
