************************************************************
  HL Scan of (1) Internal mercury lamp
************************************************************
Integration time is 0.2294 seconds per sample
dh050818Tamanrasset 22.79-5.529 4.974364pr865
************************************************************
Dead Time -------------------------  2.8E-08 
Number of Cycles Used -------------  4 
Starting Wavelength (Angstroms) ---  3331 
Final Wavelength (Angstoms) -------  3351 
Wavelength Increment (Angstroms) --  .25 
Filter Wheel #1 Position ---------- (1) Ground quartz diffuser (ND=2.32)
Filter Wheel #2 Position ---------- (0) Clear Aperture



************************************************************
HL scan start time = 03:38:56
Dark Count =  5.7 


Time (GMT)  Wavelength (Ang)  Step Number  Raw Counts  Counts/Second

  219.44        3331.00           6581          30.00       105.93
  219.66        3331.25           6585          33.00       119.01
  219.69        3331.50           6589          28.00        97.21
  219.72        3331.75           6593          30.00       105.93
  219.74        3332.00           6596          38.00       140.80
  219.77        3332.25           6600          28.00        97.21
  219.80        3332.50           6604          32.00       114.65
  219.82        3332.75           6608          34.00       123.37
  219.85        3333.00           6611          29.00       101.57
  219.88        3333.25           6615          29.00       101.57
  219.91        3333.50           6619          29.00       101.57
  219.93        3333.75           6623          30.00       105.93
  219.96        3334.00           6626          27.00        92.85
  219.99        3334.25           6630          28.00        97.21
  220.01        3334.50           6634          35.00       127.72
  220.04        3334.75           6638          31.00       110.29
  220.07        3335.00           6641          31.00       110.29
  220.10        3335.25           6645          39.00       145.16
  220.12        3335.50           6649          40.00       149.52
  220.15        3335.75           6653          53.00       206.19
  220.18        3336.00           6656         170.00       716.23
  220.20        3336.25           6660         555.00      2394.67
  220.23        3336.50           6664        1205.00      5228.75
  220.26        3336.75           6668        1821.00      7915.01
  220.29        3337.00           6671        2573.00     11194.88
  220.31        3337.25           6675        4423.00     19266.28
  220.34        3337.50           6679        6189.00     26974.60
  220.37        3337.75           6683        8032.00     35022.56
  220.39        3338.00           6686        9450.00     41217.12
  220.42        3338.25           6690       11351.00     49525.05
  220.45        3338.50           6694       13254.00     57845.58
  220.48        3338.75           6698       15031.00     65618.71
  220.50        3339.00           6701       16493.00     72016.48
  220.53        3339.25           6705       18482.00     80724.10
  220.56        3339.50           6709       20453.00     89357.13
  220.59        3339.75           6713       22432.00     98029.39
  220.61        3340.00           6716       23907.00    104495.80
  220.64        3340.25           6720       25842.00    112982.40
  220.67        3340.50           6724       27539.00    120428.50
  220.69        3340.75           6728       29251.00    127943.60
  220.72        3341.00           6731       30403.00    133002.30
  220.75        3341.25           6735       31796.00    139121.10
  220.78        3341.50           6739       32808.00    143567.70
  220.80        3341.75           6743       33087.00    144793.80
  220.83        3342.00           6746       32921.00    144064.30
  220.86        3342.25           6750       32191.00    140856.50
  220.89        3342.50           6754       31000.00    135624.40
  220.91        3342.75           6758       28809.00    126003.10
  220.94        3343.00           6761       27434.00    119967.70
  220.97        3343.25           6765       25752.00    112587.60
  220.99        3343.50           6769       23898.00    104456.30
  221.02        3343.75           6773       22114.00     96635.59
  221.05        3344.00           6776       20540.00     89738.28
  221.08        3344.25           6780       18659.00     81499.20
  221.10        3344.50           6784       16822.00     73456.52
  221.13        3344.75           6788       14812.00     64660.56
  221.16        3345.00           6791       13494.00     58895.21
  221.19        3345.25           6795       11364.00     49581.87
  221.21        3345.50           6799        8493.00     37036.21
  221.24        3345.75           6803        6469.00     28197.06
  221.27        3346.00           6806        4917.00     21422.18
  221.30        3346.25           6810        3219.00     14012.91
  221.32        3346.50           6814        2035.00      8848.31
  221.35        3346.75           6818        1235.00      5359.57
  221.38        3347.00           6821         766.00      3314.61
  221.41        3347.25           6825         201.00       851.37
  221.43        3347.50           6829          49.00       188.75
  221.46        3347.75           6833          34.00       123.37
  221.49        3348.00           6836          36.00       132.08
  221.51        3348.25           6840          41.00       153.88
  221.54        3348.50           6844          34.00       123.37
  221.57        3348.75           6848          33.00       119.01
  221.59        3349.00           6851          40.00       149.52
  221.62        3349.25           6855          32.00       114.65
  221.65        3349.50           6859          36.00       132.08
  221.68        3349.75           6863          29.00       101.57
  221.70        3350.00           6867          35.00       127.72
  221.73        3350.25           6870          34.00       123.37
  221.76        3350.50           6874          27.00        92.85
  221.78        3350.75           6878          40.00       149.52
  221.81        3351.00           6882          34.00       123.37
HL scan finished at 03:42:26
end
