************************************************************
  HL Scan of (1) Internal mercury lamp
************************************************************
Integration time is 0.2294 seconds per sample
dh050817Tamanrasset 22.79-5.529 3.449969pr865
************************************************************
Dead Time -------------------------  2.8E-08 
Number of Cycles Used -------------  4 
Starting Wavelength (Angstroms) ---  3331 
Final Wavelength (Angstoms) -------  3351 
Wavelength Increment (Angstroms) --  .25 
Filter Wheel #1 Position ---------- (1) Ground quartz diffuser (ND=2.32)
Filter Wheel #2 Position ---------- (0) Clear Aperture



************************************************************
HL scan start time = 03:39:11
Dark Count =  6.7 


Time (GMT)  Wavelength (Ang)  Step Number  Raw Counts  Counts/Second

  219.69        3331.00           6581          39.00       140.80
  219.91        3331.25           6585          32.00       110.29
  219.93        3331.50           6589          30.00       101.57
  219.96        3331.75           6593          33.00       114.65
  219.99        3332.00           6596          32.00       110.29
  220.02        3332.25           6600          37.00       132.08
  220.04        3332.50           6604          33.00       114.65
  220.07        3332.75           6608          32.00       110.29
  220.10        3333.00           6611          32.00       110.29
  220.12        3333.25           6615          31.00       105.93
  220.15        3333.50           6619          38.00       136.44
  220.18        3333.75           6623          36.00       127.72
  220.21        3334.00           6626          31.00       105.93
  220.23        3334.25           6630          37.00       132.08
  220.26        3334.50           6634          34.00       119.01
  220.29        3334.75           6638          36.00       127.72
  220.31        3335.00           6641          38.00       136.44
  220.34        3335.25           6645          40.00       145.16
  220.37        3335.50           6649          36.00       127.72
  220.40        3335.75           6653          71.00       280.30
  220.42        3336.00           6656         169.00       707.51
  220.45        3336.25           6660         552.00      2377.23
  220.48        3336.50           6664        1352.00      5865.39
  220.51        3336.75           6668        2373.00     10318.15
  220.53        3337.00           6671        2763.00     12019.30
  220.56        3337.25           6675        4693.00     20440.20
  220.59        3337.50           6679        6943.00     30262.34
  220.62        3337.75           6683        9170.00     39989.39
  220.64        3338.00           6686       10893.00     47518.72
  220.67        3338.25           6690       13359.00     58300.42
  220.70        3338.50           6694       15719.00     68624.76
  220.72        3338.75           6698       17983.00     78534.77
  220.75        3339.00           6701       19651.00     85839.46
  220.78        3339.25           6705       22027.00     96249.90
  220.81        3339.50           6709       24443.00    106841.80
  220.83        3339.75           6713       26917.00    117694.60
  220.86        3340.00           6716       28693.00    125489.40
  220.89        3340.25           6720       30967.00    135475.00
  220.92        3340.50           6724       33450.00    146384.80
  220.94        3340.75           6728       35571.00    155709.20
  220.97        3341.00           6731       37273.00    163195.20
  221.00        3341.25           6735       39085.00    171168.50
  221.02        3341.50           6739       40417.00    177031.90
  221.05        3341.75           6743       41109.00    180078.80
  221.08        3342.00           6746       41143.00    180228.50
  221.11        3342.25           6750       40459.00    177216.80
  221.13        3342.50           6754       38521.00    168686.30
  221.16        3342.75           6758       35966.00    157446.30
  221.19        3343.00           6761       34418.00    150639.70
  221.22        3343.25           6765       32826.00    143642.40
  221.24        3343.50           6769       30613.00    133920.10
  221.27        3343.75           6773       28145.00    123083.90
  221.30        3344.00           6776       26402.00    115434.90
  221.32        3344.25           6780       24108.00    105372.80
  221.35        3344.50           6784       21544.00     94133.14
  221.38        3344.75           6788       18917.00     82624.68
  221.41        3345.00           6791       16683.00     72843.72
  221.43        3345.25           6795       13598.00     59345.71
  221.46        3345.50           6799       10833.00     47256.48
  221.49        3345.75           6803        8465.00     36909.53
  221.52        3346.00           6806        6715.00     29266.78
  221.54        3346.25           6810        4551.00     19820.50
  221.57        3346.50           6814        2914.00     12678.00
  221.60        3346.75           6818        2052.00      8918.10
  221.63        3347.00           6821        1224.00      5307.24
  221.65        3347.25           6825         372.00      1592.49
  221.68        3347.50           6829          72.00       284.66
  221.71        3347.75           6833          45.00       166.96
  221.73        3348.00           6836          45.00       166.96
  221.76        3348.25           6840          42.00       153.88
  221.79        3348.50           6844          34.00       119.01
  221.82        3348.75           6848          32.00       110.29
  221.84        3349.00           6851          37.00       132.08
  221.87        3349.25           6855          35.00       123.37
  221.90        3349.50           6859          42.00       153.88
  221.92        3349.75           6863          36.00       127.72
  221.95        3350.00           6867          35.00       123.37
  221.98        3350.25           6870          35.00       123.37
  222.01        3350.50           6874          38.00       136.44
  222.03        3350.75           6878          32.00       110.29
  222.06        3351.00           6882          36.00       127.72
HL scan finished at 03:42:41
end
