************************************************************
  HL Scan of (1) Internal mercury lamp
************************************************************
Integration time is 0.2294 seconds per sample
dh030817Tamanrasset 22.79-5.529 3.312315pr865
************************************************************
Dead Time -------------------------  2.8E-08 
Number of Cycles Used -------------  4 
Starting Wavelength (Angstroms) ---  3331 
Final Wavelength (Angstoms) -------  3351 
Wavelength Increment (Angstroms) --  .25 
Filter Wheel #1 Position ---------- (1) Ground quartz diffuser (ND=2.32)
Filter Wheel #2 Position ---------- (0) Clear Aperture



************************************************************
HL scan start time = 03:38:09
Dark Count =  6 


Time (GMT)  Wavelength (Ang)  Step Number  Raw Counts  Counts/Second

  218.67        3331.00           6581          34.00       122.06
  218.88        3331.25           6585          31.00       108.98
  218.91        3331.50           6589          35.00       126.42
  218.94        3331.75           6593          31.00       108.98
  218.97        3332.00           6596          31.00       108.98
  218.99        3332.25           6600          30.00       104.62
  219.02        3332.50           6604          29.00       100.26
  219.05        3332.75           6608          27.00        91.54
  219.08        3333.00           6611          25.00        82.82
  219.10        3333.25           6615          34.00       122.06
  219.13        3333.50           6619          30.00       104.62
  219.16        3333.75           6623          30.00       104.62
  219.19        3334.00           6626          26.00        87.18
  219.21        3334.25           6630          30.00       104.62
  219.24        3334.50           6634          30.00       104.62
  219.27        3334.75           6638          30.00       104.62
  219.29        3335.00           6641          33.00       117.70
  219.32        3335.25           6645          39.00       143.85
  219.35        3335.50           6649          37.00       135.14
  219.38        3335.75           6653          54.00       209.24
  219.40        3336.00           6656         116.00       479.52
  219.43        3336.25           6660         413.00      1774.28
  219.46        3336.50           6664         984.00      4263.81
  219.48        3336.75           6668        1902.00      8266.95
  219.51        3337.00           6671        2447.00     10643.97
  219.54        3337.25           6675        4194.00     18265.66
  219.57        3337.50           6679        6245.00     27217.77
  219.59        3337.75           6683        8328.00     36314.15
  219.62        3338.00           6686        9916.00     43252.00
  219.65        3338.25           6690       12136.00     52955.53
  219.68        3338.50           6694       14172.00     61859.45
  219.70        3338.75           6698       16350.00     71389.30
  219.73        3339.00           6701       18045.00     78809.28
  219.76        3339.25           6705       20158.00     88063.43
  219.79        3339.50           6709       22443.00     98076.29
  219.81        3339.75           6713       24520.00    107182.60
  219.84        3340.00           6716       26298.00    114981.60
  219.87        3340.25           6720       28603.00    125097.40
  219.89        3340.50           6724       30659.00    134125.30
  219.92        3340.75           6728       32762.00    143364.20
  219.95        3341.00           6731       34196.00    149666.90
  219.98        3341.25           6735       35887.00    157102.00
  220.00        3341.50           6739       37204.00    162894.70
  220.03        3341.75           6743       37831.00    165653.20
  220.06        3342.00           6746       37857.00    165767.60
  220.09        3342.25           6750       37435.00    163911.00
  220.11        3342.50           6754       36010.00    157642.90
  220.14        3342.75           6758       33462.00    146440.60
  220.17        3343.00           6761       31774.00    139023.10
  220.19        3343.25           6765       30127.00    131788.80
  220.22        3343.50           6769       27869.00    121875.50
  220.25        3343.75           6773       25798.00    112788.10
  220.28        3344.00           6776       24171.00    105652.10
  220.30        3344.25           6780       22069.00     96437.04
  220.33        3344.50           6784       19956.00     87178.55
  220.36        3344.75           6788       17406.00     76011.66
  220.39        3345.00           6791       15491.00     67630.13
  220.41        3345.25           6795       12982.00     56654.76
  220.44        3345.50           6799       10009.00     43658.40
  220.47        3345.75           6803        7774.00     33894.40
  220.50        3346.00           6806        6201.00     27025.68
  220.52        3346.25           6810        4295.00     18706.40
  220.55        3346.50           6814        3002.00     13064.94
  220.58        3346.75           6818        1906.00      8284.40
  220.61        3347.00           6821        1195.00      5183.84
  220.63        3347.25           6825         400.00      1717.61
  220.66        3347.50           6829          76.00       305.15
  220.69        3347.75           6833          39.00       143.85
  220.71        3348.00           6836          33.00       117.70
  220.74        3348.25           6840          34.00       122.06
  220.77        3348.50           6844          35.00       126.42
  220.80        3348.75           6848          37.00       135.14
  220.82        3349.00           6851          34.00       122.06
  220.85        3349.25           6855          39.00       143.85
  220.88        3349.50           6859          40.00       148.21
  220.90        3349.75           6863          37.00       135.14
  220.93        3350.00           6867          38.00       139.49
  220.96        3350.25           6870          39.00       143.85
  220.99        3350.50           6874          38.00       139.49
  221.01        3350.75           6878          37.00       135.14
  221.04        3351.00           6882          35.00       126.42
HL scan finished at 03:41:40
end
