************************************************************
  HL Scan of (1) Internal mercury lamp
************************************************************
Integration time is 0.2294 seconds per sample
dh070818Tamanrasset 22.79-5.529 4.974364pr865
************************************************************
Dead Time -------------------------  2.8E-08 
Number of Cycles Used -------------  4 
Starting Wavelength (Angstroms) ---  3331 
Final Wavelength (Angstoms) -------  3351 
Wavelength Increment (Angstroms) --  .25 
Filter Wheel #1 Position ---------- (1) Ground quartz diffuser (ND=2.32)
Filter Wheel #2 Position ---------- (0) Clear Aperture



************************************************************
HL scan start time = 03:38:54
Dark Count =  5.8 


Time (GMT)  Wavelength (Ang)  Step Number  Raw Counts  Counts/Second

  219.42        3331.00           6581          32.00       114.21
  219.63        3331.25           6585          38.00       140.37
  219.66        3331.50           6589          32.00       114.21
  219.69        3331.75           6593          30.00       105.49
  219.72        3332.00           6596          36.00       131.65
  219.74        3332.25           6600          33.00       118.57
  219.77        3332.50           6604          29.00       101.13
  219.80        3332.75           6608          34.00       122.93
  219.83        3333.00           6611          34.00       122.93
  219.85        3333.25           6615          37.00       136.01
  219.88        3333.50           6619          31.00       109.85
  219.91        3333.75           6623          35.00       127.29
  219.93        3334.00           6626          35.00       127.29
  219.96        3334.25           6630          35.00       127.29
  219.99        3334.50           6634          32.00       114.21
  220.02        3334.75           6638          29.00       101.13
  220.04        3335.00           6641          37.00       136.01
  220.07        3335.25           6645          39.00       144.73
  220.10        3335.50           6649          44.00       166.52
  220.12        3335.75           6653          63.00       249.35
  220.15        3336.00           6656         149.00       624.25
  220.18        3336.25           6660         490.00      2110.85
  220.21        3336.50           6664        1204.00      5223.96
  220.23        3336.75           6668        2171.00      9441.03
  220.26        3337.00           6671        2579.00     11220.61
  220.29        3337.25           6675        4440.00     19340.03
  220.31        3337.50           6679        6533.00     28476.05
  220.34        3337.75           6683        8855.00     38617.15
  220.37        3338.00           6686       10405.00     45389.82
  220.40        3338.25           6690       12727.00     55540.54
  220.42        3338.50           6694       14850.00     64826.37
  220.45        3338.75           6698       17120.00     74760.51
  220.48        3339.00           6701       18899.00     82549.78
  220.51        3339.25           6705       21052.00     91981.13
  220.53        3339.50           6709       23433.00    102417.10
  220.56        3339.75           6713       25862.00    113069.70
  220.59        3340.00           6716       27461.00    120085.70
  220.62        3340.25           6720       29605.00    129497.50
  220.64        3340.50           6724       32003.00    140030.10
  220.67        3340.75           6728       34134.00    149395.20
  220.70        3341.00           6731       35642.00    156025.40
  220.72        3341.25           6735       37460.00    164021.80
  220.75        3341.50           6739       38803.00    169931.30
  220.78        3341.75           6743       39635.00    173593.30
  220.81        3342.00           6746       39455.00    172800.90
  220.83        3342.25           6750       38750.00    169698.10
  220.86        3342.50           6754       37380.00    163669.90
  220.89        3342.75           6758       35242.00    154266.50
  220.92        3343.00           6761       33499.00    146604.10
  220.94        3343.25           6765       31110.00    136107.10
  220.97        3343.50           6769       29084.00    127209.90
  221.00        3343.75           6773       26947.00    117830.10
  221.03        3344.00           6776       25056.00    109534.20
  221.05        3344.25           6780       22907.00    100111.10
  221.08        3344.50           6784       20641.00     90180.34
  221.11        3344.75           6788       18395.00     80342.70
  221.13        3345.00           6791       16373.00     71490.84
  221.16        3345.25           6795       14034.00     61256.68
  221.19        3345.50           6799       10828.00     47238.56
  221.22        3345.75           6803        8006.00     34908.56
  221.24        3346.00           6806        6433.00     28039.45
  221.27        3346.25           6810        4403.00     19178.56
  221.30        3346.50           6814        2823.00     12284.96
  221.33        3346.75           6818        1886.00      8198.05
  221.35        3347.00           6821        1309.00      5681.81
  221.38        3347.25           6825         398.00      1709.76
  221.41        3347.50           6829          83.00       336.53
  221.43        3347.75           6833          42.00       157.80
  221.46        3348.00           6836          43.00       162.16
  221.49        3348.25           6840          39.00       144.73
  221.52        3348.50           6844          39.00       144.73
  221.54        3348.75           6848          36.00       131.65
  221.57        3349.00           6851          41.00       153.44
  221.60        3349.25           6855          36.00       131.65
  221.62        3349.50           6859          34.00       122.93
  221.65        3349.75           6863          36.00       131.65
  221.68        3350.00           6867          41.00       153.44
  221.71        3350.25           6870          36.00       131.65
  221.73        3350.50           6874          37.00       136.01
  221.76        3350.75           6878          40.00       149.09
  221.79        3351.00           6882          30.00       105.49
HL scan finished at 03:42:25
end
