************************************************************
  HL Scan of (1) Internal mercury lamp
************************************************************
Integration time is 0.2294 seconds per sample
dh020817Tamanrasset 22.79-5.529 3.592721pr865
************************************************************
Dead Time -------------------------  2.8E-08 
Number of Cycles Used -------------  4 
Starting Wavelength (Angstroms) ---  3331 
Final Wavelength (Angstoms) -------  3351 
Wavelength Increment (Angstroms) --  .25 
Filter Wheel #1 Position ---------- (1) Ground quartz diffuser (ND=2.32)
Filter Wheel #2 Position ---------- (0) Clear Aperture



************************************************************
HL scan start time = 03:37:09
Dark Count =  8.7 


Time (GMT)  Wavelength (Ang)  Step Number  Raw Counts  Counts/Second

  217.67        3331.00           6581          33.00       105.93
  217.88        3331.25           6585          38.00       127.72
  217.91        3331.50           6589          40.00       136.44
  217.94        3331.75           6593          32.00       101.57
  217.97        3332.00           6596          33.00       105.93
  217.99        3332.25           6600          38.00       127.72
  218.02        3332.50           6604          38.00       127.72
  218.05        3332.75           6608          38.00       127.72
  218.08        3333.00           6611          36.00       119.01
  218.10        3333.25           6615          39.00       132.08
  218.13        3333.50           6619          37.00       123.37
  218.16        3333.75           6623          41.00       140.80
  218.18        3334.00           6626          40.00       136.44
  218.21        3334.25           6630          38.00       127.72
  218.24        3334.50           6634          35.00       114.65
  218.27        3334.75           6638          39.00       132.08
  218.29        3335.00           6641          33.00       105.93
  218.32        3335.25           6645          37.00       123.37
  218.35        3335.50           6649          51.00       184.40
  218.37        3335.75           6653          84.00       328.25
  218.40        3336.00           6656         221.00       925.48
  218.43        3336.25           6660         658.00      2830.65
  218.46        3336.50           6664        1493.00      6471.53
  218.48        3336.75           6668        2738.00     11901.53
  218.51        3337.00           6671        3317.00     14427.36
  218.54        3337.25           6675        5351.00     23303.34
  218.57        3337.50           6679        7778.00     33900.08
  218.59        3337.75           6683       10094.00     44018.04
  218.62        3338.00           6686       11920.00     51999.37
  218.65        3338.25           6690       14520.00     63369.98
  218.68        3338.50           6694       17031.00     74358.24
  218.70        3338.75           6698       19602.00     85616.08
  218.73        3339.00           6701       21299.00     93050.76
  218.76        3339.25           6705       24031.00    105026.40
  218.79        3339.50           6709       26943.00    117799.90
  218.81        3339.75           6713       29137.00    127429.90
  218.84        3340.00           6716       30936.00    135330.10
  218.87        3340.25           6720       33467.00    146450.70
  218.89        3340.50           6724       35917.00    157222.00
  218.92        3340.75           6728       38476.00    168479.50
  218.95        3341.00           6731       40312.00    176560.80
  218.98        3341.25           6735       41887.00    183496.20
  219.00        3341.50           6739       43643.00    191231.80
  219.03        3341.75           6743       44169.00    193549.60
  219.06        3342.00           6746       43936.00    192522.80
  219.09        3342.25           6750       43233.00    189425.30
  219.11        3342.50           6754       40608.00    177864.00
  219.14        3342.75           6758       38427.00    168263.90
  219.17        3343.00           6761       36617.00    160300.70
  219.20        3343.25           6765       34386.00    150490.30
  219.22        3343.50           6769       31967.00    139859.20
  219.25        3343.75           6773       29531.00    129159.80
  219.28        3344.00           6776       27583.00    120608.50
  219.31        3344.25           6780       25031.00    109411.80
  219.33        3344.50           6784       22564.00     98594.84
  219.36        3344.75           6788       19503.00     85182.44
  219.39        3345.00           6791       17101.00     74664.66
  219.41        3345.25           6795       13902.00     60666.62
  219.44        3345.50           6799       11100.00     48414.76
  219.47        3345.75           6803        8618.00     37569.15
  219.50        3346.00           6806        6803.00     29642.29
  219.52        3346.25           6810        4498.00     19580.48
  219.55        3346.50           6814        2938.00     12773.97
  219.58        3346.75           6818        1843.00      7997.87
  219.61        3347.00           6821        1074.00      4644.46
  219.63        3347.25           6825         309.00      1309.12
  219.66        3347.50           6829          72.00       275.94
  219.69        3347.75           6833          48.00       171.32
  219.71        3348.00           6836          47.00       166.96
  219.74        3348.25           6840          44.00       153.88
  219.77        3348.50           6844          40.00       136.44
  219.80        3348.75           6848          47.00       166.96
  219.82        3349.00           6851          44.00       153.88
  219.85        3349.25           6855          46.00       162.60
  219.88        3349.50           6859          42.00       145.16
  219.90        3349.75           6863          42.00       145.16
  219.93        3350.00           6867          40.00       136.44
  219.96        3350.25           6870          41.00       140.80
  219.99        3350.50           6874          42.00       145.16
  220.01        3350.75           6878          45.00       158.24
  220.04        3351.00           6882          41.00       140.80
HL scan finished at 03:40:40
end
