************************************************************
  HL Scan of (1) Internal mercury lamp
************************************************************
Integration time is 0.2294 seconds per sample
dh040818Tamanrasset 22.79-5.529 4.974364pr865
************************************************************
Dead Time -------------------------  2.8E-08 
Number of Cycles Used -------------  4 
Starting Wavelength (Angstroms) ---  3331 
Final Wavelength (Angstoms) -------  3351 
Wavelength Increment (Angstroms) --  .25 
Filter Wheel #1 Position ---------- (1) Ground quartz diffuser (ND=2.32)
Filter Wheel #2 Position ---------- (0) Clear Aperture



************************************************************
HL scan start time = 03:37:55
Dark Count =  5.7 


Time (GMT)  Wavelength (Ang)  Step Number  Raw Counts  Counts/Second

  218.42        3331.00           6581          31.00       110.29
  218.64        3331.25           6585          28.00        97.21
  218.67        3331.50           6589          28.00        97.21
  218.70        3331.75           6593          36.00       132.08
  218.72        3332.00           6596          34.00       123.37
  218.75        3332.25           6600          32.00       114.65
  218.78        3332.50           6604          28.00        97.21
  218.81        3332.75           6608          26.00        88.49
  218.83        3333.00           6611          32.00       114.65
  218.86        3333.25           6615          32.00       114.65
  218.89        3333.50           6619          36.00       132.08
  218.92        3333.75           6623          38.00       140.80
  218.94        3334.00           6626          33.00       119.01
  218.97        3334.25           6630          36.00       132.08
  219.00        3334.50           6634          38.00       140.80
  219.02        3334.75           6638          36.00       132.08
  219.05        3335.00           6641          31.00       110.29
  219.08        3335.25           6645          34.00       123.37
  219.10        3335.50           6649          44.00       166.96
  219.13        3335.75           6653          42.00       158.24
  219.16        3336.00           6656          74.00       297.74
  219.19        3336.25           6660         312.00      1335.27
  219.21        3336.50           6664         793.00      3432.33
  219.24        3336.75           6668        1450.00      6297.10
  219.27        3337.00           6671        1867.00      8115.62
  219.30        3337.25           6675        3563.00     15513.71
  219.32        3337.50           6679        5483.00     23892.61
  219.35        3337.75           6683        7438.00     32428.30
  219.38        3338.00           6686        9166.00     39976.29
  219.40        3338.25           6690       11125.00     48537.15
  219.43        3338.50           6694       13172.00     57486.96
  219.46        3338.75           6698       15229.00     66485.03
  219.49        3339.00           6701       16659.00     72743.05
  219.51        3339.25           6705       18863.00     82392.57
  219.54        3339.50           6709       21095.00     92170.00
  219.57        3339.75           6713       23079.00    100865.60
  219.60        3340.00           6716       24562.00    107368.10
  219.62        3340.25           6720       26618.00    116387.00
  219.65        3340.50           6724       28765.00    125809.90
  219.68        3340.75           6728       30634.00    134016.80
  219.71        3341.00           6731       32059.00    140276.60
  219.73        3341.25           6735       33971.00    148679.10
  219.76        3341.50           6739       35339.00    154693.40
  219.79        3341.75           6743       36187.00    158422.60
  219.82        3342.00           6746       36332.00    159060.40
  219.84        3342.25           6750       35833.00    156865.80
  219.87        3342.50           6754       35028.00    153326.00
  219.90        3342.75           6758       33205.00    145312.40
  219.92        3343.00           6761       31699.00    138694.90
  219.95        3343.25           6765       29639.00    129647.20
  219.98        3343.50           6769       27276.00    119274.30
  220.01        3343.75           6773       25170.00    110034.70
  220.03        3344.00           6776       23681.00    103504.90
  220.06        3344.25           6780       21613.00     94439.89
  220.09        3344.50           6784       19417.00     84818.91
  220.12        3344.75           6788       17283.00     75474.50
  220.14        3345.00           6791       15876.00     69316.19
  220.17        3345.25           6795       13578.00     59262.60
  220.20        3345.50           6799       10939.00     47724.15
  220.22        3345.75           6803        8212.00     35808.77
  220.25        3346.00           6806        6482.00     28253.82
  220.28        3346.25           6810        4459.00     19423.38
  220.31        3346.50           6814        2999.00     13053.16
  220.33        3346.75           6818        2054.00      8931.18
  220.36        3347.00           6821        1515.00      6580.55
  220.39        3347.25           6825         514.00      2215.92
  220.42        3347.50           6829         115.00       476.47
  220.44        3347.75           6833          37.00       136.44
  220.47        3348.00           6836          35.00       127.72
  220.50        3348.25           6840          40.00       149.52
  220.52        3348.50           6844          33.00       119.01
  220.55        3348.75           6848          42.00       158.24
  220.58        3349.00           6851          39.00       145.16
  220.61        3349.25           6855          37.00       136.44
  220.63        3349.50           6859          35.00       127.72
  220.66        3349.75           6863          35.00       127.72
  220.69        3350.00           6867          32.00       114.65
  220.71        3350.25           6870          33.00       119.01
  220.74        3350.50           6874          35.00       127.72
  220.77        3350.75           6878          41.00       153.88
  220.80        3351.00           6882          36.00       132.08
HL scan finished at 03:41:25
end
