************************************************************
  HL Scan of (1) Internal mercury lamp
************************************************************
Integration time is 0.2294 seconds per sample
dh310718Tamanrasset 22.79-5.529 4.974364pr865
************************************************************
Dead Time -------------------------  2.8E-08 
Number of Cycles Used -------------  4 
Starting Wavelength (Angstroms) ---  3331 
Final Wavelength (Angstoms) -------  3351 
Wavelength Increment (Angstroms) --  .25 
Filter Wheel #1 Position ---------- (1) Ground quartz diffuser (ND=2.32)
Filter Wheel #2 Position ---------- (0) Clear Aperture



************************************************************
HL scan start time = 03:36:02
Dark Count =  7.1 


Time (GMT)  Wavelength (Ang)  Step Number  Raw Counts  Counts/Second

  216.54        3331.00           6581          36.00       125.98
  216.76        3331.25           6585          39.00       139.06
  216.79        3331.50           6589          29.00        95.47
  216.82        3331.75           6593          37.00       130.34
  216.84        3332.00           6596          39.00       139.06
  216.87        3332.25           6600          32.00       108.54
  216.90        3332.50           6604          31.00       104.19
  216.92        3332.75           6608          35.00       121.62
  216.95        3333.00           6611          33.00       112.90
  216.98        3333.25           6615          35.00       121.62
  217.01        3333.50           6619          35.00       121.62
  217.03        3333.75           6623          30.00        99.83
  217.06        3334.00           6626          37.00       130.34
  217.09        3334.25           6630          37.00       130.34
  217.12        3334.50           6634          37.00       130.34
  217.14        3334.75           6638          40.00       143.42
  217.17        3335.00           6641          37.00       130.34
  217.20        3335.25           6645          42.00       152.14
  217.22        3335.50           6649          45.00       165.21
  217.25        3335.75           6653          58.00       221.88
  217.28        3336.00           6656         209.00       880.14
  217.31        3336.25           6660         638.00      2750.43
  217.33        3336.50           6664        1539.00      6679.10
  217.36        3336.75           6668        2813.00     12235.66
  217.39        3337.00           6671        3505.00     15254.55
  217.41        3337.25           6675        5231.00     22786.55
  217.44        3337.50           6679        7652.00     33356.77
  217.47        3337.75           6683       10029.00     43740.99
  217.50        3338.00           6686       11796.00     51464.26
  217.52        3338.25           6690       14049.00     61316.61
  217.55        3338.50           6694       16568.00     72338.61
  217.58        3338.75           6698       18998.00     82977.66
  217.61        3339.00           6701       20879.00     91217.44
  217.63        3339.25           6705       23325.00    101937.90
  217.66        3339.50           6709       25832.00    112932.40
  217.69        3339.75           6713       28078.00    122788.00
  217.71        3340.00           6716       30160.00    131928.90
  217.74        3340.25           6720       32525.00    142318.00
  217.77        3340.50           6724       34821.00    152409.70
  217.80        3340.75           6728       37059.00    162252.00
  217.82        3341.00           6731       38783.00    169837.60
  217.85        3341.25           6735       40781.00    178632.80
  217.88        3341.50           6739       42168.00    184740.90
  217.91        3341.75           6743       42500.00    186203.20
  217.93        3342.00           6746       42465.00    186049.10
  217.96        3342.25           6750       41766.00    182970.30
  217.99        3342.50           6754       40066.00    175484.80
  218.01        3342.75           6758       37699.00    165067.60
  218.04        3343.00           6761       36100.00    158033.80
  218.07        3343.25           6765       33504.00    146620.30
  218.10        3343.50           6769       30884.00    135108.70
  218.12        3343.75           6773       28578.00    124982.80
  218.15        3344.00           6776       26559.00    116121.90
  218.18        3344.25           6780       24191.00    105735.00
  218.21        3344.50           6784       21900.00     95691.53
  218.23        3344.75           6788       19271.00     84173.31
  218.26        3345.00           6791       17359.00     75801.08
  218.29        3345.25           6795       14922.00     65135.69
  218.31        3345.50           6799       11578.00     50511.24
  218.34        3345.75           6803        8276.00     36082.21
  218.37        3346.00           6806        6546.00     28527.14
  218.40        3346.25           6810        4333.00     18867.42
  218.42        3346.50           6814        2524.00     10975.04
  218.45        3346.75           6818        1392.00      6038.07
  218.48        3347.00           6821         872.00      3770.67
  218.51        3347.25           6825         277.00      1176.59
  218.53        3347.50           6829          54.00       204.45
  218.56        3347.75           6833          42.00       152.14
  218.59        3348.00           6836          41.00       147.78
  218.61        3348.25           6840          38.00       134.70
  218.64        3348.50           6844          40.00       143.42
  218.67        3348.75           6848          40.00       143.42
  218.70        3349.00           6851          43.00       156.50
  218.72        3349.25           6855          41.00       147.78
  218.75        3349.50           6859          37.00       130.34
  218.78        3349.75           6863          41.00       147.78
  218.80        3350.00           6867          41.00       147.78
  218.83        3350.25           6870          38.00       134.70
  218.86        3350.50           6874          41.00       147.78
  218.89        3350.75           6878          40.00       143.42
  218.91        3351.00           6882          44.00       160.86
HL scan finished at 03:39:32
end
