************************************************************
  HL Scan of (1) Internal mercury lamp
************************************************************
Integration time is 0.2294 seconds per sample
dh060818Tamanrasset 22.79-5.529 4.974364pr865
************************************************************
Dead Time -------------------------  2.8E-08 
Number of Cycles Used -------------  4 
Starting Wavelength (Angstroms) ---  3331 
Final Wavelength (Angstoms) -------  3351 
Wavelength Increment (Angstroms) --  .25 
Filter Wheel #1 Position ---------- (1) Ground quartz diffuser (ND=2.32)
Filter Wheel #2 Position ---------- (0) Clear Aperture



************************************************************
HL scan start time = 03:38:58
Dark Count =  5.9 


Time (GMT)  Wavelength (Ang)  Step Number  Raw Counts  Counts/Second

  219.47        3331.00           6581          31.00       109.42
  219.69        3331.25           6585          29.00       100.70
  219.72        3331.50           6589          30.00       105.06
  219.75        3331.75           6593          34.00       122.49
  219.77        3332.00           6596          38.00       139.93
  219.80        3332.25           6600          36.00       131.21
  219.83        3332.50           6604          32.00       113.78
  219.86        3332.75           6608          33.00       118.13
  219.88        3333.00           6611          36.00       131.21
  219.91        3333.25           6615          28.00        96.34
  219.94        3333.50           6619          35.00       126.85
  219.97        3333.75           6623          37.00       135.57
  219.99        3334.00           6626          30.00       105.06
  220.02        3334.25           6630          33.00       118.13
  220.05        3334.50           6634          33.00       118.13
  220.07        3334.75           6638          30.00       105.06
  220.10        3335.00           6641          29.00       100.70
  220.13        3335.25           6645          42.00       157.37
  220.16        3335.50           6649          44.00       166.09
  220.18        3335.75           6653          49.00       187.88
  220.21        3336.00           6656         135.00       562.78
  220.24        3336.25           6660         459.00      1975.26
  220.26        3336.50           6664        1080.00      4682.83
  220.29        3336.75           6668        1909.00      8297.92
  220.32        3337.00           6671        2408.00     10474.30
  220.35        3337.25           6675        4212.00     18344.64
  220.37        3337.50           6679        6308.00     27493.26
  220.40        3337.75           6683        8422.00     36725.19
  220.43        3338.00           6686       10007.00     43650.09
  220.46        3338.25           6690       12244.00     53428.17
  220.48        3338.50           6694       14367.00     62712.90
  220.51        3338.75           6698       16515.00     72111.90
  220.54        3339.00           6701       18002.00     78621.45
  220.56        3339.25           6705       20249.00     88462.52
  220.59        3339.50           6709       22578.00     98668.46
  220.62        3339.75           6713       24664.00    107814.50
  220.65        3340.00           6716       26418.00    115508.60
  220.67        3340.25           6720       28632.00    125225.20
  220.70        3340.50           6724       30699.00    134301.40
  220.73        3340.75           6728       32951.00    144195.20
  220.76        3341.00           6731       34294.00    150098.10
  220.78        3341.25           6735       36143.00    158228.20
  220.81        3341.50           6739       37311.00    163365.90
  220.84        3341.75           6743       37830.00    165649.30
  220.86        3342.00           6746       37964.00    166238.90
  220.89        3342.25           6750       37399.00    163753.10
  220.92        3342.50           6754       36107.00    158069.90
  220.95        3342.75           6758       34034.00    148955.20
  220.97        3343.00           6761       32216.00    140965.50
  221.00        3343.25           6765       30119.00    131754.10
  221.03        3343.50           6769       27862.00    121845.20
  221.06        3343.75           6773       25820.00    112885.00
  221.08        3344.00           6776       24046.00    105104.40
  221.11        3344.25           6780       22013.00     96192.03
  221.14        3344.50           6784       19758.00     86311.65
  221.17        3344.75           6788       17768.00     77596.93
  221.19        3345.00           6791       15970.00     69726.66
  221.22        3345.25           6795       13665.00     59642.24
  221.25        3345.50           6799       10670.00     46547.55
  221.28        3345.75           6803        7735.00     33724.51
  221.30        3346.00           6806        6197.00     27008.65
  221.33        3346.25           6810        4170.00     18161.37
  221.36        3346.50           6814        2850.00     12402.30
  221.38        3346.75           6818        1863.00      8097.30
  221.41        3347.00           6821        1199.00      5201.72
  221.44        3347.25           6825         379.00      1626.49
  221.47        3347.50           6829          81.00       327.38
  221.49        3347.75           6833          40.00       148.65
  221.52        3348.00           6836          41.00       153.01
  221.55        3348.25           6840          36.00       131.21
  221.57        3348.50           6844          39.00       144.29
  221.60        3348.75           6848          34.00       122.49
  221.63        3349.00           6851          41.00       153.01
  221.66        3349.25           6855          36.00       131.21
  221.68        3349.50           6859          37.00       135.57
  221.71        3349.75           6863          40.00       148.65
  221.74        3350.00           6867          38.00       139.93
  221.76        3350.25           6870          38.00       139.93
  221.79        3350.50           6874          38.00       139.93
  221.82        3350.75           6878          39.00       144.29
  221.85        3351.00           6882          37.00       135.57
HL scan finished at 03:42:28
end
