************************************************************
  HL Scan of (1) Internal mercury lamp
************************************************************
Integration time is 0.2294 seconds per sample
dh070817Tamanrasset 22.79-5.529 3.302118pr865
************************************************************
Dead Time -------------------------  2.8E-08 
Number of Cycles Used -------------  4 
Starting Wavelength (Angstroms) ---  3331 
Final Wavelength (Angstoms) -------  3351 
Wavelength Increment (Angstroms) --  .25 
Filter Wheel #1 Position ---------- (1) Ground quartz diffuser (ND=2.32)
Filter Wheel #2 Position ---------- (0) Clear Aperture



************************************************************
HL scan start time = 03:39:08
Dark Count =  5.7 


Time (GMT)  Wavelength (Ang)  Step Number  Raw Counts  Counts/Second

  219.65        3331.00           6581          30.00       105.93
  219.86        3331.25           6585          30.00       105.93
  219.89        3331.50           6589          32.00       114.65
  219.92        3331.75           6593          33.00       119.01
  219.95        3332.00           6596          31.00       110.29
  219.97        3332.25           6600          33.00       119.01
  220.00        3332.50           6604          35.00       127.72
  220.03        3332.75           6608          28.00        97.21
  220.06        3333.00           6611          33.00       119.01
  220.08        3333.25           6615          34.00       123.37
  220.11        3333.50           6619          33.00       119.01
  220.14        3333.75           6623          35.00       127.72
  220.16        3334.00           6626          32.00       114.65
  220.19        3334.25           6630          35.00       127.72
  220.22        3334.50           6634          30.00       105.93
  220.25        3334.75           6638          28.00        97.21
  220.27        3335.00           6641          36.00       132.08
  220.30        3335.25           6645          41.00       153.88
  220.33        3335.50           6649          41.00       153.88
  220.35        3335.75           6653          70.00       280.30
  220.38        3336.00           6656         158.00       663.92
  220.41        3336.25           6660         510.00      2198.48
  220.44        3336.50           6664        1015.00      4400.28
  220.46        3336.75           6668        1560.00      6776.79
  220.49        3337.00           6671        2545.00     11072.74
  220.52        3337.25           6675        4325.00     18838.62
  220.54        3337.50           6679        6232.00     27162.32
  220.57        3337.75           6683        8288.00     36140.74
  220.60        3338.00           6686        9875.00     43074.15
  220.63        3338.25           6690       12076.00     52694.52
  220.65        3338.50           6694       14070.00     61414.59
  220.68        3338.75           6698       16192.00     70699.10
  220.71        3339.00           6701       17671.00     77173.13
  220.74        3339.25           6705       20013.00     87429.56
  220.76        3339.50           6709       22237.00     97174.69
  220.79        3339.75           6713       24342.00    106403.30
  220.82        3340.00           6716       25868.00    113096.50
  220.84        3340.25           6720       27730.00    121266.80
  220.87        3340.50           6724       29955.00    131034.80
  220.90        3340.75           6728       32102.00    140465.50
  220.93        3341.00           6731       33440.00    146345.20
  220.96        3341.25           6735       35069.00    153506.30
  220.98        3341.50           6739       36354.00    159157.10
  221.01        3341.75           6743       37002.00    162007.40
  221.04        3342.00           6746       36960.00    161822.70
  221.06        3342.25           6750       36078.00    157943.30
  221.09        3342.50           6754       34665.00    151730.00
  221.12        3342.75           6758       32404.00    141792.40
  221.15        3343.00           6761       31002.00    135633.10
  221.17        3343.25           6765       29312.00    128211.40
  221.20        3343.50           6769       27423.00    119919.40
  221.23        3343.75           6773       25204.00    110183.80
  221.26        3344.00           6776       23631.00    103285.60
  221.28        3344.25           6780       21377.00     93405.71
  221.31        3344.50           6784       19426.00     84858.32
  221.34        3344.75           6788       17148.00     74883.53
  221.37        3345.00           6791       15091.00     65881.24
  221.39        3345.25           6795       12177.00     53136.10
  221.42        3345.50           6799        9649.00     42086.62
  221.45        3345.75           6803        7558.00     32952.36
  221.48        3346.00           6806        6003.00     26162.58
  221.50        3346.25           6810        4064.00     17699.70
  221.53        3346.50           6814        3148.00     13703.16
  221.56        3346.75           6818        1923.00      8359.85
  221.58        3347.00           6821        1029.00      4461.32
  221.61        3347.25           6825         336.00      1439.90
  221.64        3347.50           6829          64.00       254.14
  221.67        3347.75           6833          39.00       145.16
  221.69        3348.00           6836          42.00       158.24
  221.72        3348.25           6840          36.00       132.08
  221.75        3348.50           6844          34.00       123.37
  221.77        3348.75           6848          43.00       162.60
  221.80        3349.00           6851          38.00       140.80
  221.83        3349.25           6855          36.00       132.08
  221.86        3349.50           6859          39.00       145.16
  221.88        3349.75           6863          36.00       132.08
  221.91        3350.00           6867          34.00       123.37
  221.94        3350.25           6870          33.00       119.01
  221.97        3350.50           6874          33.00       119.01
  221.99        3350.75           6878          34.00       123.37
  222.02        3351.00           6882          31.00       110.29
HL scan finished at 03:42:39
end
