************************************************************
  HL Scan of (1) Internal mercury lamp
************************************************************
Integration time is 0.2294 seconds per sample
dh310717Tamanrasset 22.79-5.529 3.557033pr865
************************************************************
Dead Time -------------------------  2.8E-08 
Number of Cycles Used -------------  4 
Starting Wavelength (Angstroms) ---  3331 
Final Wavelength (Angstoms) -------  3351 
Wavelength Increment (Angstroms) --  .25 
Filter Wheel #1 Position ---------- (1) Ground quartz diffuser (ND=2.32)
Filter Wheel #2 Position ---------- (0) Clear Aperture



************************************************************
HL scan start time = 03:36:44
Dark Count =  6.7 


Time (GMT)  Wavelength (Ang)  Step Number  Raw Counts  Counts/Second

  217.24        3331.00           6581          34.00       119.01
  217.46        3331.25           6585          30.00       101.57
  217.49        3331.50           6589          36.00       127.72
  217.52        3331.75           6593          33.00       114.65
  217.54        3332.00           6596          34.00       119.01
  217.57        3332.25           6600          33.00       114.65
  217.60        3332.50           6604          37.00       132.08
  217.63        3332.75           6608          36.00       127.72
  217.65        3333.00           6611          36.00       127.72
  217.68        3333.25           6615          39.00       140.80
  217.71        3333.50           6619          40.00       145.16
  217.74        3333.75           6623          40.00       145.16
  217.76        3334.00           6626          34.00       119.01
  217.79        3334.25           6630          35.00       123.37
  217.82        3334.50           6634          39.00       140.80
  217.84        3334.75           6638          34.00       119.01
  217.87        3335.00           6641          35.00       123.37
  217.90        3335.25           6645          50.00       188.75
  217.93        3335.50           6649          44.00       162.60
  217.95        3335.75           6653          62.00       241.07
  217.98        3336.00           6656         166.00       694.43
  218.01        3336.25           6660         489.00      2102.57
  218.03        3336.50           6664        1295.00      5616.84
  218.06        3336.75           6668        2643.00     11495.86
  218.09        3337.00           6671        2997.00     13040.07
  218.12        3337.25           6675        4749.00     20684.60
  218.14        3337.50           6679        7042.00     30694.64
  218.17        3337.75           6683        9478.00     41335.08
  218.20        3338.00           6686       11285.00     49232.17
  218.22        3338.25           6690       13736.00     59949.29
  218.25        3338.50           6694       16067.00     70147.68
  218.28        3338.75           6698       18579.00     81144.50
  218.31        3339.00           6701       20563.00     89834.66
  218.33        3339.25           6705       23181.00    101308.30
  218.36        3339.50           6709       25543.00    111666.40
  218.39        3339.75           6713       27937.00    122170.90
  218.42        3340.00           6716       29919.00    130872.30
  218.44        3340.25           6720       32355.00    141572.80
  218.47        3340.50           6724       34801.00    152323.50
  218.50        3340.75           6728       37203.00    162887.30
  218.53        3341.00           6731       38794.00    169887.70
  218.55        3341.25           6735       40916.00    179228.90
  218.58        3341.50           6739       42610.00    186689.60
  218.61        3341.75           6743       43171.00    189161.00
  218.64        3342.00           6746       43434.00    190319.70
  218.66        3342.25           6750       42611.00    186694.00
  218.69        3342.50           6754       41147.00    180246.10
  218.72        3342.75           6758       38375.00    168043.90
  218.74        3343.00           6761       36582.00    160155.60
  218.77        3343.25           6765       34346.00    150323.20
  218.80        3343.50           6769       32531.00    142346.10
  218.83        3343.75           6773       30060.00    131491.50
  218.85        3344.00           6776       28206.00    123351.60
  218.88        3344.25           6780       25539.00    111648.80
  218.91        3344.50           6784       23028.00    100637.60
  218.94        3344.75           6788       20387.00     89063.59
  218.96        3345.00           6791       18210.00     79528.69
  218.99        3345.25           6795       15107.00     65946.85
  219.02        3345.50           6799       11725.00     51155.61
  219.05        3345.75           6803        9159.00     39941.33
  219.07        3346.00           6806        7389.00     32209.94
  219.10        3346.25           6810        5104.00     22233.98
  219.13        3346.50           6814        3100.00     13489.40
  219.15        3346.75           6818        1936.00      8412.18
  219.18        3347.00           6821        1278.00      5542.71
  219.21        3347.25           6825         407.00      1745.07
  219.24        3347.50           6829          84.00       336.97
  219.26        3347.75           6833          51.00       193.11
  219.29        3348.00           6836          49.00       184.40
  219.32        3348.25           6840          39.00       140.80
  219.35        3348.50           6844          40.00       145.16
  219.37        3348.75           6848          39.00       140.80
  219.40        3349.00           6851          46.00       171.32
  219.43        3349.25           6855          45.00       166.96
  219.45        3349.50           6859          38.00       136.44
  219.48        3349.75           6863          37.00       132.08
  219.51        3350.00           6867          42.00       153.88
  219.54        3350.25           6870          32.00       110.29
  219.56        3350.50           6874          44.00       162.60
  219.59        3350.75           6878          40.00       145.16
  219.62        3351.00           6882          37.00       132.08
HL scan finished at 03:40:14
end
