************************************************************
  HL Scan of (1) Internal mercury lamp
************************************************************
Integration time is 0.2294 seconds per sample
dh060817Tamanrasset 22.79-5.529 3.393887pr865
************************************************************
Dead Time -------------------------  2.8E-08 
Number of Cycles Used -------------  4 
Starting Wavelength (Angstroms) ---  3331 
Final Wavelength (Angstoms) -------  3351 
Wavelength Increment (Angstroms) --  .25 
Filter Wheel #1 Position ---------- (1) Ground quartz diffuser (ND=2.32)
Filter Wheel #2 Position ---------- (0) Clear Aperture



************************************************************
HL scan start time = 03:39:12
Dark Count =  6.2 


Time (GMT)  Wavelength (Ang)  Step Number  Raw Counts  Counts/Second

  219.71        3331.00           6581          37.00       134.26
  219.92        3331.25           6585          38.00       138.62
  219.95        3331.50           6589          36.00       129.90
  219.98        3331.75           6593          34.00       121.19
  220.01        3332.00           6596          31.00       108.11
  220.03        3332.25           6600          33.00       116.83
  220.06        3332.50           6604          38.00       138.62
  220.09        3332.75           6608          34.00       121.19
  220.12        3333.00           6611          30.00       103.75
  220.14        3333.25           6615          32.00       112.47
  220.17        3333.50           6619          32.00       112.47
  220.20        3333.75           6623          38.00       138.62
  220.22        3334.00           6626          29.00        99.39
  220.25        3334.25           6630          37.00       134.26
  220.28        3334.50           6634          39.00       142.98
  220.31        3334.75           6638          32.00       112.47
  220.33        3335.00           6641          35.00       125.55
  220.36        3335.25           6645          43.00       160.42
  220.39        3335.50           6649          38.00       138.62
  220.41        3335.75           6653          57.00       221.45
  220.44        3336.00           6656         132.00       548.40
  220.47        3336.25           6660         411.00      1764.69
  220.50        3336.50           6664        1024.00      4437.34
  220.52        3336.75           6668        1724.00      7489.80
  220.55        3337.00           6671        2279.00      9910.34
  220.58        3337.25           6675        4198.00     18282.24
  220.61        3337.50           6679        6255.00     27260.56
  220.63        3337.75           6683        8493.00     37034.02
  220.66        3338.00           6686       10264.00     44771.88
  220.69        3338.25           6690       12511.00     54594.29
  220.71        3338.50           6694       14899.00     65039.00
  220.74        3338.75           6698       17073.00     74553.03
  220.77        3339.00           6701       18810.00     82158.28
  220.80        3339.25           6705       21185.00     92562.18
  220.82        3339.50           6709       23625.00    103257.10
  220.85        3339.75           6713       25792.00    112760.90
  220.88        3340.00           6716       27456.00    120062.10
  220.91        3340.25           6720       29702.00    129921.70
  220.93        3340.50           6724       31927.00    139694.40
  220.96        3340.75           6728       34166.00    149534.10
  220.99        3341.00           6731       35700.00    156278.70
  221.02        3341.25           6735       37590.00    164592.00
  221.04        3341.50           6739       38937.00    170519.30
  221.07        3341.75           6743       39881.00    174674.40
  221.10        3342.00           6746       39896.00    174740.40
  221.12        3342.25           6750       39477.00    172896.00
  221.15        3342.50           6754       37549.00    164411.60
  221.18        3342.75           6758       35382.00    154880.30
  221.21        3343.00           6761       33903.00    148378.00
  221.23        3343.25           6765       32027.00    140133.80
  221.26        3343.50           6769       29953.00    131023.90
  221.29        3343.75           6773       27699.00    121128.50
  221.32        3344.00           6776       25941.00    113414.50
  221.34        3344.25           6780       23858.00    104278.80
  221.37        3344.50           6784       21454.00     93740.94
  221.40        3344.75           6788       18965.00     82837.07
  221.43        3345.00           6791       16769.00     73222.34
  221.45        3345.25           6795       13966.00     60957.49
  221.48        3345.50           6799       11154.00     48661.73
  221.51        3345.75           6803        8863.00     38650.35
  221.54        3346.00           6806        7227.00     31504.68
  221.56        3346.25           6810        4969.00     21646.94
  221.59        3346.50           6814        3482.00     15158.13
  221.62        3346.75           6818        2591.00     11271.21
  221.64        3347.00           6821        1575.00      6840.02
  221.67        3347.25           6825         525.00      2261.70
  221.70        3347.50           6829         117.00       483.01
  221.73        3347.75           6833          46.00       173.50
  221.75        3348.00           6836          42.00       156.06
  221.78        3348.25           6840          41.00       151.70
  221.81        3348.50           6844          41.00       151.70
  221.83        3348.75           6848          41.00       151.70
  221.86        3349.00           6851          44.00       164.78
  221.89        3349.25           6855          35.00       125.55
  221.92        3349.50           6859          36.00       129.90
  221.94        3349.75           6863          42.00       156.06
  221.97        3350.00           6867          38.00       138.62
  222.00        3350.25           6870          36.00       129.90
  222.02        3350.50           6874          36.00       129.90
  222.05        3350.75           6878          35.00       125.55
  222.08        3351.00           6882          33.00       116.83
HL scan finished at 03:42:42
end
