************************************************************
  HL Scan of (1) Internal mercury lamp
************************************************************
Integration time is 0.2294 seconds per sample
dh020818Tamanrasset 22.79-5.529 4.974364pr865
************************************************************
Dead Time -------------------------  2.8E-08 
Number of Cycles Used -------------  4 
Starting Wavelength (Angstroms) ---  3331 
Final Wavelength (Angstoms) -------  3351 
Wavelength Increment (Angstroms) --  .25 
Filter Wheel #1 Position ---------- (1) Ground quartz diffuser (ND=2.32)
Filter Wheel #2 Position ---------- (0) Clear Aperture



************************************************************
HL scan start time = 03:36:53
Dark Count =  5.4 


Time (GMT)  Wavelength (Ang)  Step Number  Raw Counts  Counts/Second

  217.39        3331.00           6581          31.00       111.60
  217.61        3331.25           6585          39.00       146.47
  217.64        3331.50           6589          30.00       107.24
  217.67        3331.75           6593          34.00       124.67
  217.69        3332.00           6596          31.00       111.60
  217.72        3332.25           6600          31.00       111.60
  217.75        3332.50           6604          33.00       120.31
  217.77        3332.75           6608          35.00       129.03
  217.80        3333.00           6611          35.00       129.03
  217.83        3333.25           6615          38.00       142.11
  217.86        3333.50           6619          37.00       137.75
  217.88        3333.75           6623          34.00       124.67
  217.91        3334.00           6626          45.00       172.63
  217.94        3334.25           6630          39.00       146.47
  217.96        3334.50           6634          28.00        98.52
  217.99        3334.75           6638          34.00       124.67
  218.02        3335.00           6641          34.00       124.67
  218.05        3335.25           6645          44.00       168.27
  218.07        3335.50           6649          49.00       190.06
  218.10        3335.75           6653          49.00       190.06
  218.13        3336.00           6656         156.00       656.51
  218.16        3336.25           6660         509.00      2195.43
  218.18        3336.50           6664        1251.00      5430.64
  218.21        3336.75           6668        2238.00      9735.00
  218.24        3337.00           6671        2578.00     11218.00
  218.26        3337.25           6675        4476.00     19498.87
  218.29        3337.50           6679        6776.00     29538.81
  218.32        3337.75           6683        9008.00     39287.31
  218.35        3338.00           6686       10630.00     46374.92
  218.37        3338.25           6690       12827.00     55979.57
  218.40        3338.50           6694       15164.00     66201.94
  218.43        3338.75           6698       17500.00     76425.79
  218.46        3339.00           6701       19222.00     83966.13
  218.48        3339.25           6705       21558.00     94200.18
  218.51        3339.50           6709       24002.00    104913.70
  218.54        3339.75           6713       26166.00    114405.10
  218.57        3340.00           6716       27892.00    121979.10
  218.59        3340.25           6720       30351.00    132775.20
  218.62        3340.50           6724       32586.00    142593.50
  218.65        3340.75           6728       34665.00    151731.30
  218.67        3341.00           6731       36146.00    158243.60
  218.70        3341.25           6735       38154.00    167077.10
  218.73        3341.50           6739       39447.00    172767.50
  218.76        3341.75           6743       39864.00    174603.10
  218.78        3342.00           6746       40246.00    176284.70
  218.81        3342.25           6750       39587.00    173383.80
  218.84        3342.50           6754       38105.00    166861.50
  218.87        3342.75           6758       36174.00    158366.80
  218.89        3343.00           6761       34297.00    150113.50
  218.92        3343.25           6765       32003.00    140031.90
  218.95        3343.50           6769       29770.00    130223.80
  218.98        3343.75           6773       27450.00    120039.20
  219.00        3344.00           6776       25704.00    112378.30
  219.03        3344.25           6780       23357.00    102085.60
  219.06        3344.50           6784       21031.00     91890.88
  219.08        3344.75           6788       18568.00     81102.01
  219.11        3345.00           6791       16909.00     73838.65
  219.14        3345.25           6795       14676.00     64066.88
  219.17        3345.50           6799       11769.00     51353.65
  219.19        3345.75           6803        8284.00     36124.58
  219.22        3346.00           6806        6544.00     28525.83
  219.25        3346.25           6810        4411.00     19215.22
  219.28        3346.50           6814        2688.00     11697.82
  219.30        3346.75           6818        1742.00      7571.79
  219.33        3347.00           6821        1150.00      4990.24
  219.36        3347.25           6825         369.00      1585.07
  219.38        3347.50           6829          86.00       351.35
  219.41        3347.75           6833          40.00       150.83
  219.44        3348.00           6836          41.00       155.19
  219.47        3348.25           6840          37.00       137.75
  219.49        3348.50           6844          44.00       168.27
  219.52        3348.75           6848          33.00       120.31
  219.55        3349.00           6851          39.00       146.47
  219.57        3349.25           6855          38.00       142.11
  219.60        3349.50           6859          42.00       159.55
  219.63        3349.75           6863          37.00       137.75
  219.66        3350.00           6867          37.00       137.75
  219.68        3350.25           6870          36.00       133.39
  219.71        3350.50           6874          35.00       129.03
  219.74        3350.75           6878          44.00       168.27
  219.76        3351.00           6882          34.00       124.67
HL scan finished at 03:40:23
end
