************************************************************
  HL Scan of (1) Internal mercury lamp
************************************************************
Integration time is 0.2294 seconds per sample
dh300718Tamanrasset 22.79-5.529 4.974364pr865
************************************************************
Dead Time -------------------------  2.8E-08 
Number of Cycles Used -------------  4 
Starting Wavelength (Angstroms) ---  3331 
Final Wavelength (Angstoms) -------  3351 
Wavelength Increment (Angstroms) --  .25 
Filter Wheel #1 Position ---------- (1) Ground quartz diffuser (ND=2.32)
Filter Wheel #2 Position ---------- (0) Clear Aperture



************************************************************
HL scan start time = 03:35:01
Dark Count =  5.9 


Time (GMT)  Wavelength (Ang)  Step Number  Raw Counts  Counts/Second

  215.52        3331.00           6581          36.00       131.21
  215.74        3331.25           6585          35.00       126.85
  215.77        3331.50           6589          32.00       113.78
  215.80        3331.75           6593          40.00       148.65
  215.82        3332.00           6596          42.00       157.37
  215.85        3332.25           6600          34.00       122.49
  215.88        3332.50           6604          32.00       113.78
  215.91        3332.75           6608          36.00       131.21
  215.93        3333.00           6611          35.00       126.85
  215.96        3333.25           6615          34.00       122.49
  215.99        3333.50           6619          38.00       139.93
  216.02        3333.75           6623          34.00       122.49
  216.04        3334.00           6626          39.00       144.29
  216.07        3334.25           6630          35.00       126.85
  216.10        3334.50           6634          30.00       105.06
  216.12        3334.75           6638          37.00       135.57
  216.15        3335.00           6641          36.00       131.21
  216.18        3335.25           6645          43.00       161.73
  216.21        3335.50           6649          42.00       157.37
  216.23        3335.75           6653          47.00       179.16
  216.26        3336.00           6656          78.00       314.30
  216.29        3336.25           6660         380.00      1630.85
  216.31        3336.50           6664        1106.00      4796.20
  216.34        3336.75           6668        2198.00      9558.36
  216.37        3337.00           6671        2806.00     12210.36
  216.40        3337.25           6675        4330.00     18859.57
  216.42        3337.50           6679        6505.00     28353.37
  216.45        3337.75           6683        8794.00     38350.23
  216.48        3338.00           6686       10594.00     46215.39
  216.50        3338.25           6690       12938.00     56462.78
  216.53        3338.50           6694       15513.00     67726.83
  216.56        3338.75           6698       17677.00     77198.51
  216.59        3339.00           6701       19592.00     85584.53
  216.61        3339.25           6705       21989.00     96086.85
  216.64        3339.50           6709       24412.00    106709.40
  216.67        3339.75           6713       26865.00    117469.90
  216.70        3340.00           6716       28462.00    124478.90
  216.72        3340.25           6720       31064.00    135904.60
  216.75        3340.50           6724       33435.00    146322.40
  216.78        3340.75           6728       35742.00    156464.70
  216.81        3341.00           6731       37313.00    163374.70
  216.83        3341.25           6735       39450.00    172778.50
  216.86        3341.50           6739       40935.00    179316.10
  216.89        3341.75           6743       41597.00    182231.30
  216.91        3342.00           6746       41878.00    183468.90
  216.94        3342.25           6750       41023.00    179703.60
  216.97        3342.50           6754       39940.00    174935.40
  217.00        3342.75           6758       37973.00    166278.50
  217.02        3343.00           6761       36041.00    157779.60
  217.05        3343.25           6765       33661.00    147315.70
  217.08        3343.50           6769       31113.00    136119.80
  217.11        3343.75           6773       28792.00    125927.50
  217.13        3344.00           6776       27053.00    118294.80
  217.16        3344.25           6780       24437.00    106819.00
  217.19        3344.50           6784       22116.00     96643.46
  217.22        3344.75           6788       19928.00     87056.33
  217.24        3345.00           6791       18106.00     79076.81
  217.27        3345.25           6795       15678.00     68448.85
  217.30        3345.50           6799       12869.00     56161.05
  217.32        3345.75           6803        9440.00     41172.55
  217.35        3346.00           6806        7291.00     31785.47
  217.38        3346.25           6810        5020.00     21870.85
  217.41        3346.50           6814        3117.00     13567.05
  217.43        3346.75           6818        1926.00      8372.06
  217.46        3347.00           6821        1393.00      6047.67
  217.49        3347.25           6825         504.00      2171.45
  217.51        3347.50           6829         125.00       519.19
  217.54        3347.75           6833          40.00       148.65
  217.57        3348.00           6836          42.00       157.37
  217.60        3348.25           6840          41.00       153.01
  217.62        3348.50           6844          39.00       144.29
  217.65        3348.75           6848          39.00       144.29
  217.68        3349.00           6851          47.00       179.16
  217.71        3349.25           6855          45.00       170.45
  217.73        3349.50           6859          40.00       148.65
  217.76        3349.75           6863          40.00       148.65
  217.79        3350.00           6867          41.00       153.01
  217.81        3350.25           6870          44.00       166.09
  217.84        3350.50           6874          37.00       135.57
  217.87        3350.75           6878          39.00       144.29
  217.90        3351.00           6882          43.00       161.73
HL scan finished at 03:38:31
end
