************************************************************
  HL Scan of (1) Internal mercury lamp
************************************************************
Integration time is 0.2294 seconds per sample
dh030818Tamanrasset 22.79-5.529 4.974364pr865
************************************************************
Dead Time -------------------------  2.8E-08 
Number of Cycles Used -------------  4 
Starting Wavelength (Angstroms) ---  3331 
Final Wavelength (Angstoms) -------  3351 
Wavelength Increment (Angstroms) --  .25 
Filter Wheel #1 Position ---------- (1) Ground quartz diffuser (ND=2.32)
Filter Wheel #2 Position ---------- (0) Clear Aperture



************************************************************
HL scan start time = 03:37:55
Dark Count =  7 


Time (GMT)  Wavelength (Ang)  Step Number  Raw Counts  Counts/Second

  218.42        3331.00           6581          32.00       108.98
  218.64        3331.25           6585          36.00       126.42
  218.67        3331.50           6589          32.00       108.98
  218.70        3331.75           6593          32.00       108.98
  218.72        3332.00           6596          46.00       170.01
  218.75        3332.25           6600          35.00       122.06
  218.78        3332.50           6604          29.00        95.90
  218.80        3332.75           6608          35.00       122.06
  218.83        3333.00           6611          33.00       113.34
  218.86        3333.25           6615          32.00       108.98
  218.89        3333.50           6619          29.00        95.90
  218.91        3333.75           6623          33.00       113.34
  218.94        3334.00           6626          36.00       126.42
  218.97        3334.25           6630          38.00       135.14
  218.99        3334.50           6634          38.00       135.14
  219.02        3334.75           6638          33.00       113.34
  219.05        3335.00           6641          37.00       130.78
  219.08        3335.25           6645          48.00       178.73
  219.10        3335.50           6649          43.00       156.93
  219.13        3335.75           6653          52.00       196.16
  219.16        3336.00           6656         167.00       697.49
  219.18        3336.25           6660         573.00      2467.48
  219.21        3336.50           6664        1324.00      5741.99
  219.24        3336.75           6668        2240.00      9736.74
  219.27        3337.00           6671        2893.00     12585.08
  219.29        3337.25           6675        4830.00     21036.80
  219.32        3337.50           6679        7049.00     30723.90
  219.35        3337.75           6683        9423.00     41093.47
  219.38        3338.00           6686       11214.00     48920.49
  219.40        3338.25           6690       13575.00     59243.80
  219.43        3338.50           6694       15894.00     69389.27
  219.46        3338.75           6698       18278.00     79825.12
  219.48        3339.00           6701       20072.00     87682.31
  219.51        3339.25           6705       22493.00     98291.08
  219.54        3339.50           6709       25022.00    109379.80
  219.57        3339.75           6713       27429.00    119940.10
  219.59        3340.00           6716       28962.00    126669.10
  219.62        3340.25           6720       31266.00    136787.10
  219.65        3340.50           6724       33738.00    147649.30
  219.67        3340.75           6728       36319.00    158997.50
  219.70        3341.00           6731       37695.00    165050.50
  219.73        3341.25           6735       39636.00    173592.40
  219.76        3341.50           6739       41018.00    179676.70
  219.78        3341.75           6743       41637.00    182402.60
  219.81        3342.00           6746       41477.00    181698.00
  219.84        3342.25           6750       40999.00    179593.10
  219.87        3342.50           6754       39559.00    173253.40
  219.89        3342.75           6758       37255.00    163114.70
  219.92        3343.00           6761       35699.00    156270.80
  219.95        3343.25           6765       33204.00    145302.30
  219.98        3343.50           6769       30758.00    134555.70
  220.00        3343.75           6773       28312.00    123815.60
  220.03        3344.00           6776       26269.00    114850.00
  220.06        3344.25           6780       24078.00    105239.90
  220.09        3344.50           6784       21752.00     95043.36
  220.11        3344.75           6788       19171.00     83735.77
  220.14        3345.00           6791       17455.00     76221.79
  220.17        3345.25           6795       14932.00     65179.88
  220.19        3345.50           6799       11341.00     49475.64
  220.22        3345.75           6803        8342.00     36370.93
  220.25        3346.00           6806        6706.00     29226.17
  220.28        3346.25           6810        4480.00     19509.35
  220.30        3346.50           6814        2808.00     12214.29
  220.33        3346.75           6818        1892.00      8218.98
  220.36        3347.00           6821        1246.00      5401.86
  220.39        3347.25           6825         400.00      1713.25
  220.41        3347.50           6829          85.00       340.02
  220.44        3347.75           6833          50.00       187.45
  220.47        3348.00           6836          43.00       156.93
  220.49        3348.25           6840          41.00       148.21
  220.52        3348.50           6844          43.00       156.93
  220.55        3348.75           6848          31.00       104.62
  220.57        3349.00           6851          42.00       152.57
  220.60        3349.25           6855          33.00       113.34
  220.63        3349.50           6859          37.00       130.78
  220.66        3349.75           6863          38.00       135.14
  220.68        3350.00           6867          47.00       174.37
  220.71        3350.25           6870          44.00       161.29
  220.74        3350.50           6874          43.00       156.93
  220.77        3350.75           6878          39.00       139.49
  220.79        3351.00           6882          34.00       117.70
HL scan finished at 03:41:25
end
