************************************************************
  HL Scan of (1) Internal mercury lamp
************************************************************
Integration time is 0.2294 seconds per sample
dh290718Tamanrasset 22.79-5.529 4.974364pr865
************************************************************
Dead Time -------------------------  2.8E-08 
Number of Cycles Used -------------  4 
Starting Wavelength (Angstroms) ---  3331 
Final Wavelength (Angstoms) -------  3351 
Wavelength Increment (Angstroms) --  .25 
Filter Wheel #1 Position ---------- (1) Ground quartz diffuser (ND=2.32)
Filter Wheel #2 Position ---------- (0) Clear Aperture



************************************************************
HL scan start time = 03:35:32
Dark Count =  7.1 


Time (GMT)  Wavelength (Ang)  Step Number  Raw Counts  Counts/Second

  216.05        3331.00           6581          42.00       152.14
  216.26        3331.25           6585          38.00       134.70
  216.29        3331.50           6589          30.00        99.83
  216.32        3331.75           6593          38.00       134.70
  216.35        3332.00           6596          33.00       112.90
  216.37        3332.25           6600          36.00       125.98
  216.40        3332.50           6604          35.00       121.62
  216.43        3332.75           6608          33.00       112.90
  216.45        3333.00           6611          34.00       117.26
  216.48        3333.25           6615          30.00        99.83
  216.51        3333.50           6619          41.00       147.78
  216.54        3333.75           6623          33.00       112.90
  216.56        3334.00           6626          32.00       108.54
  216.59        3334.25           6630          38.00       134.70
  216.62        3334.50           6634          34.00       117.26
  216.64        3334.75           6638          36.00       125.98
  216.67        3335.00           6641          35.00       121.62
  216.70        3335.25           6645          42.00       152.14
  216.73        3335.50           6649          45.00       165.21
  216.75        3335.75           6653          46.00       169.57
  216.78        3336.00           6656         100.00       404.97
  216.81        3336.25           6660         490.00      2105.18
  216.83        3336.50           6664        1327.00      5754.63
  216.86        3336.75           6668        2639.00     11476.66
  216.89        3337.00           6671        3371.00     14669.93
  216.92        3337.25           6675        4991.00     21739.04
  216.94        3337.50           6679        7129.00     31072.80
  216.97        3337.75           6683        9497.00     41416.36
  217.00        3338.00           6686       11481.00     50087.20
  217.03        3338.25           6690       13766.00     60078.75
  217.05        3338.50           6694       16177.00     70627.33
  217.08        3338.75           6698       18572.00     81112.08
  217.11        3339.00           6701       20437.00     89280.90
  217.14        3339.25           6705       22986.00    100451.70
  217.16        3339.50           6709       25444.00    111230.40
  217.19        3339.75           6713       27892.00    121971.70
  217.22        3340.00           6716       29811.00    130396.30
  217.24        3340.25           6720       32185.00    140824.00
  217.27        3340.50           6724       34941.00    152937.30
  217.30        3340.75           6728       37073.00    162313.60
  217.33        3341.00           6731       39005.00    170814.60
  217.35        3341.25           6735       40728.00    178399.40
  217.38        3341.50           6739       42318.00    185401.60
  217.41        3341.75           6743       43247.00    189494.10
  217.44        3342.00           6746       43317.00    189802.50
  217.46        3342.25           6750       42743.00    187273.70
  217.49        3342.50           6754       41401.00    181362.90
  217.52        3342.75           6758       39239.00    171844.50
  217.55        3343.00           6761       37239.00    163043.90
  217.57        3343.25           6765       34934.00    152906.50
  217.60        3343.50           6769       32312.00    141382.00
  217.63        3343.75           6773       29964.00    131068.20
  217.65        3344.00           6776       28009.00    122485.20
  217.68        3344.25           6780       25643.00    112103.30
  217.71        3344.50           6784       23262.00    101661.70
  217.74        3344.75           6788       20678.00     90336.76
  217.76        3345.00           6791       18747.00     81878.44
  217.79        3345.25           6795       16232.00     70868.04
  217.82        3345.50           6799       13275.00     57931.30
  217.85        3345.75           6803        9653.00     42097.99
  217.87        3346.00           6806        7470.00     32561.93
  217.90        3346.25           6810        5209.00     22690.52
  217.93        3346.50           6814        3147.00     13692.69
  217.95        3346.75           6818        1740.00      7555.65
  217.98        3347.00           6821        1109.00      4804.05
  218.01        3347.25           6825         398.00      1704.09
  218.04        3347.50           6829         100.00       404.97
  218.06        3347.75           6833          43.00       156.50
  218.09        3348.00           6836          51.00       191.37
  218.12        3348.25           6840          41.00       147.78
  218.14        3348.50           6844          37.00       130.34
  218.17        3348.75           6848          42.00       152.14
  218.20        3349.00           6851          37.00       130.34
  218.23        3349.25           6855          40.00       143.42
  218.25        3349.50           6859          42.00       152.14
  218.28        3349.75           6863          32.00       108.54
  218.31        3350.00           6867          34.00       117.26
  218.33        3350.25           6870          42.00       152.14
  218.36        3350.50           6874          38.00       134.70
  218.39        3350.75           6878          39.00       139.06
  218.42        3351.00           6882          38.00       134.70
HL scan finished at 03:39:02
end
