************************************************************
  HL Scan of (1) Internal mercury lamp
************************************************************
Integration time is 0.2294 seconds per sample
dh290717Tamanrasset 22.79-5.529 3.332708pr865
************************************************************
Dead Time -------------------------  2.8E-08 
Number of Cycles Used -------------  4 
Starting Wavelength (Angstroms) ---  3331 
Final Wavelength (Angstoms) -------  3351 
Wavelength Increment (Angstroms) --  .25 
Filter Wheel #1 Position ---------- (1) Ground quartz diffuser (ND=2.32)
Filter Wheel #2 Position ---------- (0) Clear Aperture



************************************************************
HL scan start time = 03:35:10
Dark Count =  5.7 


Time (GMT)  Wavelength (Ang)  Step Number  Raw Counts  Counts/Second

  215.68        3331.00           6581          36.00       132.08
  215.90        3331.25           6585          31.00       110.29
  215.93        3331.50           6589          37.00       136.44
  215.95        3331.75           6593          35.00       127.72
  215.98        3332.00           6596          35.00       127.72
  216.01        3332.25           6600          33.00       119.01
  216.03        3332.50           6604          31.00       110.29
  216.06        3332.75           6608          32.00       114.65
  216.09        3333.00           6611          36.00       132.08
  216.12        3333.25           6615          34.00       123.37
  216.14        3333.50           6619          31.00       110.29
  216.17        3333.75           6623          29.00       101.57
  216.20        3334.00           6626          33.00       119.01
  216.22        3334.25           6630          34.00       123.37
  216.25        3334.50           6634          35.00       127.72
  216.28        3334.75           6638          31.00       110.29
  216.31        3335.00           6641          33.00       119.01
  216.33        3335.25           6645          40.00       149.52
  216.36        3335.50           6649          41.00       153.88
  216.39        3335.75           6653          72.00       289.02
  216.42        3336.00           6656         183.00       772.90
  216.44        3336.25           6660         604.00      2608.30
  216.47        3336.50           6664        1331.00      5778.18
  216.50        3336.75           6668        2227.00      9685.71
  216.52        3337.00           6671        2847.00     12390.09
  216.55        3337.25           6675        4772.00     20789.34
  216.58        3337.50           6679        6787.00     29585.53
  216.61        3337.75           6683        9015.00     39316.58
  216.63        3338.00           6686       10632.00     46382.34
  216.66        3338.25           6690       12814.00     55921.41
  216.69        3338.50           6694       14906.00     65071.82
  216.72        3338.75           6698       17178.00     75014.86
  216.74        3339.00           6701       18799.00     82112.29
  216.77        3339.25           6705       21102.00     92200.68
  216.80        3339.50           6709       23205.00    101417.90
  216.83        3339.75           6713       25308.00    110640.00
  216.85        3340.00           6716       26995.00    118041.20
  216.88        3340.25           6720       29306.00    128185.10
  216.91        3340.50           6724       31418.00    137460.50
  216.94        3340.75           6728       33327.00    145848.50
  216.96        3341.00           6731       34808.00    152358.70
  216.99        3341.25           6735       36486.00    159737.70
  217.02        3341.50           6739       37570.00    164506.20
  217.04        3341.75           6743       37942.00    166143.00
  217.07        3342.00           6746       37937.00    166121.00
  217.10        3342.25           6750       37103.00    162451.80
  217.13        3342.50           6754       35465.00    155247.50
  217.15        3342.75           6758       32920.00    144059.90
  217.18        3343.00           6761       31390.00    137337.50
  217.21        3343.25           6765       29792.00    130319.00
  217.24        3343.50           6769       27590.00    120652.30
  217.26        3343.75           6773       25485.00    111416.40
  217.29        3344.00           6776       23948.00    104675.60
  217.32        3344.25           6780       21724.00     94926.34
  217.35        3344.50           6784       19554.00     85418.97
  217.37        3344.75           6788       17211.00     75159.31
  217.40        3345.00           6791       15077.00     65819.97
  217.43        3345.25           6795       12556.00     54793.24
  217.45        3345.50           6799        9704.00     42326.95
  217.48        3345.75           6803        7648.00     33345.42
  217.51        3346.00           6806        6042.00     26332.83
  217.54        3346.25           6810        4045.00     17616.80
  217.56        3346.50           6814        2680.00     11661.61
  217.59        3346.75           6818        1839.00      7993.51
  217.62        3347.00           6821        1037.00      4496.21
  217.65        3347.25           6825         322.00      1378.87
  217.67        3347.50           6829          63.00       249.78
  217.70        3347.75           6833          41.00       153.88
  217.73        3348.00           6836          41.00       153.88
  217.75        3348.25           6840          41.00       153.88
  217.78        3348.50           6844          36.00       132.08
  217.81        3348.75           6848          36.00       132.08
  217.84        3349.00           6851          34.00       123.37
  217.86        3349.25           6855          36.00       132.08
  217.89        3349.50           6859          37.00       136.44
  217.92        3349.75           6863          38.00       140.80
  217.94        3350.00           6867          43.00       162.60
  217.97        3350.25           6870          34.00       123.37
  218.00        3350.50           6874          31.00       110.29
  218.03        3350.75           6878          36.00       132.08
  218.05        3351.00           6882          37.00       136.44
HL scan finished at 03:38:41
end
