************************************************************
  HL Scan of (1) Internal mercury lamp
************************************************************
Integration time is 0.2294 seconds per sample
dh150817Tamanrasset 22.79-5.529 3.429576pr865
************************************************************
Dead Time -------------------------  2.8E-08 
Number of Cycles Used -------------  4 
Starting Wavelength (Angstroms) ---  3331 
Final Wavelength (Angstoms) -------  3351 
Wavelength Increment (Angstroms) --  .25 
Filter Wheel #1 Position ---------- (1) Ground quartz diffuser (ND=2.32)
Filter Wheel #2 Position ---------- (0) Clear Aperture



************************************************************
HL scan start time = 03:43:10
Dark Count =  5.5 


Time (GMT)  Wavelength (Ang)  Step Number  Raw Counts  Counts/Second

  223.68        3331.00           6581          34.00       124.24
  223.90        3331.25           6585          36.00       132.96
  223.92        3331.50           6589          40.00       150.39
  223.95        3331.75           6593          31.00       111.16
  223.98        3332.00           6596          32.00       115.52
  224.01        3332.25           6600          30.00       106.80
  224.03        3332.50           6604          30.00       106.80
  224.06        3332.75           6608          35.00       128.60
  224.09        3333.00           6611          32.00       115.52
  224.11        3333.25           6615          28.00        98.08
  224.14        3333.50           6619          30.00       106.80
  224.17        3333.75           6623          37.00       137.32
  224.20        3334.00           6626          36.00       132.96
  224.22        3334.25           6630          33.00       119.88
  224.25        3334.50           6634          38.00       141.67
  224.28        3334.75           6638          33.00       119.88
  224.30        3335.00           6641          36.00       132.96
  224.33        3335.25           6645          46.00       176.55
  224.36        3335.50           6649          35.00       128.60
  224.39        3335.75           6653          54.00       211.42
  224.41        3336.00           6656         139.00       581.96
  224.44        3336.25           6660         474.00      2042.40
  224.47        3336.50           6664        1235.00      5360.44
  224.50        3336.75           6668        2246.00      9769.46
  224.52        3337.00           6671        2602.00     11322.25
  224.55        3337.25           6675        4391.00     19127.51
  224.58        3337.50           6679        6489.00     28285.26
  224.60        3337.75           6683        8785.00     38312.66
  224.63        3338.00           6686       10546.00     46007.35
  224.66        3338.25           6690       12875.00     56189.03
  224.69        3338.50           6694       15229.00     66485.91
  224.71        3338.75           6698       17330.00     75681.13
  224.74        3339.00           6701       19057.00     83243.06
  224.77        3339.25           6705       21616.00     94453.92
  224.80        3339.50           6709       23862.00    104299.40
  224.82        3339.75           6713       26003.00    113689.60
  224.85        3340.00           6716       27780.00    121487.10
  224.88        3340.25           6720       29938.00    130961.00
  224.90        3340.50           6724       32317.00    141411.10
  224.93        3340.75           6728       34293.00    150095.50
  224.96        3341.00           6731       35930.00    157293.30
  224.99        3341.25           6735       37795.00    165497.00
  225.01        3341.50           6739       39140.00    171415.80
  225.04        3341.75           6743       39940.00    174937.20
  225.07        3342.00           6746       40009.00    175240.90
  225.10        3342.25           6750       39027.00    170918.50
  225.12        3342.50           6754       37542.00    164383.90
  225.15        3342.75           6758       34994.00    153177.40
  225.18        3343.00           6761       33447.00    146376.80
  225.21        3343.25           6765       31496.00    137804.00
  225.23        3343.50           6769       29742.00    130100.40
  225.26        3343.75           6773       27391.00    119779.90
  225.29        3344.00           6776       25602.00    111930.50
  225.32        3344.25           6780       23448.00    102484.20
  225.34        3344.50           6784       21205.00     92652.88
  225.37        3344.75           6788       18801.00     82121.93
  225.40        3345.00           6791       16915.00     73864.47
  225.42        3345.25           6795       14342.00     62605.29
  225.45        3345.50           6799       10772.00     46995.11
  225.48        3345.75           6803        8300.00     36194.03
  225.51        3346.00           6806        6834.00     29791.62
  225.53        3346.25           6810        4740.00     20650.56
  225.56        3346.50           6814        3166.00     13782.56
  225.59        3346.75           6818        2156.00      9376.92
  225.62        3347.00           6821        1403.00      6093.02
  225.64        3347.25           6825         432.00      1859.29
  225.67        3347.50           6829          84.00       342.20
  225.70        3347.75           6833          43.00       163.47
  225.72        3348.00           6836          42.00       159.11
  225.75        3348.25           6840          44.00       167.83
  225.78        3348.50           6844          38.00       141.67
  225.81        3348.75           6848          34.00       124.24
  225.83        3349.00           6851          37.00       137.32
  225.86        3349.25           6855          41.00       154.75
  225.89        3349.50           6859          35.00       128.60
  225.91        3349.75           6863          39.00       146.03
  225.94        3350.00           6867          32.00       115.52
  225.97        3350.25           6870          34.00       124.24
  226.00        3350.50           6874          33.00       119.88
  226.02        3350.75           6878          40.00       150.39
  226.05        3351.00           6882          37.00       137.32
HL scan finished at 03:46:40
end
