************************************************************
  HL Scan of (1) Internal mercury lamp
************************************************************
Integration time is 0.2294 seconds per sample
dh120817Tamanrasset 22.79-5.529 3.297019pr865
************************************************************
Dead Time -------------------------  2.8E-08 
Number of Cycles Used -------------  4 
Starting Wavelength (Angstroms) ---  3331 
Final Wavelength (Angstoms) -------  3351 
Wavelength Increment (Angstroms) --  .25 
Filter Wheel #1 Position ---------- (1) Ground quartz diffuser (ND=2.32)
Filter Wheel #2 Position ---------- (0) Clear Aperture



************************************************************
HL scan start time = 03:41:46
Dark Count =  5 


Time (GMT)  Wavelength (Ang)  Step Number  Raw Counts  Counts/Second

  222.29        3331.00           6581          27.00        95.90
  222.50        3331.25           6585          27.00        95.90
  222.53        3331.50           6589          27.00        95.90
  222.56        3331.75           6593          26.00        91.54
  222.59        3332.00           6596          31.00       113.34
  222.61        3332.25           6600          35.00       130.78
  222.64        3332.50           6604          34.00       126.42
  222.67        3332.75           6608          34.00       126.42
  222.69        3333.00           6611          26.00        91.54
  222.72        3333.25           6615          29.00       104.62
  222.75        3333.50           6619          34.00       126.42
  222.78        3333.75           6623          32.00       117.70
  222.80        3334.00           6626          31.00       113.34
  222.83        3334.25           6630          31.00       113.34
  222.86        3334.50           6634          32.00       117.70
  222.88        3334.75           6638          32.00       117.70
  222.91        3335.00           6641          33.00       122.06
  222.94        3335.25           6645          39.00       148.21
  222.97        3335.50           6649          44.00       170.01
  222.99        3335.75           6653          65.00       261.55
  223.02        3336.00           6656         159.00       671.33
  223.05        3336.25           6660         492.00      2123.06
  223.08        3336.50           6664        1046.00      4538.50
  223.10        3336.75           6668        1948.00      8471.93
  223.13        3337.00           6671        2608.00     11350.60
  223.16        3337.25           6675        4528.00     19727.55
  223.19        3337.50           6679        6406.00     27925.06
  223.21        3337.75           6683        8447.00     36838.33
  223.24        3338.00           6686       10013.00     43680.25
  223.27        3338.25           6690       12038.00     52531.44
  223.29        3338.50           6694       14174.00     61872.57
  223.32        3338.75           6698       16309.00     71214.24
  223.35        3339.00           6701       17744.00     77495.79
  223.38        3339.25           6705       20070.00     87682.31
  223.40        3339.50           6709       22257.00     97265.41
  223.43        3339.75           6713       24205.00    105805.60
  223.46        3340.00           6716       26143.00    114306.00
  223.49        3340.25           6720       28092.00    122858.70
  223.51        3340.50           6724       30382.00    132913.10
  223.54        3340.75           6728       32408.00    141813.10
  223.57        3341.00           6731       33698.00    147482.20
  223.59        3341.25           6735       35226.00    154199.70
  223.62        3341.50           6739       36548.00    160013.50
  223.65        3341.75           6743       36993.00    161970.90
  223.68        3342.00           6746       37013.00    162058.90
  223.70        3342.25           6750       36410.00    159406.50
  223.73        3342.50           6754       34824.00    152432.10
  223.76        3342.75           6758       32668.00    142955.60
  223.79        3343.00           6761       30953.00    135421.00
  223.81        3343.25           6765       29303.00    128175.00
  223.84        3343.50           6769       27363.00    119659.20
  223.87        3343.75           6773       25309.00    110647.40
  223.90        3344.00           6776       23398.00    102267.10
  223.92        3344.25           6780       21279.00     92979.33
  223.95        3344.50           6784       19386.00     84686.19
  223.98        3344.75           6788       16886.00     73739.72
  224.00        3345.00           6791       14925.00     65158.00
  224.03        3345.25           6795       12482.00     54472.74
  224.06        3345.50           6799        9755.00     42552.85
  224.09        3345.75           6803        7489.00     32654.08
  224.11        3346.00           6806        5895.00     25694.16
  224.14        3346.25           6810        4026.00     17536.95
  224.17        3346.50           6814        2827.00     12305.90
  224.20        3346.75           6818        1822.00      7922.42
  224.22        3347.00           6821         984.00      4268.17
  224.25        3347.25           6825         291.00      1246.77
  224.28        3347.50           6829          56.00       222.32
  224.30        3347.75           6833          38.00       143.85
  224.33        3348.00           6836          39.00       148.21
  224.36        3348.25           6840          36.00       135.14
  224.39        3348.50           6844          38.00       143.85
  224.41        3348.75           6848          33.00       122.06
  224.44        3349.00           6851          35.00       130.78
  224.47        3349.25           6855          37.00       139.49
  224.49        3349.50           6859          38.00       143.85
  224.52        3349.75           6863          33.00       122.06
  224.55        3350.00           6867          35.00       130.78
  224.58        3350.25           6870          40.00       152.57
  224.60        3350.50           6874          40.00       152.57
  224.63        3350.75           6878          35.00       130.78
  224.66        3351.00           6882          38.00       143.85
HL scan finished at 03:45:17
end
