************************************************************
  HL Scan of (1) Internal mercury lamp
************************************************************
Integration time is 0.2294 seconds per sample
dh140818Tamanrasset 22.79-5.529 4.974364pr865
************************************************************
Dead Time -------------------------  2.8E-08 
Number of Cycles Used -------------  4 
Starting Wavelength (Angstroms) ---  3331 
Final Wavelength (Angstoms) -------  3351 
Wavelength Increment (Angstroms) --  .25 
Filter Wheel #1 Position ---------- (1) Ground quartz diffuser (ND=2.32)
Filter Wheel #2 Position ---------- (0) Clear Aperture



************************************************************
HL scan start time = 03:41:55
Dark Count =  5.1 


Time (GMT)  Wavelength (Ang)  Step Number  Raw Counts  Counts/Second

  222.43        3331.00           6581          36.00       134.70
  222.65        3331.25           6585          30.00       108.54
  222.68        3331.50           6589          29.00       104.19
  222.71        3331.75           6593          30.00       108.54
  222.73        3332.00           6596          33.00       121.62
  222.76        3332.25           6600          29.00       104.19
  222.79        3332.50           6604          32.00       117.26
  222.81        3332.75           6608          27.00        95.47
  222.84        3333.00           6611          29.00       104.19
  222.87        3333.25           6615          33.00       121.62
  222.90        3333.50           6619          34.00       125.98
  222.92        3333.75           6623          29.00       104.19
  222.95        3334.00           6626          35.00       130.34
  222.98        3334.25           6630          33.00       121.62
  223.01        3334.50           6634          33.00       121.62
  223.03        3334.75           6638          34.00       125.98
  223.06        3335.00           6641          36.00       134.70
  223.09        3335.25           6645          40.00       152.14
  223.11        3335.50           6649          42.00       160.86
  223.14        3335.75           6653          61.00       243.68
  223.17        3336.00           6656         169.00       714.49
  223.20        3336.25           6660         517.00      2231.61
  223.22        3336.50           6664        1293.00      5615.09
  223.25        3336.75           6668        2081.00      9051.55
  223.28        3337.00           6671        2656.00     11559.54
  223.31        3337.25           6675        4422.00     19264.53
  223.33        3337.50           6679        6252.00     27252.26
  223.36        3337.75           6683        8222.00     35855.08
  223.39        3338.00           6686        9739.00     42482.50
  223.41        3338.25           6690       11892.00     51892.70
  223.44        3338.50           6694       13946.00     60874.82
  223.47        3338.75           6698       15889.00     69375.71
  223.50        3339.00           6701       17499.00     76422.73
  223.52        3339.25           6705       19472.00     85062.42
  223.55        3339.50           6709       21440.00     93684.41
  223.58        3339.75           6713       23554.00    102950.70
  223.61        3340.00           6716       25107.00    109761.00
  223.63        3340.25           6720       27175.00    118833.70
  223.66        3340.50           6724       29104.00    127300.80
  223.69        3340.75           6728       30924.00    135293.20
  223.71        3341.00           6731       32323.00    141439.20
  223.74        3341.25           6735       33863.00    148207.00
  223.77        3341.50           6739       35035.00    153359.40
  223.80        3341.75           6743       35661.00    156112.00
  223.82        3342.00           6746       35609.00    155883.40
  223.85        3342.25           6750       35202.00    154093.70
  223.88        3342.50           6754       33876.00    148264.20
  223.91        3342.75           6758       31848.00    139352.20
  223.93        3343.00           6761       30232.00    132253.90
  223.96        3343.25           6765       28017.00    122529.10
  223.99        3343.50           6769       26506.00    115898.20
  224.02        3343.75           6773       24368.00    106519.90
  224.04        3344.00           6776       22671.00     99079.63
  224.07        3344.25           6780       20649.00     90218.46
  224.10        3344.50           6784       18781.00     82036.10
  224.12        3344.75           6788       16693.00     72894.49
  224.15        3345.00           6791       14949.00     65262.57
  224.18        3345.25           6795       12856.00     56107.70
  224.21        3345.50           6799        9810.00     42792.75
  224.23        3345.75           6803        7229.00     31518.21
  224.26        3346.00           6806        5799.00     25274.64
  224.29        3346.25           6810        3965.00     17270.34
  224.32        3346.50           6814        2762.00     12021.92
  224.34        3346.75           6818        1705.00      7411.74
  224.37        3347.00           6821        1057.00      4586.03
  224.40        3347.25           6825         333.00      1429.44
  224.43        3347.50           6829          69.00       278.55
  224.45        3347.75           6833          41.00       156.50
  224.48        3348.00           6836          39.00       147.78
  224.51        3348.25           6840          37.00       139.06
  224.53        3348.50           6844          36.00       134.70
  224.56        3348.75           6848          41.00       156.50
  224.59        3349.00           6851          33.00       121.62
  224.62        3349.25           6855          39.00       147.78
  224.64        3349.50           6859          37.00       139.06
  224.67        3349.75           6863          33.00       121.62
  224.70        3350.00           6867          36.00       134.70
  224.72        3350.25           6870          35.00       130.34
  224.75        3350.50           6874          32.00       117.26
  224.78        3350.75           6878          35.00       130.34
  224.81        3351.00           6882          36.00       134.70
HL scan finished at 03:45:26
end
