************************************************************
  HL Scan of (1) Internal mercury lamp
************************************************************
Integration time is 0.2294 seconds per sample
dh170817Tamanrasset 22.79-5.529 3.368395pr865
************************************************************
Dead Time -------------------------  2.8E-08 
Number of Cycles Used -------------  4 
Starting Wavelength (Angstroms) ---  3331 
Final Wavelength (Angstoms) -------  3351 
Wavelength Increment (Angstroms) --  .25 
Filter Wheel #1 Position ---------- (1) Ground quartz diffuser (ND=2.32)
Filter Wheel #2 Position ---------- (0) Clear Aperture



************************************************************
HL scan start time = 03:43:48
Dark Count =  5.4 


Time (GMT)  Wavelength (Ang)  Step Number  Raw Counts  Counts/Second

  224.32        3331.00           6581          36.00       133.39
  224.53        3331.25           6585          34.00       124.67
  224.56        3331.50           6589          37.00       137.75
  224.59        3331.75           6593          31.00       111.60
  224.62        3332.00           6596          33.00       120.31
  224.64        3332.25           6600          33.00       120.31
  224.67        3332.50           6604          33.00       120.31
  224.70        3332.75           6608          30.00       107.24
  224.73        3333.00           6611          36.00       133.39
  224.75        3333.25           6615          29.00       102.88
  224.78        3333.50           6619          33.00       120.31
  224.81        3333.75           6623          34.00       124.67
  224.83        3334.00           6626          37.00       137.75
  224.86        3334.25           6630          37.00       137.75
  224.89        3334.50           6634          34.00       124.67
  224.92        3334.75           6638          37.00       137.75
  224.94        3335.00           6641          40.00       150.83
  224.97        3335.25           6645          34.00       124.67
  225.00        3335.50           6649          45.00       172.63
  225.02        3335.75           6653          65.00       259.81
  225.05        3336.00           6656         200.00       848.32
  225.08        3336.25           6660         564.00      2435.21
  225.11        3336.50           6664        1209.00      5247.50
  225.13        3336.75           6668        2024.00      8801.65
  225.16        3337.00           6671        2872.00     12500.45
  225.19        3337.25           6675        4822.00     21008.87
  225.21        3337.50           6679        6931.00     30215.62
  225.24        3337.75           6683        8970.00     39121.30
  225.27        3338.00           6686       10688.00     46628.40
  225.30        3338.25           6690       12921.00     56390.63
  225.32        3338.50           6694       15116.00     65991.93
  225.35        3338.75           6698       17201.00     75116.85
  225.38        3339.00           6701       18920.00     82643.50
  225.41        3339.25           6705       21117.00     92267.71
  225.43        3339.50           6709       23637.00    103313.20
  225.46        3339.75           6713       25807.00    112830.20
  225.49        3340.00           6716       27539.00    120429.80
  225.51        3340.25           6720       29739.00    130087.60
  225.54        3340.50           6724       31885.00    139513.40
  225.57        3340.75           6728       33987.00    148750.80
  225.60        3341.00           6731       35322.00    154620.00
  225.63        3341.25           6735       37240.00    163055.70
  225.65        3341.50           6739       38504.00    168617.30
  225.68        3341.75           6743       39063.00    171077.40
  225.71        3342.00           6746       38988.00    170747.30
  225.74        3342.25           6750       38639.00    169211.30
  225.76        3342.50           6754       36697.00    160667.10
  225.79        3342.75           6758       34457.00    150816.90
  225.82        3343.00           6761       32840.00    143709.60
  225.84        3343.25           6765       30855.00    134988.80
  225.87        3343.50           6769       28723.00    125626.80
  225.90        3343.75           6773       26648.00    116519.90
  225.93        3344.00           6776       24943.00    109040.40
  225.95        3344.25           6780       22610.00     98810.93
  225.98        3344.50           6784       20221.00     88342.06
  226.01        3344.75           6788       17718.00     77380.21
  226.04        3345.00           6791       15736.00     68704.84
  226.06        3345.25           6795       13014.00     56797.32
  226.09        3345.50           6799       10268.00     44792.85
  226.12        3345.75           6803        7608.00     33172.04
  226.15        3346.00           6806        6156.00     26831.84
  226.17        3346.25           6810        4060.00     17683.56
  226.20        3346.50           6814        2938.00     12788.36
  226.23        3346.75           6818        2046.00      8897.60
  226.25        3347.00           6821        1144.00      4964.07
  226.28        3347.25           6825         325.00      1393.25
  226.31        3347.50           6829          60.00       238.01
  226.34        3347.75           6833          43.00       163.91
  226.36        3348.00           6836          41.00       155.19
  226.39        3348.25           6840          37.00       137.75
  226.42        3348.50           6844          35.00       129.03
  226.44        3348.75           6848          34.00       124.67
  226.47        3349.00           6851          38.00       142.11
  226.50        3349.25           6855          35.00       129.03
  226.53        3349.50           6859          35.00       129.03
  226.55        3349.75           6863          29.00       102.88
  226.58        3350.00           6867          35.00       129.03
  226.61        3350.25           6870          38.00       142.11
  226.63        3350.50           6874          35.00       129.03
  226.66        3350.75           6878          37.00       137.75
  226.69        3351.00           6882          36.00       133.39
HL scan finished at 03:47:19
end
