************************************************************
  HL Scan of (1) Internal mercury lamp
************************************************************
Integration time is 0.2294 seconds per sample
dh110817Tamanrasset 22.79-5.529 3.368395pr865
************************************************************
Dead Time -------------------------  2.8E-08 
Number of Cycles Used -------------  4 
Starting Wavelength (Angstroms) ---  3331 
Final Wavelength (Angstoms) -------  3351 
Wavelength Increment (Angstroms) --  .25 
Filter Wheel #1 Position ---------- (1) Ground quartz diffuser (ND=2.32)
Filter Wheel #2 Position ---------- (0) Clear Aperture



************************************************************
HL scan start time = 03:41:39
Dark Count =  5.9 


Time (GMT)  Wavelength (Ang)  Step Number  Raw Counts  Counts/Second

  222.15        3331.00           6581          35.00       126.85
  222.37        3331.25           6585          33.00       118.13
  222.40        3331.50           6589          30.00       105.06
  222.43        3331.75           6593          35.00       126.85
  222.45        3332.00           6596          39.00       144.29
  222.48        3332.25           6600          32.00       113.78
  222.51        3332.50           6604          36.00       131.21
  222.54        3332.75           6608          33.00       118.13
  222.56        3333.00           6611          31.00       109.42
  222.59        3333.25           6615          32.00       113.78
  222.62        3333.50           6619          35.00       126.85
  222.64        3333.75           6623          32.00       113.78
  222.67        3334.00           6626          35.00       126.85
  222.70        3334.25           6630          32.00       113.78
  222.73        3334.50           6634          32.00       113.78
  222.75        3334.75           6638          36.00       131.21
  222.78        3335.00           6641          35.00       126.85
  222.81        3335.25           6645          43.00       161.73
  222.83        3335.50           6649          37.00       135.57
  222.86        3335.75           6653          48.00       183.52
  222.89        3336.00           6656         103.00       423.28
  222.92        3336.25           6660         375.00      1609.05
  222.94        3336.50           6664        1023.00      4434.29
  222.97        3336.75           6668        1747.00      7591.41
  223.00        3337.00           6671        2255.00      9806.97
  223.02        3337.25           6675        4052.00     17646.47
  223.05        3337.50           6679        6038.00     26314.50
  223.08        3337.75           6683        8077.00     35218.24
  223.11        3338.00           6686        9806.00     42771.77
  223.13        3338.25           6690       11994.00     52335.14
  223.16        3338.50           6694       14235.00     62135.47
  223.19        3338.75           6698       16191.00     70693.85
  223.22        3339.00           6701       18155.00     79291.36
  223.24        3339.25           6705       20257.00     88497.57
  223.27        3339.50           6709       22487.00     98269.58
  223.30        3339.75           6713       24751.00    108196.10
  223.33        3340.00           6716       26335.00    115144.40
  223.35        3340.25           6720       28639.00    125255.90
  223.38        3340.50           6724       30996.00    135605.90
  223.41        3340.75           6728       32981.00    144327.10
  223.43        3341.00           6731       34405.00    150586.10
  223.46        3341.25           6735       36248.00    158690.10
  223.49        3341.50           6739       37620.00    164725.30
  223.52        3341.75           6743       38546.00    168799.90
  223.54        3342.00           6746       38676.00    169372.00
  223.57        3342.25           6750       38152.00    167066.10
  223.60        3342.50           6754       36719.00    160761.70
  223.63        3342.75           6758       34491.00    150964.20
  223.65        3343.00           6761       32816.00    143602.00
  223.68        3343.25           6765       30734.00    134455.10
  223.71        3343.50           6769       28966.00    126691.40
  223.74        3343.75           6773       27031.00    118198.30
  223.76        3344.00           6776       25040.00    109463.60
  223.79        3344.25           6780       22891.00    100040.50
  223.82        3344.50           6784       20709.00     90477.84
  223.84        3344.75           6788       18219.00     79571.60
  223.87        3345.00           6791       16401.00     71612.93
  223.90        3345.25           6795       13920.00     60757.59
  223.93        3345.50           6799       10591.00     46202.28
  223.95        3345.75           6803        8377.00     36528.62
  223.98        3346.00           6806        6648.00     28977.73
  224.01        3346.25           6810        4583.00     19963.64
  224.04        3346.50           6814        3378.00     14705.71
  224.06        3346.75           6818        2132.00      9270.50
  224.09        3347.00           6821        1403.00      6091.27
  224.12        3347.25           6825         452.00      1944.74
  224.14        3347.50           6829         110.00       453.80
  224.17        3347.75           6833          42.00       157.37
  224.20        3348.00           6836          35.00       126.85
  224.23        3348.25           6840          31.00       109.42
  224.25        3348.50           6844          37.00       135.57
  224.28        3348.75           6848          38.00       139.93
  224.31        3349.00           6851          33.00       118.13
  224.34        3349.25           6855          42.00       157.37
  224.36        3349.50           6859          37.00       135.57
  224.39        3349.75           6863          36.00       131.21
  224.42        3350.00           6867          37.00       135.57
  224.44        3350.25           6870          37.00       135.57
  224.47        3350.50           6874          35.00       126.85
  224.50        3350.75           6878          35.00       126.85
  224.53        3351.00           6882          42.00       157.37
HL scan finished at 03:45:09
end
