************************************************************
  HL Scan of (1) Internal mercury lamp
************************************************************
Integration time is 0.2294 seconds per sample
dh080818Tamanrasset 22.79-5.529 4.974364pr865
************************************************************
Dead Time -------------------------  2.8E-08 
Number of Cycles Used -------------  4 
Starting Wavelength (Angstroms) ---  3331 
Final Wavelength (Angstoms) -------  3351 
Wavelength Increment (Angstroms) --  .25 
Filter Wheel #1 Position ---------- (1) Ground quartz diffuser (ND=2.32)
Filter Wheel #2 Position ---------- (0) Clear Aperture



************************************************************
HL scan start time = 03:39:01
Dark Count =  5.2 


Time (GMT)  Wavelength (Ang)  Step Number  Raw Counts  Counts/Second

  219.53        3331.00           6581          30.00       108.11
  219.75        3331.25           6585          33.00       121.19
  219.78        3331.50           6589          25.00        86.31
  219.81        3331.75           6593          30.00       108.11
  219.83        3332.00           6596          30.00       108.11
  219.86        3332.25           6600          30.00       108.11
  219.89        3332.50           6604          29.00       103.75
  219.91        3332.75           6608          33.00       121.19
  219.94        3333.00           6611          32.00       116.83
  219.97        3333.25           6615          30.00       108.11
  220.00        3333.50           6619          29.00       103.75
  220.02        3333.75           6623          31.00       112.47
  220.05        3334.00           6626          33.00       121.19
  220.08        3334.25           6630          30.00       108.11
  220.10        3334.50           6634          28.00        99.39
  220.13        3334.75           6638          31.00       112.47
  220.16        3335.00           6641          33.00       121.19
  220.19        3335.25           6645          46.00       177.86
  220.21        3335.50           6649          32.00       116.83
  220.24        3335.75           6653          62.00       247.60
  220.27        3336.00           6656         176.00       744.57
  220.29        3336.25           6660         554.00      2392.49
  220.32        3336.50           6664        1204.00      5226.57
  220.35        3336.75           6668        1866.00      8113.44
  220.38        3337.00           6671        2657.00     11563.47
  220.40        3337.25           6675        4506.00     19630.66
  220.43        3337.50           6679        6421.00     27989.67
  220.46        3337.75           6683        8536.00     37226.23
  220.49        3338.00           6686       10205.00     44518.40
  220.51        3338.25           6690       12274.00     53562.40
  220.54        3338.50           6694       14370.00     62729.09
  220.57        3338.75           6698       16423.00     71712.30
  220.59        3339.00           6701       18049.00     78830.31
  220.62        3339.25           6705       20390.00     89083.31
  220.65        3339.50           6709       22385.00     97825.58
  220.68        3339.75           6713       24626.00    107650.90
  220.70        3340.00           6716       26373.00    115314.20
  220.73        3340.25           6720       28345.00    123968.40
  220.76        3340.50           6724       30383.00    132916.60
  220.79        3340.75           6728       32492.00    142181.30
  220.81        3341.00           6731       33739.00    147661.60
  220.84        3341.25           6735       35428.00    155087.00
  220.87        3341.50           6739       36511.00    159849.90
  220.90        3341.75           6743       37098.00    162431.90
  220.92        3342.00           6746       36950.00    161780.90
  220.95        3342.25           6750       36573.00    160122.60
  220.98        3342.50           6754       34838.00    152492.80
  221.00        3342.75           6758       32695.00    143073.30
  221.03        3343.00           6761       31059.00    135885.70
  221.06        3343.25           6765       29316.00    128231.20
  221.09        3343.50           6769       27100.00    118504.20
  221.11        3343.75           6773       24945.00    109050.00
  221.14        3344.00           6776       23549.00    102928.30
  221.17        3344.25           6780       21192.00     92597.24
  221.20        3344.50           6784       19181.00     83787.45
  221.22        3344.75           6788       17026.00     74351.66
  221.25        3345.00           6791       15273.00     66679.74
  221.28        3345.25           6795       12577.00     54887.26
  221.31        3345.50           6799        9580.00     41787.31
  221.33        3345.75           6803        7323.00     31928.27
  221.36        3346.00           6806        5727.00     24959.90
  221.39        3346.25           6810        3754.00     16349.24
  221.42        3346.50           6814        2582.00     11236.32
  221.44        3346.75           6818        1585.00      6887.99
  221.47        3347.00           6821         978.00      4241.13
  221.50        3347.25           6825         290.00      1241.54
  221.52        3347.50           6829          54.00       212.73
  221.55        3347.75           6833          41.00       156.06
  221.58        3348.00           6836          41.00       156.06
  221.61        3348.25           6840          35.00       129.90
  221.63        3348.50           6844          35.00       129.90
  221.66        3348.75           6848          40.00       151.70
  221.69        3349.00           6851          39.00       147.34
  221.71        3349.25           6855          40.00       151.70
  221.74        3349.50           6859          34.00       125.55
  221.77        3349.75           6863          34.00       125.55
  221.80        3350.00           6867          37.00       138.62
  221.82        3350.25           6870          30.00       108.11
  221.85        3350.50           6874          37.00       138.62
  221.88        3350.75           6878          33.00       121.19
  221.90        3351.00           6882          36.00       134.26
HL scan finished at 03:42:32
end
