************************************************************
  HL Scan of (1) Internal mercury lamp
************************************************************
Integration time is 0.2294 seconds per sample
dh090817Tamanrasset 22.79-5.529 3.08289pr865
************************************************************
Dead Time -------------------------  2.8E-08 
Number of Cycles Used -------------  4 
Starting Wavelength (Angstroms) ---  3331 
Final Wavelength (Angstoms) -------  3351 
Wavelength Increment (Angstroms) --  .25 
Filter Wheel #1 Position ---------- (1) Ground quartz diffuser (ND=2.32)
Filter Wheel #2 Position ---------- (0) Clear Aperture



************************************************************
HL scan start time = 03:40:10
Dark Count =  5.7 


Time (GMT)  Wavelength (Ang)  Step Number  Raw Counts  Counts/Second

  220.68        3331.00           6581          29.00       101.57
  220.89        3331.25           6585          29.00       101.57
  220.92        3331.50           6589          29.00       101.57
  220.95        3331.75           6593          36.00       132.08
  220.98        3332.00           6596          32.00       114.65
  221.00        3332.25           6600          33.00       119.01
  221.03        3332.50           6604          30.00       105.93
  221.06        3332.75           6608          36.00       132.08
  221.08        3333.00           6611          33.00       119.01
  221.11        3333.25           6615          30.00       105.93
  221.14        3333.50           6619          35.00       127.72
  221.17        3333.75           6623          32.00       114.65
  221.19        3334.00           6626          29.00       101.57
  221.22        3334.25           6630          27.00        92.85
  221.25        3334.50           6634          34.00       123.37
  221.28        3334.75           6638          33.00       119.01
  221.30        3335.00           6641          31.00       110.29
  221.33        3335.25           6645          38.00       140.80
  221.36        3335.50           6649          35.00       127.72
  221.38        3335.75           6653          53.00       206.19
  221.41        3336.00           6656          83.00       336.97
  221.44        3336.25           6660         305.00      1304.76
  221.47        3336.50           6664         584.00      2521.10
  221.49        3336.75           6668        1152.00      4997.65
  221.52        3337.00           6671        1784.00      7753.64
  221.55        3337.25           6675        3343.00     14553.88
  221.57        3337.50           6679        4918.00     21426.54
  221.60        3337.75           6683        6674.00     29092.13
  221.63        3338.00           6686        8016.00     34952.68
  221.66        3338.25           6690        9795.00     42724.58
  221.68        3338.50           6694       11605.00     50635.39
  221.71        3338.75           6698       13493.00     58890.85
  221.74        3339.00           6701       14845.00     64804.93
  221.77        3339.25           6705       16723.00     73023.18
  221.79        3339.50           6709       18621.00     81332.79
  221.82        3339.75           6713       20389.00     89076.74
  221.85        3340.00           6716       21681.00     94737.91
  221.88        3340.25           6720       23568.00    103009.40
  221.90        3340.50           6724       25304.00    110622.40
  221.93        3340.75           6728       27341.00    119559.60
  221.96        3341.00           6731       28354.00    124005.70
  221.98        3341.25           6735       29902.00    130802.10
  222.01        3341.50           6739       31193.00    136472.10
  222.04        3341.75           6743       31747.00    138905.80
  222.07        3342.00           6746       31893.00    139547.30
  222.09        3342.25           6750       31675.00    138589.50
  222.12        3342.50           6754       30662.00    134139.80
  222.15        3342.75           6758       28829.00    126090.90
  222.18        3343.00           6761       27561.00    120525.10
  222.20        3343.25           6765       25712.00    112412.10
  222.23        3343.50           6769       24172.00    105657.80
  222.26        3343.75           6773       22319.00     97534.09
  222.29        3344.00           6776       20934.00     91464.56
  222.31        3344.25           6780       18987.00     82935.63
  222.34        3344.50           6784       17326.00     75662.75
  222.37        3344.75           6788       15488.00     67618.31
  222.40        3345.00           6791       13759.00     60054.25
  222.42        3345.25           6795       11560.00     50438.66
  222.45        3345.50           6799        9241.00     40303.96
  222.48        3345.75           6803        7054.00     30751.40
  222.50        3346.00           6806        5681.00     24756.91
  222.53        3346.25           6810        4144.00     18048.79
  222.56        3346.50           6814        3047.00     13262.55
  222.59        3346.75           6818        2068.00      8992.24
  222.61        3347.00           6821        1280.00      5555.79
  222.64        3347.25           6825         456.00      1963.05
  222.67        3347.50           6829          97.00       398.00
  222.70        3347.75           6833          40.00       149.52
  222.72        3348.00           6836          38.00       140.80
  222.75        3348.25           6840          33.00       119.01
  222.78        3348.50           6844          38.00       140.80
  222.80        3348.75           6848          31.00       110.29
  222.83        3349.00           6851          34.00       123.37
  222.86        3349.25           6855          29.00       101.57
  222.89        3349.50           6859          37.00       136.44
  222.91        3349.75           6863          33.00       119.01
  222.94        3350.00           6867          36.00       132.08
  222.97        3350.25           6870          34.00       123.37
  222.99        3350.50           6874          33.00       119.01
  223.02        3350.75           6878          34.00       123.37
  223.05        3351.00           6882          36.00       132.08
HL scan finished at 03:43:40
end
