************************************************************
  HL Scan of (1) Internal mercury lamp
************************************************************
Integration time is 0.2294 seconds per sample
dh130817Tamanrasset 22.79-5.529 3.404084pr865
************************************************************
Dead Time -------------------------  2.8E-08 
Number of Cycles Used -------------  4 
Starting Wavelength (Angstroms) ---  3331 
Final Wavelength (Angstoms) -------  3351 
Wavelength Increment (Angstroms) --  .25 
Filter Wheel #1 Position ---------- (1) Ground quartz diffuser (ND=2.32)
Filter Wheel #2 Position ---------- (0) Clear Aperture



************************************************************
HL scan start time = 03:42:09
Dark Count =  6.1 


Time (GMT)  Wavelength (Ang)  Step Number  Raw Counts  Counts/Second

  222.66        3331.00           6581          32.00       112.90
  222.88        3331.25           6585          37.00       134.70
  222.91        3331.50           6589          32.00       112.90
  222.93        3331.75           6593          33.00       117.26
  222.96        3332.00           6596          36.00       130.34
  222.99        3332.25           6600          31.00       108.54
  223.01        3332.50           6604          38.00       139.06
  223.04        3332.75           6608          36.00       130.34
  223.07        3333.00           6611          34.00       121.62
  223.09        3333.25           6615          36.00       130.34
  223.12        3333.50           6619          39.00       143.42
  223.15        3333.75           6623          34.00       121.62
  223.18        3334.00           6626          30.00       104.19
  223.20        3334.25           6630          33.00       117.26
  223.23        3334.50           6634          34.00       121.62
  223.26        3334.75           6638          37.00       134.70
  223.28        3335.00           6641          38.00       139.06
  223.31        3335.25           6645          33.00       117.26
  223.34        3335.50           6649          42.00       156.50
  223.37        3335.75           6653          61.00       239.32
  223.39        3336.00           6656         125.00       518.32
  223.42        3336.25           6660         424.00      1821.80
  223.45        3336.50           6664        1097.00      4756.08
  223.48        3336.75           6668        2083.00      9055.91
  223.50        3337.00           6671        2426.00     10551.94
  223.53        3337.25           6675        4138.00     18020.86
  223.56        3337.50           6679        6259.00     27278.46
  223.58        3337.75           6683        8454.00     36864.10
  223.61        3338.00           6686       10160.00     44317.83
  223.64        3338.25           6690       12351.00     53895.14
  223.67        3338.50           6694       14589.00     63683.21
  223.69        3338.75           6698       16745.00     73117.73
  223.72        3339.00           6701       18597.00     81225.94
  223.75        3339.25           6705       20867.00     91169.22
  223.78        3339.50           6709       23111.00    101004.10
  223.80        3339.75           6713       25462.00    111313.70
  223.83        3340.00           6716       27108.00    118535.30
  223.86        3340.25           6720       29350.00    128376.50
  223.89        3340.50           6724       31584.00    138188.00
  223.91        3340.75           6728       33642.00    147231.30
  223.94        3341.00           6731       35382.00    154880.80
  223.97        3341.25           6735       37072.00    162313.60
  223.99        3341.50           6739       38678.00    169379.90
  224.02        3341.75           6743       39818.00    174397.50
  224.05        3342.00           6746       39619.00    173521.50
  224.08        3342.25           6750       39101.00    171241.50
  224.11        3342.50           6754       37704.00    165094.00
  224.13        3342.75           6758       35147.00    153847.50
  224.16        3343.00           6761       33642.00    147231.30
  224.19        3343.25           6765       31522.00    137915.60
  224.21        3343.50           6769       29870.00    130659.80
  224.24        3343.75           6773       27397.00    119803.60
  224.27        3344.00           6776       25757.00    112607.80
  224.30        3344.25           6780       23513.00    102766.50
  224.32        3344.50           6784       21136.00     92347.91
  224.35        3344.75           6788       18901.00     82557.24
  224.38        3345.00           6791       17055.00     74474.68
  224.41        3345.25           6795       14345.00     62615.79
  224.43        3345.50           6799       10628.00     46363.12
  224.46        3345.75           6803        8466.00     36916.52
  224.49        3346.00           6806        6842.00     29823.94
  224.51        3346.25           6810        4663.00     20311.90
  224.54        3346.50           6814        3247.00     14133.32
  224.57        3346.75           6818        2017.00      8768.06
  224.60        3347.00           6821        1356.00      5885.45
  224.62        3347.25           6825         444.00      1908.99
  224.65        3347.50           6829          96.00       391.90
  224.68        3347.75           6833          43.00       160.86
  224.71        3348.00           6836          44.00       165.21
  224.73        3348.25           6840          35.00       125.98
  224.76        3348.50           6844          30.00       104.19
  224.79        3348.75           6848          42.00       156.50
  224.81        3349.00           6851          34.00       121.62
  224.84        3349.25           6855          37.00       134.70
  224.87        3349.50           6859          39.00       143.42
  224.90        3349.75           6863          39.00       143.42
  224.92        3350.00           6867          33.00       117.26
  224.95        3350.25           6870          35.00       125.98
  224.98        3350.50           6874          36.00       130.34
  225.00        3350.75           6878          39.00       143.42
  225.03        3351.00           6882          32.00       112.90
HL scan finished at 03:45:39
end
