************************************************************
  HL Scan of (1) Internal mercury lamp
************************************************************
Integration time is 0.2294 seconds per sample
dh100818Tamanrasset 22.79-5.529 4.974364pr865
************************************************************
Dead Time -------------------------  2.8E-08 
Number of Cycles Used -------------  4 
Starting Wavelength (Angstroms) ---  3331 
Final Wavelength (Angstoms) -------  3351 
Wavelength Increment (Angstroms) --  .25 
Filter Wheel #1 Position ---------- (1) Ground quartz diffuser (ND=2.32)
Filter Wheel #2 Position ---------- (0) Clear Aperture



************************************************************
HL scan start time = 03:40:03
Dark Count =  5 


Time (GMT)  Wavelength (Ang)  Step Number  Raw Counts  Counts/Second

  220.56        3331.00           6581          31.00       113.34
  220.78        3331.25           6585          30.00       108.98
  220.80        3331.50           6589          31.00       113.34
  220.83        3331.75           6593          31.00       113.34
  220.86        3332.00           6596          40.00       152.57
  220.89        3332.25           6600          40.00       152.57
  220.91        3332.50           6604          35.00       130.78
  220.94        3332.75           6608          31.00       113.34
  220.97        3333.00           6611          27.00        95.90
  220.99        3333.25           6615          32.00       117.70
  221.02        3333.50           6619          27.00        95.90
  221.05        3333.75           6623          29.00       104.62
  221.08        3334.00           6626          27.00        95.90
  221.10        3334.25           6630          31.00       113.34
  221.13        3334.50           6634          31.00       113.34
  221.16        3334.75           6638          33.00       122.06
  221.18        3335.00           6641          34.00       126.42
  221.21        3335.25           6645          41.00       156.93
  221.24        3335.50           6649          39.00       148.21
  221.27        3335.75           6653          46.00       178.73
  221.29        3336.00           6656         127.00       531.83
  221.32        3336.25           6660         360.00      1547.58
  221.35        3336.50           6664         847.00      3670.82
  221.37        3336.75           6668        1457.00      6330.68
  221.40        3337.00           6671        2086.00      9073.80
  221.43        3337.25           6675        3749.00     16328.30
  221.46        3337.50           6679        5664.00     24685.76
  221.48        3337.75           6683        7512.00     32754.53
  221.51        3338.00           6686        9153.00     39922.55
  221.54        3338.25           6690       11061.00     48260.46
  221.57        3338.50           6694       12896.00     56283.05
  221.59        3338.75           6698       14974.00     65372.39
  221.62        3339.00           6701       16562.00     72321.55
  221.65        3339.25           6705       18542.00     80989.91
  221.68        3339.50           6709       20467.00     89421.52
  221.70        3339.75           6713       22554.00     98567.22
  221.73        3340.00           6716       24131.00    105481.10
  221.76        3340.25           6720       26027.00    113797.10
  221.78        3340.50           6724       28082.00    122814.80
  221.81        3340.75           6728       29930.00    130928.10
  221.84        3341.00           6731       31140.00    136242.40
  221.87        3341.25           6735       32756.00    143342.30
  221.89        3341.50           6739       33944.00    148563.50
  221.92        3341.75           6743       34427.00    150686.80
  221.95        3342.00           6746       34556.00    151253.90
  221.98        3342.25           6750       34097.00    149236.10
  222.00        3342.50           6754       32754.00    143333.50
  222.03        3342.75           6758       30818.00    134828.00
  222.06        3343.00           6761       29288.00    128109.10
  222.09        3343.25           6765       27637.00    120861.70
  222.11        3343.50           6769       25703.00    112375.70
  222.14        3343.75           6773       23903.00    104481.30
  222.17        3344.00           6776       22129.00     96704.39
  222.19        3344.25           6780       20306.00     88716.19
  222.22        3344.50           6784       18191.00     79452.94
  222.25        3344.75           6788       16220.00     70824.71
  222.28        3345.00           6791       14616.00     63806.14
  222.30        3345.25           6795       12394.00     54087.96
  222.33        3345.50           6799        9793.00     42718.90
  222.36        3345.75           6803        7297.00     31815.60
  222.39        3346.00           6806        5869.00     25580.66
  222.41        3346.25           6810        3972.00     17301.32
  222.44        3346.50           6814        2909.00     12663.60
  222.47        3346.75           6818        1938.00      8428.32
  222.49        3347.00           6821        1215.00      5275.41
  222.52        3347.25           6825         383.00      1647.85
  222.55        3347.50           6829          85.00       348.74
  222.58        3347.75           6833          40.00       152.57
  222.60        3348.00           6836          35.00       130.78
  222.63        3348.25           6840          32.00       117.70
  222.66        3348.50           6844          37.00       139.49
  222.68        3348.75           6848          35.00       130.78
  222.71        3349.00           6851          28.00       100.26
  222.74        3349.25           6855          31.00       113.34
  222.77        3349.50           6859          39.00       148.21
  222.79        3349.75           6863          31.00       113.34
  222.82        3350.00           6867          32.00       117.70
  222.85        3350.25           6870          34.00       126.42
  222.87        3350.50           6874          32.00       117.70
  222.90        3350.75           6878          34.00       126.42
  222.93        3351.00           6882          33.00       122.06
HL scan finished at 03:43:33
end
