************************************************************
  HL Scan of (1) Internal mercury lamp
************************************************************
Integration time is 0.2294 seconds per sample
dh170818Tamanrasset 22.79-5.529 4.974364pr865
************************************************************
Dead Time -------------------------  2.8E-08 
Number of Cycles Used -------------  4 
Starting Wavelength (Angstroms) ---  3331 
Final Wavelength (Angstoms) -------  3351 
Wavelength Increment (Angstroms) --  .25 
Filter Wheel #1 Position ---------- (1) Ground quartz diffuser (ND=2.32)
Filter Wheel #2 Position ---------- (0) Clear Aperture



************************************************************
HL scan start time = 03:43:58
Dark Count =  5.8 


Time (GMT)  Wavelength (Ang)  Step Number  Raw Counts  Counts/Second

  224.48        3331.00           6581          33.00       118.57
  224.70        3331.25           6585          28.00        96.77
  224.73        3331.50           6589          28.00        96.77
  224.76        3331.75           6593          32.00       114.21
  224.78        3332.00           6596          35.00       127.29
  224.81        3332.25           6600          37.00       136.01
  224.84        3332.50           6604          33.00       118.57
  224.86        3332.75           6608          35.00       127.29
  224.89        3333.00           6611          31.00       109.85
  224.92        3333.25           6615          35.00       127.29
  224.95        3333.50           6619          32.00       114.21
  224.97        3333.75           6623          34.00       122.93
  225.00        3334.00           6626          35.00       127.29
  225.03        3334.25           6630          30.00       105.49
  225.06        3334.50           6634          36.00       131.65
  225.08        3334.75           6638          26.00        88.06
  225.11        3335.00           6641          42.00       157.80
  225.14        3335.25           6645          37.00       136.01
  225.16        3335.50           6649          45.00       170.88
  225.19        3335.75           6653          54.00       210.11
  225.22        3336.00           6656         148.00       619.89
  225.25        3336.25           6660         488.00      2102.13
  225.27        3336.50           6664        1303.00      5655.65
  225.30        3336.75           6668        2329.00     10130.16
  225.33        3337.00           6671        3024.00     13161.78
  225.36        3337.25           6675        4606.00     20064.45
  225.38        3337.50           6679        6576.00     28663.80
  225.41        3337.75           6683        8795.00     38355.03
  225.44        3338.00           6686       10338.00     45097.01
  225.47        3338.25           6690       12757.00     55671.72
  225.49        3338.50           6694       14988.00     65430.14
  225.52        3338.75           6698       17404.00     76003.77
  225.55        3339.00           6701       19024.00     83097.22
  225.57        3339.25           6705       21525.00     94053.82
  225.60        3339.50           6709       23807.00    104056.90
  225.63        3339.75           6713       26017.00    113749.70
  225.66        3340.00           6716       27695.00    121112.70
  225.68        3340.25           6720       29906.00    130819.20
  225.71        3340.50           6724       32155.00    140697.90
  225.74        3340.75           6728       34312.00    150177.70
  225.77        3341.00           6731       35826.00    156834.60
  225.79        3341.25           6735       37706.00    165104.20
  225.82        3341.50           6739       39117.00    171313.30
  225.85        3341.75           6743       40075.00    175530.20
  225.87        3342.00           6746       39944.00    174953.50
  225.90        3342.25           6750       39436.00    172717.30
  225.93        3342.50           6754       38032.00    166538.50
  225.96        3342.75           6758       35626.00    155955.00
  225.98        3343.00           6761       33868.00    148225.90
  226.01        3343.25           6765       31345.00    137139.40
  226.04        3343.50           6769       29938.00    130959.70
  226.07        3343.75           6773       27566.00    120546.60
  226.09        3344.00           6776       25704.00    112376.60
  226.12        3344.25           6780       23506.00    102737.10
  226.15        3344.50           6784       21231.00     92765.49
  226.18        3344.75           6788       18890.00     82510.37
  226.20        3345.00           6791       16948.00     74007.60
  226.23        3345.25           6795       14305.00     62442.12
  226.26        3345.50           6799       10680.00     46591.70
  226.28        3345.75           6803        8367.00     36485.38
  226.31        3346.00           6806        6567.00     28624.51
  226.34        3346.25           6810        4523.00     19702.24
  226.37        3346.50           6814        2884.00     12551.06
  226.39        3346.75           6818        1735.00      7539.52
  226.42        3347.00           6821        1034.00      4482.69
  226.45        3347.25           6825         353.00      1513.58
  226.48        3347.50           6829          92.00       375.77
  226.50        3347.75           6833          40.00       149.09
  226.53        3348.00           6836          41.00       153.44
  226.56        3348.25           6840          30.00       105.49
  226.58        3348.50           6844          40.00       149.09
  226.61        3348.75           6848          38.00       140.37
  226.64        3349.00           6851          41.00       153.44
  226.67        3349.25           6855          39.00       144.73
  226.69        3349.50           6859          43.00       162.16
  226.72        3349.75           6863          41.00       153.44
  226.75        3350.00           6867          37.00       136.01
  226.77        3350.25           6870          35.00       127.29
  226.80        3350.50           6874          33.00       118.57
  226.83        3350.75           6878          39.00       144.73
  226.86        3351.00           6882          40.00       149.09
HL scan finished at 03:47:29
end
