************************************************************
  HL Scan of (1) Internal mercury lamp
************************************************************
Integration time is 0.2294 seconds per sample
dh140817Tamanrasset 22.79-5.529 3.419379pr865
************************************************************
Dead Time -------------------------  2.8E-08 
Number of Cycles Used -------------  4 
Starting Wavelength (Angstroms) ---  3331 
Final Wavelength (Angstoms) -------  3351 
Wavelength Increment (Angstroms) --  .25 
Filter Wheel #1 Position ---------- (1) Ground quartz diffuser (ND=2.32)
Filter Wheel #2 Position ---------- (0) Clear Aperture



************************************************************
HL scan start time = 03:42:14
Dark Count =  6.4 


Time (GMT)  Wavelength (Ang)  Step Number  Raw Counts  Counts/Second

  222.74        3331.00           6581          29.00        98.52
  222.96        3331.25           6585          34.00       120.31
  222.99        3331.50           6589          30.00       102.88
  223.01        3331.75           6593          38.00       137.75
  223.04        3332.00           6596          36.00       129.03
  223.07        3332.25           6600          31.00       107.24
  223.10        3332.50           6604          34.00       120.31
  223.12        3332.75           6608          38.00       137.75
  223.15        3333.00           6611          31.00       107.24
  223.18        3333.25           6615          35.00       124.67
  223.20        3333.50           6619          33.00       115.96
  223.23        3333.75           6623          35.00       124.67
  223.26        3334.00           6626          33.00       115.96
  223.29        3334.25           6630          30.00       102.88
  223.31        3334.50           6634          36.00       129.03
  223.34        3334.75           6638          31.00       107.24
  223.37        3335.00           6641          36.00       129.03
  223.40        3335.25           6645          39.00       142.11
  223.42        3335.50           6649          43.00       159.55
  223.45        3335.75           6653          49.00       185.70
  223.48        3336.00           6656         128.00       530.09
  223.50        3336.25           6660         413.00      1772.54
  223.53        3336.50           6664        1123.00      4868.14
  223.56        3336.75           6668        2191.00      9525.65
  223.59        3337.00           6671        2604.00     11327.05
  223.61        3337.25           6675        4199.00     18285.74
  223.64        3337.50           6679        6388.00     27840.35
  223.67        3337.75           6683        8516.00     37133.62
  223.70        3338.00           6686       10254.00     44727.30
  223.72        3338.25           6690       12531.00     54680.87
  223.75        3338.50           6694       14857.00     64854.37
  223.78        3338.75           6698       17123.00     74771.03
  223.81        3339.00           6701       18842.00     82297.53
  223.83        3339.25           6705       21182.00     92548.15
  223.86        3339.50           6709       23508.00    102743.30
  223.89        3339.75           6713       25746.00    112558.20
  223.91        3340.00           6716       27158.00    118753.40
  223.94        3340.25           6720       29854.00    130588.20
  223.97        3340.50           6724       32080.00    140365.80
  224.00        3340.75           6728       34348.00    150333.30
  224.02        3341.00           6731       35763.00    156554.90
  224.05        3341.25           6735       37635.00    164789.10
  224.08        3341.50           6739       39287.00    172058.90
  224.11        3341.75           6743       39943.00    174946.40
  224.13        3342.00           6746       39932.00    174898.00
  224.16        3342.25           6750       39314.00    172177.70
  224.19        3342.50           6754       37952.00    166183.90
  224.22        3342.75           6758       35431.00    155094.90
  224.24        3343.00           6761       33443.00    146355.30
  224.27        3343.25           6765       31469.00    137681.50
  224.30        3343.50           6769       29615.00    129538.70
  224.32        3343.75           6773       27452.00    120043.60
  224.35        3344.00           6776       25780.00    112707.40
  224.38        3344.25           6780       23413.00    102326.80
  224.41        3344.50           6784       21021.00     91842.69
  224.43        3344.75           6788       18693.00     81645.02
  224.46        3345.00           6791       16872.00     73672.31
  224.49        3345.25           6795       14300.00     62417.63
  224.52        3345.50           6799       10820.00     47200.96
  224.54        3345.75           6803        8424.00     36731.74
  224.57        3346.00           6806        6759.00     29460.21
  224.60        3346.25           6810        4681.00     20389.15
  224.63        3346.50           6814        3105.00     13512.52
  224.65        3346.75           6818        1843.00      8007.90
  224.68        3347.00           6821        1272.00      5517.85
  224.71        3347.25           6825         434.00      1864.09
  224.74        3347.50           6829         111.00       455.98
  224.76        3347.75           6833          36.00       129.03
  224.79        3348.00           6836          36.00       129.03
  224.82        3348.25           6840          41.00       150.83
  224.84        3348.50           6844          38.00       137.75
  224.87        3348.75           6848          35.00       124.67
  224.90        3349.00           6851          40.00       146.47
  224.93        3349.25           6855          43.00       159.55
  224.95        3349.50           6859          39.00       142.11
  224.98        3349.75           6863          41.00       150.83
  225.01        3350.00           6867          40.00       146.47
  225.03        3350.25           6870          38.00       137.75
  225.06        3350.50           6874          32.00       111.60
  225.09        3350.75           6878          36.00       129.03
  225.12        3351.00           6882          47.00       176.98
HL scan finished at 03:45:44
end
