************************************************************
  HL Scan of (1) Internal mercury lamp
************************************************************
Integration time is 0.2294 seconds per sample
dh100817Tamanrasset 22.79-5.529 3.460166pr865
************************************************************
Dead Time -------------------------  2.8E-08 
Number of Cycles Used -------------  4 
Starting Wavelength (Angstroms) ---  3331 
Final Wavelength (Angstoms) -------  3351 
Wavelength Increment (Angstroms) --  .25 
Filter Wheel #1 Position ---------- (1) Ground quartz diffuser (ND=2.32)
Filter Wheel #2 Position ---------- (0) Clear Aperture



************************************************************
HL scan start time = 03:41:09
Dark Count =  6.5 


Time (GMT)  Wavelength (Ang)  Step Number  Raw Counts  Counts/Second

  221.67        3331.00           6581          36.00       128.60
  221.89        3331.25           6585          34.00       119.88
  221.91        3331.50           6589          31.00       106.80
  221.94        3331.75           6593          31.00       106.80
  221.97        3332.00           6596          33.00       115.52
  222.00        3332.25           6600          34.00       119.88
  222.02        3332.50           6604          37.00       132.96
  222.05        3332.75           6608          39.00       141.67
  222.08        3333.00           6611          39.00       141.67
  222.10        3333.25           6615          39.00       141.67
  222.13        3333.50           6619          43.00       159.11
  222.16        3333.75           6623          34.00       119.88
  222.19        3334.00           6626          34.00       119.88
  222.21        3334.25           6630          34.00       119.88
  222.24        3334.50           6634          35.00       124.24
  222.27        3334.75           6638          35.00       124.24
  222.29        3335.00           6641          36.00       128.60
  222.32        3335.25           6645          42.00       154.75
  222.35        3335.50           6649          43.00       159.11
  222.38        3335.75           6653          99.00       403.23
  222.40        3336.00           6656         251.00      1065.86
  222.43        3336.25           6660         773.00      3341.64
  222.46        3336.50           6664        1609.00      6986.98
  222.49        3336.75           6668        2772.00     12059.43
  222.51        3337.00           6671        3443.00     14986.67
  222.54        3337.25           6675        5395.00     23505.01
  222.57        3337.50           6679        7604.00     33149.76
  222.59        3337.75           6683        9972.00     43494.53
  222.62        3338.00           6686       11713.00     51104.03
  222.65        3338.25           6690       14112.00     61594.81
  222.68        3338.50           6694       16388.00     71553.41
  222.70        3338.75           6698       18730.00     81806.62
  222.73        3339.00           6701       20452.00     89349.24
  222.76        3339.25           6705       22894.00    100051.00
  222.79        3339.50           6709       25658.00    112171.70
  222.81        3339.75           6713       27589.00    120644.40
  222.84        3340.00           6716       29553.00    129266.10
  222.87        3340.25           6720       31506.00    137843.60
  222.90        3340.50           6724       33982.00    148724.00
  222.92        3340.75           6728       36268.00    158775.40
  222.95        3341.00           6731       37514.00    164256.40
  222.98        3341.25           6735       39090.00    171191.30
  223.01        3341.50           6739       40372.00    176834.60
  223.03        3341.75           6743       40756.00    178525.30
  223.06        3342.00           6746       40741.00    178459.30
  223.09        3342.25           6750       39792.00    174281.30
  223.11        3342.50           6754       37457.00    164005.60
  223.14        3342.75           6758       35112.00    153691.80
  223.17        3343.00           6761       33477.00    146504.30
  223.20        3343.25           6765       31641.00    138436.60
  223.22        3343.50           6769       29401.00    128598.70
  223.25        3343.75           6773       27176.00    118832.00
  223.28        3344.00           6776       25257.00    110412.80
  223.31        3344.25           6780       22996.00    100498.20
  223.33        3344.50           6784       20776.00     90768.77
  223.36        3344.75           6788       18095.00     79026.02
  223.39        3345.00           6791       15960.00     69680.29
  223.41        3345.25           6795       13153.00     57400.38
  223.44        3345.50           6799       10081.00     43970.85
  223.47        3345.75           6803        7640.00     33306.99
  223.50        3346.00           6806        6028.00     26268.22
  223.52        3346.25           6810        4097.00     17840.21
  223.55        3346.50           6814        2605.00     11330.97
  223.58        3346.75           6818        1673.00      7266.08
  223.61        3347.00           6821         961.00      4161.34
  223.63        3347.25           6825         269.00      1144.33
  223.66        3347.50           6829          63.00       246.30
  223.69        3347.75           6833          37.00       132.96
  223.71        3348.00           6836          40.00       146.03
  223.74        3348.25           6840          36.00       128.60
  223.77        3348.50           6844          34.00       119.88
  223.80        3348.75           6848          38.00       137.32
  223.82        3349.00           6851          36.00       128.60
  223.85        3349.25           6855          37.00       132.96
  223.88        3349.50           6859          41.00       150.39
  223.90        3349.75           6863          40.00       146.03
  223.93        3350.00           6867          38.00       137.32
  223.96        3350.25           6870          36.00       128.60
  223.99        3350.50           6874          38.00       137.32
  224.01        3350.75           6878          38.00       137.32
  224.04        3351.00           6882          34.00       119.88
HL scan finished at 03:44:40
end
