************************************************************
  HL Scan of (1) Internal mercury lamp
************************************************************
Integration time is 0.2294 seconds per sample
dh120818Tamanrasset 22.79-5.529 4.974364pr865
************************************************************
Dead Time -------------------------  2.8E-08 
Number of Cycles Used -------------  4 
Starting Wavelength (Angstroms) ---  3331 
Final Wavelength (Angstoms) -------  3351 
Wavelength Increment (Angstroms) --  .25 
Filter Wheel #1 Position ---------- (1) Ground quartz diffuser (ND=2.32)
Filter Wheel #2 Position ---------- (0) Clear Aperture



************************************************************
HL scan start time = 03:41:55
Dark Count =  6.1 


Time (GMT)  Wavelength (Ang)  Step Number  Raw Counts  Counts/Second

  222.43        3331.00           6581          32.00       112.90
  222.65        3331.25           6585          32.00       112.90
  222.68        3331.50           6589          28.00        95.47
  222.70        3331.75           6593          32.00       112.90
  222.73        3332.00           6596          31.00       108.54
  222.76        3332.25           6600          30.00       104.19
  222.78        3332.50           6604          29.00        99.83
  222.81        3332.75           6608          29.00        99.83
  222.84        3333.00           6611          33.00       117.26
  222.87        3333.25           6615          31.00       108.54
  222.89        3333.50           6619          31.00       108.54
  222.92        3333.75           6623          32.00       112.90
  222.95        3334.00           6626          29.00        99.83
  222.97        3334.25           6630          33.00       117.26
  223.00        3334.50           6634          32.00       112.90
  223.03        3334.75           6638          36.00       130.34
  223.06        3335.00           6641          34.00       121.62
  223.08        3335.25           6645          39.00       143.42
  223.11        3335.50           6649          43.00       160.86
  223.14        3335.75           6653          57.00       221.88
  223.16        3336.00           6656         139.00       579.35
  223.19        3336.25           6660         473.00      2035.43
  223.22        3336.50           6664        1075.00      4660.16
  223.25        3336.75           6668        1644.00      7141.36
  223.27        3337.00           6671        2258.00      9819.18
  223.30        3337.25           6675        4036.00     17575.78
  223.33        3337.50           6679        5941.00     25890.17
  223.35        3337.75           6683        7866.00     34295.78
  223.38        3338.00           6686        9395.00     40975.06
  223.41        3338.25           6690       11406.00     49763.72
  223.44        3338.50           6694       13328.00     58167.47
  223.46        3338.75           6698       15465.00     67515.93
  223.49        3339.00           6701       16919.00     73879.35
  223.52        3339.25           6705       18976.00     82885.70
  223.55        3339.50           6709       20943.00     91502.24
  223.57        3339.75           6713       23152.00    101183.80
  223.60        3340.00           6716       24667.00    107826.80
  223.63        3340.25           6720       26471.00    115740.20
  223.66        3340.50           6724       28508.00    124679.90
  223.68        3340.75           6728       30390.00    132943.40
  223.71        3341.00           6731       31729.00    138825.00
  223.74        3341.25           6735       33303.00    145741.30
  223.77        3341.50           6739       34559.00    151262.20
  223.79        3341.75           6743       35063.00    153478.10
  223.82        3342.00           6746       35199.00    154076.10
  223.85        3342.25           6750       34762.00    152154.70
  223.87        3342.50           6754       33118.00    144928.30
  223.90        3342.75           6758       31010.00    135666.50
  223.93        3343.00           6761       29188.00    127665.20
  223.96        3343.25           6765       27566.00    120545.30
  223.98        3343.50           6769       25927.00    113353.50
  224.01        3343.75           6773       23829.00    104152.00
  224.04        3344.00           6776       22492.00     98290.62
  224.07        3344.25           6780       20299.00     88680.69
  224.09        3344.50           6784       18310.00     79969.19
  224.12        3344.75           6788       16271.00     71043.10
  224.15        3345.00           6791       14525.00     63403.22
  224.18        3345.25           6795       12112.00     52850.17
  224.20        3345.50           6799        9258.00     40376.49
  224.23        3345.75           6803        7145.00     31147.03
  224.26        3346.00           6806        5679.00     24746.43
  224.28        3346.25           6810        3792.00     16511.12
  224.31        3346.50           6814        2496.00     10857.27
  224.34        3346.75           6818        1498.00      6504.67
  224.37        3347.00           6821        1022.00      4429.06
  224.39        3347.25           6825         331.00      1416.36
  224.42        3347.50           6829          71.00       282.91
  224.45        3347.75           6833          44.00       165.21
  224.48        3348.00           6836          40.00       147.78
  224.50        3348.25           6840          42.00       156.50
  224.53        3348.50           6844          36.00       130.34
  224.56        3348.75           6848          33.00       117.26
  224.58        3349.00           6851          33.00       117.26
  224.61        3349.25           6855          34.00       121.62
  224.64        3349.50           6859          34.00       121.62
  224.67        3349.75           6863          33.00       117.26
  224.69        3350.00           6867          36.00       130.34
  224.72        3350.25           6870          38.00       139.06
  224.75        3350.50           6874          37.00       134.70
  224.77        3350.75           6878          35.00       125.98
  224.80        3351.00           6882          28.00        95.47
HL scan finished at 03:45:25
end
