************************************************************
  HL Scan of (1) Internal mercury lamp
************************************************************
Integration time is 0.2294 seconds per sample
dh090818Tamanrasset 22.79-5.529 4.974364pr865
************************************************************
Dead Time -------------------------  2.8E-08 
Number of Cycles Used -------------  4 
Starting Wavelength (Angstroms) ---  3331 
Final Wavelength (Angstoms) -------  3351 
Wavelength Increment (Angstroms) --  .25 
Filter Wheel #1 Position ---------- (1) Ground quartz diffuser (ND=2.32)
Filter Wheel #2 Position ---------- (0) Clear Aperture



************************************************************
HL scan start time = 03:39:55
Dark Count =  5.4 


Time (GMT)  Wavelength (Ang)  Step Number  Raw Counts  Counts/Second

  220.43        3331.00           6581          31.00       111.60
  220.65        3331.25           6585          29.00       102.88
  220.68        3331.50           6589          34.00       124.67
  220.71        3331.75           6593          35.00       129.03
  220.73        3332.00           6596          27.00        94.16
  220.76        3332.25           6600          31.00       111.60
  220.79        3332.50           6604          32.00       115.96
  220.81        3332.75           6608          34.00       124.67
  220.84        3333.00           6611          33.00       120.31
  220.87        3333.25           6615          30.00       107.24
  220.90        3333.50           6619          28.00        98.52
  220.92        3333.75           6623          31.00       111.60
  220.95        3334.00           6626          32.00       115.96
  220.98        3334.25           6630          36.00       133.39
  221.01        3334.50           6634          36.00       133.39
  221.03        3334.75           6638          35.00       129.03
  221.06        3335.00           6641          35.00       129.03
  221.09        3335.25           6645          39.00       146.47
  221.11        3335.50           6649          40.00       150.83
  221.14        3335.75           6653          44.00       168.27
  221.17        3336.00           6656         104.00       429.82
  221.19        3336.25           6660         351.00      1506.60
  221.22        3336.50           6664         872.00      3778.08
  221.25        3336.75           6668        1432.00      6219.92
  221.28        3337.00           6671        2018.00      8775.48
  221.30        3337.25           6675        3712.00     16165.12
  221.33        3337.50           6679        5599.00     24400.28
  221.36        3337.75           6683        7463.00     32538.79
  221.39        3338.00           6686        8977.00     39151.88
  221.41        3338.25           6690       10902.00     47563.74
  221.44        3338.50           6694       12778.00     55765.30
  221.47        3338.75           6698       14766.00     64460.62
  221.49        3339.00           6701       16393.00     71580.11
  221.52        3339.25           6705       18359.00     80186.81
  221.55        3339.50           6709       20582.00     89923.60
  221.58        3339.75           6713       22362.00     97723.88
  221.60        3340.00           6716       23932.00    104606.70
  221.63        3340.25           6720       25956.00    113483.80
  221.66        3340.50           6724       27850.00    121794.80
  221.69        3340.75           6728       29869.00    130658.50
  221.71        3341.00           6731       31250.00    136723.80
  221.74        3341.25           6735       32528.00    142338.60
  221.77        3341.50           6739       34130.00    149379.40
  221.80        3341.75           6743       34876.00    152659.00
  221.82        3342.00           6746       34934.00    152914.00
  221.85        3342.25           6750       34573.00    151326.90
  221.88        3342.50           6754       33621.00    147142.00
  221.91        3342.75           6758       31639.00    138432.70
  221.93        3343.00           6761       30054.00    131470.90
  221.96        3343.25           6765       28544.00    124841.00
  221.99        3343.50           6769       26438.00    115598.50
  222.02        3343.75           6773       24437.00    106821.20
  222.04        3344.00           6776       22892.00    100047.10
  222.07        3344.25           6780       20838.00     91045.24
  222.10        3344.50           6784       18970.00     82862.47
  222.12        3344.75           6788       16867.00     73654.80
  222.15        3345.00           6791       14968.00     65344.38
  222.18        3345.25           6795       12577.00     54886.39
  222.21        3345.50           6799       10131.00     44194.15
  222.23        3345.75           6803        7762.00     33844.61
  222.26        3346.00           6806        6164.00     26866.76
  222.29        3346.25           6810        4327.00     18848.65
  222.32        3346.50           6814        3029.00     13185.34
  222.34        3346.75           6818        2155.00      9372.99
  222.37        3347.00           6821        1389.00      6032.41
  222.40        3347.25           6825         493.00      2125.67
  222.42        3347.50           6829          97.00       399.31
  222.45        3347.75           6833          42.00       159.55
  222.48        3348.00           6836          43.00       163.91
  222.51        3348.25           6840          46.00       176.98
  222.53        3348.50           6844          32.00       115.96
  222.56        3348.75           6848          29.00       102.88
  222.59        3349.00           6851          34.00       124.67
  222.61        3349.25           6855          36.00       133.39
  222.64        3349.50           6859          36.00       133.39
  222.67        3349.75           6863          34.00       124.67
  222.70        3350.00           6867          35.00       129.03
  222.72        3350.25           6870          35.00       129.03
  222.75        3350.50           6874          36.00       133.39
  222.78        3350.75           6878          32.00       115.96
  222.80        3351.00           6882          36.00       133.39
HL scan finished at 03:43:26
end
