************************************************************
  HL Scan of (1) Internal mercury lamp
************************************************************
Integration time is 0.2294 seconds per sample
dh130818Tamanrasset 22.79-5.529 4.974364pr865
************************************************************
Dead Time -------------------------  2.8E-08 
Number of Cycles Used -------------  4 
Starting Wavelength (Angstroms) ---  3331 
Final Wavelength (Angstoms) -------  3351 
Wavelength Increment (Angstroms) --  .25 
Filter Wheel #1 Position ---------- (1) Ground quartz diffuser (ND=2.32)
Filter Wheel #2 Position ---------- (0) Clear Aperture



************************************************************
HL scan start time = 03:42:27
Dark Count =  5.6 


Time (GMT)  Wavelength (Ang)  Step Number  Raw Counts  Counts/Second

  222.96        3331.00           6581          34.00       123.80
  223.18        3331.25           6585          32.00       115.08
  223.21        3331.50           6589          30.00       106.36
  223.23        3331.75           6593          34.00       123.80
  223.26        3332.00           6596          31.00       110.72
  223.29        3332.25           6600          37.00       136.88
  223.32        3332.50           6604          33.00       119.44
  223.34        3332.75           6608          29.00       102.01
  223.37        3333.00           6611          32.00       115.08
  223.40        3333.25           6615          36.00       132.52
  223.42        3333.50           6619          33.00       119.44
  223.45        3333.75           6623          29.00       102.01
  223.48        3334.00           6626          28.00        97.65
  223.51        3334.25           6630          30.00       106.36
  223.53        3334.50           6634          31.00       110.72
  223.56        3334.75           6638          24.00        80.21
  223.59        3335.00           6641          34.00       123.80
  223.62        3335.25           6645          40.00       149.96
  223.64        3335.50           6649          44.00       167.39
  223.67        3335.75           6653          58.00       228.42
  223.70        3336.00           6656         133.00       555.37
  223.72        3336.25           6660         460.00      1980.93
  223.75        3336.50           6664        1125.00      4880.35
  223.78        3336.75           6668        2191.00      9529.13
  223.81        3337.00           6671        2565.00     11160.42
  223.84        3337.25           6675        3939.00     17154.71
  223.86        3337.50           6679        5945.00     25909.81
  223.89        3337.75           6683        7789.00     33961.67
  223.92        3338.00           6686        9351.00     40785.00
  223.95        3338.25           6690       11264.00     49145.18
  223.97        3338.50           6694       13257.00     57859.14
  224.00        3338.75           6698       15140.00     66096.06
  224.03        3339.00           6701       16738.00     73089.27
  224.06        3339.25           6705       18752.00     81906.90
  224.08        3339.50           6709       20901.00     91320.39
  224.11        3339.75           6713       22831.00     99778.81
  224.14        3340.00           6716       24408.00    106693.20
  224.16        3340.25           6720       26234.00    114702.60
  224.19        3340.50           6724       28119.00    122974.60
  224.22        3340.75           6728       30244.00    132304.40
  224.25        3341.00           6731       31397.00    137368.70
  224.27        3341.25           6735       33132.00    144992.00
  224.30        3341.50           6739       34104.00    149264.20
  224.33        3341.75           6743       34895.00    152741.60
  224.36        3342.00           6746       34709.00    151923.90
  224.38        3342.25           6750       34147.00    149453.20
  224.41        3342.50           6754       33079.00    144759.10
  224.44        3342.75           6758       30897.00    135172.40
  224.47        3343.00           6761       28930.00    126534.70
  224.50        3343.25           6765       27145.00    118699.90
  224.52        3343.50           6769       25765.00    112645.10
  224.55        3343.75           6773       23748.00    103799.10
  224.58        3344.00           6776       22269.00     97315.38
  224.61        3344.25           6780       20290.00     88643.47
  224.63        3344.50           6784       18105.00     79073.75
  224.66        3344.75           6788       16074.00     70183.12
  224.69        3345.00           6791       14413.00     62915.45
  224.72        3345.25           6795       12202.00     53245.85
  224.74        3345.50           6799        8912.00     38867.04
  224.77        3345.75           6803        6941.00     30258.41
  224.80        3346.00           6806        5583.00     24329.56
  224.82        3346.25           6810        3757.00     16360.59
  224.85        3346.50           6814        2165.00      9415.73
  224.88        3346.75           6818        1386.00      6018.45
  224.91        3347.00           6821         866.00      3751.05
  224.93        3347.25           6825         324.00      1388.02
  224.96        3347.50           6829          68.00       272.02
  224.99        3347.75           6833          46.00       176.11
  225.02        3348.00           6836          36.00       132.52
  225.04        3348.25           6840          34.00       123.80
  225.07        3348.50           6844          32.00       115.08
  225.10        3348.75           6848          33.00       119.44
  225.13        3349.00           6851          37.00       136.88
  225.15        3349.25           6855          33.00       119.44
  225.18        3349.50           6859          35.00       128.16
  225.21        3349.75           6863          32.00       115.08
  225.23        3350.00           6867          32.00       115.08
  225.26        3350.25           6870          38.00       141.24
  225.29        3350.50           6874          35.00       128.16
  225.32        3350.75           6878          34.00       123.80
  225.34        3351.00           6882          32.00       115.08
HL scan finished at 03:45:58
end
