************************************************************
  HL Scan of (1) Internal mercury lamp
************************************************************
Integration time is 0.2294 seconds per sample
dh110818Tamanrasset 22.79-5.529 4.974364pr865
************************************************************
Dead Time -------------------------  2.8E-08 
Number of Cycles Used -------------  4 
Starting Wavelength (Angstroms) ---  3331 
Final Wavelength (Angstoms) -------  3351 
Wavelength Increment (Angstroms) --  .25 
Filter Wheel #1 Position ---------- (1) Ground quartz diffuser (ND=2.32)
Filter Wheel #2 Position ---------- (0) Clear Aperture



************************************************************
HL scan start time = 03:40:56
Dark Count =  5.4 


Time (GMT)  Wavelength (Ang)  Step Number  Raw Counts  Counts/Second

  221.45        3331.00           6581          28.00        98.52
  221.67        3331.25           6585          31.00       111.60
  221.69        3331.50           6589          32.00       115.96
  221.72        3331.75           6593          31.00       111.60
  221.75        3332.00           6596          28.00        98.52
  221.77        3332.25           6600          29.00       102.88
  221.80        3332.50           6604          31.00       111.60
  221.83        3332.75           6608          33.00       120.31
  221.86        3333.00           6611          29.00       102.88
  221.88        3333.25           6615          33.00       120.31
  221.91        3333.50           6619          32.00       115.96
  221.94        3333.75           6623          35.00       129.03
  221.97        3334.00           6626          32.00       115.96
  221.99        3334.25           6630          34.00       124.67
  222.02        3334.50           6634          30.00       107.24
  222.05        3334.75           6638          37.00       137.75
  222.07        3335.00           6641          31.00       111.60
  222.10        3335.25           6645          38.00       142.11
  222.13        3335.50           6649          39.00       146.47
  222.15        3335.75           6653          54.00       211.86
  222.18        3336.00           6656         119.00       495.21
  222.21        3336.25           6660         343.00      1471.73
  222.24        3336.50           6664         781.00      3381.31
  222.26        3336.75           6668        1527.00      6634.19
  222.29        3337.00           6671        2007.00      8727.50
  222.32        3337.25           6675        3603.00     15689.54
  222.35        3337.50           6679        5456.00     23776.07
  222.37        3337.75           6683        7400.00     32263.66
  222.40        3338.00           6686        8868.00     38675.69
  222.43        3338.25           6690       10753.00     46912.50
  222.46        3338.50           6694       12717.00     55498.56
  222.48        3338.75           6698       14634.00     63883.13
  222.51        3339.00           6701       16214.00     70796.69
  222.54        3339.25           6705       18271.00     79801.49
  222.56        3339.50           6709       20388.00     89073.68
  222.59        3339.75           6713       22179.00     96921.78
  222.62        3340.00           6716       23736.00    103747.30
  222.65        3340.25           6720       25767.00    112654.70
  222.67        3340.50           6724       27686.00    121075.00
  222.70        3340.75           6728       29701.00    129920.80
  222.73        3341.00           6731       30938.00    135353.30
  222.76        3341.25           6735       32636.00    142813.20
  222.78        3341.50           6739       33759.00    147748.60
  222.81        3341.75           6743       34537.00    151168.60
  222.84        3342.00           6746       34763.00    152162.20
  222.87        3342.25           6750       34247.00    149893.70
  222.89        3342.50           6754       33188.00    145239.00
  222.92        3342.75           6758       31184.00    136433.90
  222.95        3343.00           6761       29744.00    130109.60
  222.98        3343.25           6765       27729.00    121263.70
  223.00        3343.50           6769       26055.00    113918.20
  223.03        3343.75           6773       24073.00    105225.00
  223.06        3344.00           6776       22505.00     98350.69
  223.08        3344.25           6780       20502.00     89573.10
  223.11        3344.50           6784       18480.00     80716.66
  223.14        3344.75           6788       16470.00     71917.13
  223.17        3345.00           6791       14813.00     64666.24
  223.19        3345.25           6795       12374.00     53998.76
  223.22        3345.50           6799        9627.00     41991.80
  223.25        3345.75           6803        7477.00     32599.93
  223.28        3346.00           6806        5975.00     26041.65
  223.30        3346.25           6810        4087.00     17801.38
  223.33        3346.50           6814        2840.00     12360.86
  223.36        3346.75           6818        1778.00      7728.79
  223.39        3347.00           6821        1143.00      4959.71
  223.41        3347.25           6825         400.00      1720.22
  223.44        3347.50           6829          79.00       320.84
  223.47        3347.75           6833          37.00       137.75
  223.49        3348.00           6836          39.00       146.47
  223.52        3348.25           6840          38.00       142.11
  223.55        3348.50           6844          32.00       115.96
  223.58        3348.75           6848          37.00       137.75
  223.60        3349.00           6851          34.00       124.67
  223.63        3349.25           6855          34.00       124.67
  223.66        3349.50           6859          39.00       146.47
  223.68        3349.75           6863          32.00       115.96
  223.71        3350.00           6867          34.00       124.67
  223.74        3350.25           6870          33.00       120.31
  223.77        3350.50           6874          37.00       137.75
  223.79        3350.75           6878          36.00       133.39
  223.82        3351.00           6882          37.00       137.75
HL scan finished at 03:44:26
end
