************************************************************
  HL Scan of (1) Internal mercury lamp
************************************************************
Integration time is 0.2294 seconds per sample
dh080817Tamanrasset 22.79-5.529 3.14407pr865
************************************************************
Dead Time -------------------------  2.8E-08 
Number of Cycles Used -------------  4 
Starting Wavelength (Angstroms) ---  3331 
Final Wavelength (Angstoms) -------  3351 
Wavelength Increment (Angstroms) --  .25 
Filter Wheel #1 Position ---------- (1) Ground quartz diffuser (ND=2.32)
Filter Wheel #2 Position ---------- (0) Clear Aperture



************************************************************
HL scan start time = 03:40:10
Dark Count =  5.4 


Time (GMT)  Wavelength (Ang)  Step Number  Raw Counts  Counts/Second

  220.68        3331.00           6581          30.00       107.24
  220.90        3331.25           6585          27.00        94.16
  220.92        3331.50           6589          35.00       129.03
  220.95        3331.75           6593          32.00       115.96
  220.98        3332.00           6596          33.00       120.31
  221.00        3332.25           6600          31.00       111.60
  221.03        3332.50           6604          33.00       120.31
  221.06        3332.75           6608          32.00       115.96
  221.09        3333.00           6611          25.00        85.44
  221.11        3333.25           6615          36.00       133.39
  221.14        3333.50           6619          29.00       102.88
  221.17        3333.75           6623          35.00       129.03
  221.19        3334.00           6626          31.00       111.60
  221.22        3334.25           6630          33.00       120.31
  221.25        3334.50           6634          29.00       102.88
  221.28        3334.75           6638          25.00        85.44
  221.30        3335.00           6641          32.00       115.96
  221.33        3335.25           6645          34.00       124.67
  221.36        3335.50           6649          37.00       137.75
  221.38        3335.75           6653          44.00       168.27
  221.41        3336.00           6656         115.00       477.77
  221.44        3336.25           6660         346.00      1484.80
  221.47        3336.50           6664         702.00      3036.88
  221.49        3336.75           6668        1262.00      5478.61
  221.52        3337.00           6671        1943.00      8448.38
  221.55        3337.25           6675        3581.00     15593.56
  221.57        3337.50           6679        5311.00     23143.16
  221.60        3337.75           6683        7271.00     31700.32
  221.63        3338.00           6686        8588.00     37452.51
  221.66        3338.25           6690       10517.00     45881.05
  221.68        3338.50           6694       12442.00     54296.09
  221.71        3338.75           6698       14285.00     62356.38
  221.74        3339.00           6701       15843.00     69173.08
  221.77        3339.25           6705       17847.00     77945.00
  221.79        3339.50           6709       19759.00     86318.22
  221.82        3339.75           6713       21583.00     94309.74
  221.85        3340.00           6716       23143.00    101147.40
  221.88        3340.25           6720       25217.00    110242.10
  221.90        3340.50           6724       27115.00    118569.10
  221.93        3340.75           6728       28955.00    126645.30
  221.96        3341.00           6731       30275.00    132441.40
  221.99        3341.25           6735       31694.00    138674.30
  222.01        3341.50           6739       32839.00    143705.30
  222.04        3341.75           6743       33566.00    146900.30
  222.07        3342.00           6746       33333.00    145876.20
  222.10        3342.25           6750       33168.00    145151.10
  222.12        3342.50           6754       31693.00    138669.90
  222.15        3342.75           6758       29711.00    129964.70
  222.18        3343.00           6761       28359.00    124028.90
  222.20        3343.25           6765       26710.00    116792.00
  222.23        3343.50           6769       24877.00    108750.90
  222.26        3343.75           6773       23032.00    100660.80
  222.29        3344.00           6776       21507.00     93976.69
  222.31        3344.25           6780       19584.00     85551.69
  222.34        3344.50           6784       17621.00     76955.53
  222.37        3344.75           6788       15718.00     68626.07
  222.40        3345.00           6791       14031.00     61245.31
  222.42        3345.25           6795       11862.00     51760.23
  222.45        3345.50           6799        9291.00     40523.72
  222.48        3345.75           6803        7020.00     30604.25
  222.50        3346.00           6806        5445.00     23728.06
  222.53        3346.25           6810        3901.00     16989.77
  222.56        3346.50           6814        2875.00     12513.54
  222.59        3346.75           6818        1855.00      8064.59
  222.61        3347.00           6821        1027.00      4453.91
  222.64        3347.25           6825         366.00      1572.00
  222.67        3347.50           6829          71.00       285.97
  222.70        3347.75           6833          40.00       150.83
  222.72        3348.00           6836          36.00       133.39
  222.75        3348.25           6840          39.00       146.47
  222.78        3348.50           6844          32.00       115.96
  222.80        3348.75           6848          33.00       120.31
  222.83        3349.00           6851          32.00       115.96
  222.86        3349.25           6855          38.00       142.11
  222.89        3349.50           6859          33.00       120.31
  222.91        3349.75           6863          34.00       124.67
  222.94        3350.00           6867          37.00       137.75
  222.97        3350.25           6870          35.00       129.03
  222.99        3350.50           6874          35.00       129.03
  223.02        3350.75           6878          35.00       129.03
  223.05        3351.00           6882          34.00       124.67
HL scan finished at 03:43:40
end
