************************************************************
  HL Scan of (1) Internal mercury lamp
************************************************************
Integration time is 0.2294 seconds per sample
dh160818Tamanrasset 22.79-5.529 4.974364pr865
************************************************************
Dead Time -------------------------  2.8E-08 
Number of Cycles Used -------------  4 
Starting Wavelength (Angstroms) ---  3331 
Final Wavelength (Angstoms) -------  3351 
Wavelength Increment (Angstroms) --  .25 
Filter Wheel #1 Position ---------- (1) Ground quartz diffuser (ND=2.32)
Filter Wheel #2 Position ---------- (0) Clear Aperture



************************************************************
HL scan start time = 03:43:07
Dark Count =  5.7 


Time (GMT)  Wavelength (Ang)  Step Number  Raw Counts  Counts/Second

  223.63        3331.00           6581          35.00       127.72
  223.85        3331.25           6585          28.00        97.21
  223.88        3331.50           6589          39.00       145.16
  223.90        3331.75           6593          36.00       132.08
  223.93        3332.00           6596          32.00       114.65
  223.96        3332.25           6600          31.00       110.29
  223.99        3332.50           6604          41.00       153.88
  224.01        3332.75           6608          32.00       114.65
  224.04        3333.00           6611          31.00       110.29
  224.07        3333.25           6615          30.00       105.93
  224.09        3333.50           6619          34.00       123.37
  224.12        3333.75           6623          33.00       119.01
  224.15        3334.00           6626          31.00       110.29
  224.18        3334.25           6630          33.00       119.01
  224.20        3334.50           6634          30.00       105.93
  224.23        3334.75           6638          32.00       114.65
  224.26        3335.00           6641          36.00       132.08
  224.29        3335.25           6645          36.00       132.08
  224.31        3335.50           6649          40.00       149.52
  224.34        3335.75           6653          48.00       184.40
  224.37        3336.00           6656         111.00       459.03
  224.39        3336.25           6660         365.00      1566.33
  224.42        3336.50           6664         835.00      3615.45
  224.45        3336.75           6668        1567.00      6807.31
  224.48        3337.00           6671        2151.00      9354.24
  224.50        3337.25           6675        3771.00     16421.24
  224.53        3337.50           6679        5570.00     24272.38
  224.56        3337.75           6683        7414.00     32323.49
  224.59        3338.00           6686        8899.00     38809.81
  224.61        3338.25           6690       10766.00     46968.01
  224.64        3338.50           6694       12676.00     55317.96
  224.67        3338.75           6698       14593.00     63702.46
  224.70        3339.00           6701       15969.00     69723.18
  224.72        3339.25           6705       17975.00     78504.11
  224.75        3339.50           6709       20005.00     87394.51
  224.78        3339.75           6713       21859.00     95517.99
  224.80        3340.00           6716       23298.00    101825.70
  224.83        3340.25           6720       25223.00    110267.10
  224.86        3340.50           6724       27171.00    118813.50
  224.89        3340.75           6728       29155.00    127522.10
  224.91        3341.00           6731       30424.00    133094.50
  224.94        3341.25           6735       31781.00    139055.20
  224.97        3341.50           6739       33105.00    144872.90
  225.00        3341.75           6743       33817.00    148002.20
  225.02        3342.00           6746       34091.00    149206.60
  225.05        3342.25           6750       33540.00    146784.70
  225.08        3342.50           6754       32568.00    142513.10
  225.11        3342.75           6758       30586.00    133806.00
  225.13        3343.00           6761       29105.00    127302.60
  225.16        3343.25           6765       27354.00    119616.60
  225.19        3343.50           6769       25553.00    111714.60
  225.21        3343.75           6773       23652.00    103377.70
  225.24        3344.00           6776       22032.00     96276.19
  225.27        3344.25           6780       20129.00     87937.71
  225.30        3344.50           6784       18133.00     79195.91
  225.32        3344.75           6788       16147.00     70502.16
  225.35        3345.00           6791       14565.00     63579.96
  225.38        3345.25           6795       12519.00     54631.46
  225.41        3345.50           6799        9813.00     42803.23
  225.43        3345.75           6803        7261.00     31655.34
  225.46        3346.00           6806        5861.00     25542.68
  225.49        3346.25           6810        4094.00     17830.61
  225.52        3346.50           6814        3019.00     13140.41
  225.54        3346.75           6818        1993.00      8665.14
  225.57        3347.00           6821        1271.00      5516.55
  225.60        3347.25           6825         414.00      1779.95
  225.62        3347.50           6829          88.00       358.77
  225.65        3347.75           6833          40.00       149.52
  225.68        3348.00           6836          42.00       158.24
  225.71        3348.25           6840          32.00       114.65
  225.73        3348.50           6844          37.00       136.44
  225.76        3348.75           6848          34.00       123.37
  225.79        3349.00           6851          37.00       136.44
  225.81        3349.25           6855          39.00       145.16
  225.84        3349.50           6859          27.00        92.85
  225.87        3349.75           6863          37.00       136.44
  225.90        3350.00           6867          35.00       127.72
  225.92        3350.25           6870          29.00       101.57
  225.95        3350.50           6874          33.00       119.01
  225.98        3350.75           6878          32.00       114.65
  226.01        3351.00           6882          35.00       127.72
HL scan finished at 03:46:38
end
