************************************************************
  HL Scan of (1) Internal mercury lamp
************************************************************
Integration time is 0.2294 seconds per sample
dh150818Tamanrasset 22.79-5.529 4.974364pr865
************************************************************
Dead Time -------------------------  2.8E-08 
Number of Cycles Used -------------  4 
Starting Wavelength (Angstroms) ---  3331 
Final Wavelength (Angstoms) -------  3351 
Wavelength Increment (Angstroms) --  .25 
Filter Wheel #1 Position ---------- (1) Ground quartz diffuser (ND=2.32)
Filter Wheel #2 Position ---------- (0) Clear Aperture



************************************************************
HL scan start time = 03:42:17
Dark Count =  4.9 


Time (GMT)  Wavelength (Ang)  Step Number  Raw Counts  Counts/Second

  222.80        3331.00           6581          33.00       122.49
  223.01        3331.25           6585          34.00       126.85
  223.04        3331.50           6589          37.00       139.93
  223.07        3331.75           6593          27.00        96.34
  223.09        3332.00           6596          31.00       113.78
  223.12        3332.25           6600          31.00       113.78
  223.15        3332.50           6604          35.00       131.21
  223.18        3332.75           6608          33.00       122.49
  223.20        3333.00           6611          30.00       109.42
  223.23        3333.25           6615          33.00       122.49
  223.26        3333.50           6619          29.00       105.06
  223.29        3333.75           6623          32.00       118.13
  223.31        3334.00           6626          30.00       109.42
  223.34        3334.25           6630          32.00       118.13
  223.37        3334.50           6634          31.00       113.78
  223.39        3334.75           6638          29.00       105.06
  223.42        3335.00           6641          35.00       131.21
  223.45        3335.25           6645          41.00       157.37
  223.48        3335.50           6649          43.00       166.09
  223.50        3335.75           6653          67.00       270.71
  223.53        3336.00           6656         159.00       671.77
  223.56        3336.25           6660         503.00      2171.45
  223.58        3336.50           6664        1081.00      4691.55
  223.61        3336.75           6668        1929.00      8389.50
  223.64        3337.00           6671        2697.00     11739.26
  223.67        3337.25           6675        4462.00     19439.96
  223.69        3337.50           6679        6392.00     27864.37
  223.72        3337.75           6683        8409.00     36672.77
  223.75        3338.00           6686       10032.00     43763.71
  223.78        3338.25           6690       12049.00     52579.97
  223.80        3338.50           6694       14068.00     61409.34
  223.83        3338.75           6698       16054.00     70098.66
  223.86        3339.00           6701       17653.00     77097.81
  223.88        3339.25           6705       19735.00     86215.29
  223.91        3339.50           6709       21897.00     95688.02
  223.94        3339.75           6713       23877.00    104367.80
  223.97        3340.00           6716       25369.00    110911.00
  223.99        3340.25           6720       27640.00    120875.30
  224.02        3340.50           6724       29543.00    129229.20
  224.05        3340.75           6728       31589.00    138215.20
  224.08        3341.00           6731       32790.00    143492.10
  224.10        3341.25           6735       34298.00    150120.10
  224.13        3341.50           6739       35515.00    155470.90
  224.16        3341.75           6743       36030.00    157735.70
  224.19        3342.00           6746       35992.00    157568.60
  224.21        3342.25           6750       35455.00    155207.10
  224.24        3342.50           6754       33647.00    147258.50
  224.27        3342.75           6758       31788.00    139089.50
  224.30        3343.00           6761       30208.00    132149.40
  224.32        3343.25           6765       28547.00    124856.40
  224.35        3343.50           6769       26665.00    116596.70
  224.38        3343.75           6773       24367.00    106516.40
  224.40        3344.00           6776       22702.00     99216.39
  224.43        3344.25           6780       20687.00     90385.83
  224.46        3344.50           6784       18612.00     81296.88
  224.49        3344.75           6788       16749.00     73140.48
  224.51        3345.00           6791       14919.00     65132.19
  224.54        3345.25           6795       12521.00     54643.70
  224.57        3345.50           6799        9658.00     42129.44
  224.60        3345.75           6803        7193.00     31361.88
  224.62        3346.00           6806        5751.00     25065.98
  224.65        3346.25           6810        3822.00     16647.25
  224.68        3346.50           6814        2728.00     11874.48
  224.71        3346.75           6818        1805.00      7848.72
  224.73        3347.00           6821        1018.00      4416.85
  224.76        3347.25           6825         305.00      1308.24
  224.79        3347.50           6829          63.00       253.27
  224.81        3347.75           6833          40.00       153.01
  224.84        3348.00           6836          41.00       157.37
  224.87        3348.25           6840          46.00       179.16
  224.90        3348.50           6844          31.00       113.78
  224.92        3348.75           6848          43.00       166.09
  224.95        3349.00           6851          36.00       135.57
  224.98        3349.25           6855          30.00       109.42
  225.00        3349.50           6859          40.00       153.01
  225.03        3349.75           6863          33.00       122.49
  225.06        3350.00           6867          37.00       139.93
  225.09        3350.25           6870          33.00       122.49
  225.11        3350.50           6874          30.00       109.42
  225.14        3350.75           6878          44.00       170.45
  225.17        3351.00           6882          28.00       100.70
HL scan finished at 03:45:47
end
