************************************************************
  HL Scan of (1) Internal mercury lamp
************************************************************
Integration time is 0.2294 seconds per sample
dh160817Tamanrasset 22.79-5.529 3.291921pr865
************************************************************
Dead Time -------------------------  2.8E-08 
Number of Cycles Used -------------  4 
Starting Wavelength (Angstroms) ---  3331 
Final Wavelength (Angstoms) -------  3351 
Wavelength Increment (Angstroms) --  .25 
Filter Wheel #1 Position ---------- (1) Ground quartz diffuser (ND=2.32)
Filter Wheel #2 Position ---------- (0) Clear Aperture



************************************************************
HL scan start time = 03:43:12
Dark Count =  5.4 


Time (GMT)  Wavelength (Ang)  Step Number  Raw Counts  Counts/Second

  223.72        3331.00           6581          28.00        98.52
  223.94        3331.25           6585          36.00       133.39
  223.96        3331.50           6589          33.00       120.31
  223.99        3331.75           6593          27.00        94.16
  224.02        3332.00           6596          33.00       120.31
  224.05        3332.25           6600          31.00       111.60
  224.07        3332.50           6604          30.00       107.24
  224.10        3332.75           6608          32.00       115.96
  224.13        3333.00           6611          34.00       124.67
  224.15        3333.25           6615          29.00       102.88
  224.18        3333.50           6619          30.00       107.24
  224.21        3333.75           6623          42.00       159.55
  224.24        3334.00           6626          34.00       124.67
  224.26        3334.25           6630          32.00       115.96
  224.29        3334.50           6634          31.00       111.60
  224.32        3334.75           6638          37.00       137.75
  224.34        3335.00           6641          28.00        98.52
  224.37        3335.25           6645          33.00       120.31
  224.40        3335.50           6649          42.00       159.55
  224.43        3335.75           6653          53.00       207.50
  224.45        3336.00           6656         120.00       499.57
  224.48        3336.25           6660         431.00      1855.37
  224.51        3336.50           6664        1081.00      4689.37
  224.53        3336.75           6668        1772.00      7702.62
  224.56        3337.00           6671        2450.00     10659.68
  224.59        3337.25           6675        4169.00     18159.19
  224.62        3337.50           6679        6164.00     26866.76
  224.64        3337.75           6683        8256.00     36002.27
  224.67        3338.00           6686        9884.00     43114.79
  224.70        3338.25           6690       12063.00     52638.99
  224.73        3338.50           6694       14194.00     61958.31
  224.75        3338.75           6698       16294.00     71146.83
  224.78        3339.00           6701       17748.00     77511.56
  224.81        3339.25           6705       19883.00     86861.39
  224.84        3339.50           6709       21959.00     95957.56
  224.86        3339.75           6713       24338.00    106387.10
  224.89        3340.00           6716       25872.00    113115.30
  224.92        3340.25           6720       27933.00    122159.10
  224.95        3340.50           6724       30153.00    131905.60
  224.97        3340.75           6728       32116.00    140528.30
  225.00        3341.00           6731       33514.00    146671.70
  225.03        3341.25           6735       35160.00    153907.70
  225.05        3341.50           6739       36527.00    159919.40
  225.08        3341.75           6743       37124.00    162545.40
  225.11        3342.00           6746       37074.00    162325.50
  225.14        3342.25           6750       36532.00    159941.40
  225.16        3342.50           6754       34819.00    152408.40
  225.19        3342.75           6758       32419.00    141859.70
  225.22        3343.00           6761       31204.00    136521.80
  225.25        3343.25           6765       29243.00    127909.80
  225.27        3343.50           6769       27219.00    119025.50
  225.30        3343.75           6773       25161.00    109996.50
  225.33        3344.00           6776       23471.00    102585.40
  225.36        3344.25           6780       21364.00     93350.05
  225.38        3344.50           6784       19467.00     85039.22
  225.41        3344.75           6788       17155.00     74915.49
  225.44        3345.00           6791       15290.00     66753.25
  225.47        3345.25           6795       13033.00     56880.41
  225.49        3345.50           6799        9872.00     43062.35
  225.52        3345.75           6803        7683.00     33499.59
  225.55        3346.00           6806        6166.00     26875.49
  225.57        3346.25           6810        4075.00     17749.01
  225.60        3346.50           6814        3061.00     13324.94
  225.63        3346.75           6818        1884.00      8191.07
  225.66        3347.00           6821        1219.00      5291.11
  225.68        3347.25           6825         388.00      1667.91
  225.71        3347.50           6829          70.00       281.61
  225.74        3347.75           6833          39.00       146.47
  225.76        3348.00           6836          44.00       168.27
  225.79        3348.25           6840          34.00       124.67
  225.82        3348.50           6844          34.00       124.67
  225.85        3348.75           6848          34.00       124.67
  225.87        3349.00           6851          35.00       129.03
  225.90        3349.25           6855          39.00       146.47
  225.93        3349.50           6859          41.00       155.19
  225.95        3349.75           6863          39.00       146.47
  225.98        3350.00           6867          37.00       137.75
  226.01        3350.25           6870          34.00       124.67
  226.04        3350.50           6874          40.00       150.83
  226.06        3350.75           6878          38.00       142.11
  226.09        3351.00           6882          38.00       142.11
HL scan finished at 03:46:43
end
