************************************************************
  HL Scan of (1) Internal mercury lamp
************************************************************
Integration time is 0.2294 seconds per sample
dh270818Tamanrasset 22.79-5.529 4.974364pr865
************************************************************
Dead Time -------------------------  2.8E-08 
Number of Cycles Used -------------  4 
Starting Wavelength (Angstroms) ---  3331 
Final Wavelength (Angstoms) -------  3351 
Wavelength Increment (Angstroms) --  .25 
Filter Wheel #1 Position ---------- (1) Ground quartz diffuser (ND=2.32)
Filter Wheel #2 Position ---------- (0) Clear Aperture



************************************************************
HL scan start time = 03:47:15
Dark Count =  5 


Time (GMT)  Wavelength (Ang)  Step Number  Raw Counts  Counts/Second

  227.76        3331.00           6581          27.00        95.90
  227.98        3331.25           6585          30.00       108.98
  228.01        3331.50           6589          29.00       104.62
  228.04        3331.75           6593          30.00       108.98
  228.06        3332.00           6596          34.00       126.42
  228.09        3332.25           6600          28.00       100.26
  228.12        3332.50           6604          29.00       104.62
  228.14        3332.75           6608          31.00       113.34
  228.17        3333.00           6611          34.00       126.42
  228.20        3333.25           6615          32.00       117.70
  228.23        3333.50           6619          27.00        95.90
  228.25        3333.75           6623          27.00        95.90
  228.28        3334.00           6626          32.00       117.70
  228.31        3334.25           6630          31.00       113.34
  228.33        3334.50           6634          30.00       108.98
  228.36        3334.75           6638          24.00        82.82
  228.39        3335.00           6641          33.00       122.06
  228.42        3335.25           6645          35.00       130.78
  228.44        3335.50           6649          38.00       143.85
  228.47        3335.75           6653          64.00       257.19
  228.50        3336.00           6656         158.00       666.97
  228.53        3336.25           6660         480.00      2070.74
  228.55        3336.50           6664        1044.00      4529.78
  228.58        3336.75           6668        1867.00      8118.67
  228.61        3337.00           6671        2389.00     10395.35
  228.63        3337.25           6675        4123.00     17960.21
  228.66        3337.50           6679        6097.00     26576.01
  228.69        3337.75           6683        7827.00     34130.25
  228.72        3338.00           6686        9337.00     40726.45
  228.74        3338.25           6690       11348.00     49514.99
  228.77        3338.50           6694       13213.00     57669.33
  228.80        3338.75           6698       15165.00     66208.06
  228.83        3339.00           6701       16843.00     73551.50
  228.85        3339.25           6705       18701.00     81686.18
  228.88        3339.50           6709       20988.00     91704.22
  228.91        3339.75           6713       22958.00    100338.20
  228.94        3340.00           6716       24417.00    106735.30
  228.96        3340.25           6720       26280.00    114907.00
  228.99        3340.50           6724       28092.00    122858.70
  229.02        3340.75           6728       29985.00    131169.60
  229.04        3341.00           6731       31371.00    137257.10
  229.07        3341.25           6735       33000.00    144414.50
  229.10        3341.50           6739       34377.00    150467.00
  229.13        3341.75           6743       34863.00    152603.60
  229.15        3342.00           6746       34738.00    152054.00
  229.18        3342.25           6750       34281.00    150044.90
  229.21        3342.50           6754       32644.00    142850.10
  229.24        3342.75           6758       30623.00    133971.50
  229.26        3343.00           6761       29236.00    127880.80
  229.29        3343.25           6765       27819.00    121660.50
  229.32        3343.50           6769       25859.00    113060.10
  229.35        3343.75           6773       23861.00    104297.20
  229.37        3344.00           6776       22342.00     97637.98
  229.40        3344.25           6780       20261.00     88519.04
  229.43        3344.50           6784       18347.00     80136.02
  229.45        3344.75           6788       16086.00     70238.27
  229.48        3345.00           6791       14342.00     62607.48
  229.51        3345.25           6795       12139.00     52973.03
  229.54        3345.50           6799        9259.00     40385.66
  229.56        3345.75           6803        7236.00     31549.22
  229.59        3346.00           6806        5751.00     25065.54
  229.62        3346.25           6810        3950.00     17205.32
  229.65        3346.50           6814        2659.00     11573.06
  229.67        3346.75           6818        1726.00      7503.76
  229.70        3347.00           6821        1065.00      4621.35
  229.73        3347.25           6825         331.00      1421.16
  229.75        3347.50           6829          67.00       270.27
  229.78        3347.75           6833          41.00       156.93
  229.81        3348.00           6836          41.00       156.93
  229.84        3348.25           6840          35.00       130.78
  229.86        3348.50           6844          32.00       117.70
  229.89        3348.75           6848          34.00       126.42
  229.92        3349.00           6851          40.00       152.57
  229.95        3349.25           6855          40.00       152.57
  229.97        3349.50           6859          38.00       143.85
  230.00        3349.75           6863          31.00       113.34
  230.03        3350.00           6867          34.00       126.42
  230.05        3350.25           6870          30.00       108.98
  230.08        3350.50           6874          30.00       108.98
  230.11        3350.75           6878          35.00       130.78
  230.14        3351.00           6882          31.00       113.34
HL scan finished at 03:50:46
end
