************************************************************
  HL Scan of (1) Internal mercury lamp
************************************************************
Integration time is 0.2294 seconds per sample
dh230817Tamanrasset 22.79-5.529 3.256233pr865
************************************************************
Dead Time -------------------------  2.8E-08 
Number of Cycles Used -------------  4 
Starting Wavelength (Angstroms) ---  3331 
Final Wavelength (Angstoms) -------  3351 
Wavelength Increment (Angstroms) --  .25 
Filter Wheel #1 Position ---------- (1) Ground quartz diffuser (ND=2.32)
Filter Wheel #2 Position ---------- (0) Clear Aperture



************************************************************
HL scan start time = 03:46:09
Dark Count =  4.8 


Time (GMT)  Wavelength (Ang)  Step Number  Raw Counts  Counts/Second

  226.67        3331.00           6581          30.00       109.85
  226.89        3331.25           6585          29.00       105.49
  226.91        3331.50           6589          31.00       114.21
  226.94        3331.75           6593          26.00        92.42
  226.97        3332.00           6596          33.00       122.93
  226.99        3332.25           6600          35.00       131.65
  227.02        3332.50           6604          29.00       105.49
  227.05        3332.75           6608          29.00       105.49
  227.08        3333.00           6611          36.00       136.01
  227.10        3333.25           6615          30.00       109.85
  227.13        3333.50           6619          30.00       109.85
  227.16        3333.75           6623          37.00       140.37
  227.18        3334.00           6626          23.00        79.34
  227.21        3334.25           6630          32.00       118.57
  227.24        3334.50           6634          36.00       136.01
  227.27        3334.75           6638          34.00       127.29
  227.29        3335.00           6641          41.00       157.80
  227.32        3335.25           6645          29.00       105.49
  227.35        3335.50           6649          40.00       153.44
  227.37        3335.75           6653          47.00       183.96
  227.40        3336.00           6656         126.00       528.34
  227.43        3336.25           6660         393.00      1692.32
  227.46        3336.50           6664         934.00      4051.03
  227.48        3336.75           6668        1489.00      6471.09
  227.51        3337.00           6671        2204.00      9589.32
  227.54        3337.25           6675        3955.00     17228.01
  227.56        3337.50           6679        5884.00     25647.01
  227.59        3337.75           6683        7880.00     34362.61
  227.62        3338.00           6686        9442.00     41186.10
  227.65        3338.25           6690       11489.00     50132.23
  227.67        3338.50           6694       13464.00     58767.95
  227.70        3338.75           6698       15537.00     67836.68
  227.73        3339.00           6701       17180.00     75027.55
  227.76        3339.25           6705       19188.00     83819.86
  227.78        3339.50           6709       21398.00     93501.68
  227.81        3339.75           6713       23519.00    102798.50
  227.84        3340.00           6716       25008.00    109328.10
  227.87        3340.25           6720       27003.00    118080.30
  227.89        3340.50           6724       29293.00    128131.90
  227.92        3340.75           6728       31311.00    136994.40
  227.95        3341.00           6731       32577.00    142556.60
  227.97        3341.25           6735       34098.00    149241.40
  228.00        3341.50           6739       35454.00    155203.10
  228.03        3341.75           6743       36007.00    157634.90
  228.06        3342.00           6746       36227.00    158602.50
  228.08        3342.25           6750       35585.00    155779.10
  228.11        3342.50           6754       34023.00    148911.70
  228.14        3342.75           6758       31888.00    139529.20
  228.17        3343.00           6761       30569.00    133735.20
  228.19        3343.25           6765       28898.00    126397.70
  228.22        3343.50           6769       26781.00    117106.10
  228.25        3343.75           6773       24813.00    108472.80
  228.28        3344.00           6776       23349.00    102053.20
  228.30        3344.25           6780       21172.00     92511.34
  228.33        3344.50           6784       18904.00     82576.06
  228.36        3344.75           6788       16785.00     73298.50
  228.38        3345.00           6791       14913.00     65106.38
  228.41        3345.25           6795       12469.00     54416.77
  228.44        3345.50           6799        9775.00     42641.12
  228.47        3345.75           6803        7447.00     32471.53
  228.49        3346.00           6806        5998.00     26144.68
  228.52        3346.25           6810        4088.00     17808.35
  228.55        3346.50           6814        2876.00     12520.52
  228.58        3346.75           6818        1959.00      8520.78
  228.60        3347.00           6821        1139.00      4944.89
  228.63        3347.25           6825         336.00      1443.82
  228.66        3347.50           6829          68.00       275.50
  228.68        3347.75           6833          40.00       153.44
  228.71        3348.00           6836          34.00       127.29
  228.74        3348.25           6840          40.00       153.44
  228.77        3348.50           6844          32.00       118.57
  228.79        3348.75           6848          42.00       162.16
  228.82        3349.00           6851          33.00       122.93
  228.85        3349.25           6855          39.00       149.09
  228.88        3349.50           6859          33.00       122.93
  228.90        3349.75           6863          31.00       114.21
  228.93        3350.00           6867          35.00       131.65
  228.96        3350.25           6870          39.00       149.09
  228.98        3350.50           6874          35.00       131.65
  229.01        3350.75           6878          39.00       149.09
  229.04        3351.00           6882          40.00       153.44
HL scan finished at 03:49:40
end
