************************************************************
  HL Scan of (1) Internal mercury lamp
************************************************************
Integration time is 0.2294 seconds per sample
dh220818Tamanrasset 22.79-5.529 4.974364pr865
************************************************************
Dead Time -------------------------  2.8E-08 
Number of Cycles Used -------------  4 
Starting Wavelength (Angstroms) ---  3331 
Final Wavelength (Angstoms) -------  3351 
Wavelength Increment (Angstroms) --  .25 
Filter Wheel #1 Position ---------- (1) Ground quartz diffuser (ND=2.32)
Filter Wheel #2 Position ---------- (0) Clear Aperture



************************************************************
HL scan start time = 03:45:58
Dark Count =  6.5 


Time (GMT)  Wavelength (Ang)  Step Number  Raw Counts  Counts/Second

  226.48        3331.00           6581          30.00       102.44
  226.70        3331.25           6585          30.00       102.44
  226.73        3331.50           6589          31.00       106.80
  226.75        3331.75           6593          35.00       124.24
  226.78        3332.00           6596          31.00       106.80
  226.81        3332.25           6600          34.00       119.88
  226.83        3332.50           6604          32.00       111.16
  226.86        3332.75           6608          31.00       106.80
  226.89        3333.00           6611          31.00       106.80
  226.92        3333.25           6615          33.00       115.52
  226.94        3333.50           6619          30.00       102.44
  226.97        3333.75           6623          31.00       106.80
  227.00        3334.00           6626          32.00       111.16
  227.02        3334.25           6630          30.00       102.44
  227.05        3334.50           6634          37.00       132.96
  227.08        3334.75           6638          35.00       124.24
  227.11        3335.00           6641          41.00       150.39
  227.13        3335.25           6645          43.00       159.11
  227.16        3335.50           6649          37.00       132.96
  227.19        3335.75           6653          49.00       185.27
  227.21        3336.00           6656         113.00       464.26
  227.24        3336.25           6660         388.00      1663.11
  227.27        3336.50           6664         991.00      4292.15
  227.30        3336.75           6668        1905.00      8277.86
  227.32        3337.00           6671        2336.00     10157.64
  227.35        3337.25           6675        4056.00     17661.30
  227.38        3337.50           6679        6214.00     27080.25
  227.41        3337.75           6683        8308.00     36224.61
  227.43        3338.00           6686       10043.00     43804.79
  227.46        3338.25           6690       12248.00     53443.03
  227.49        3338.50           6694       14362.00     62688.41
  227.51        3338.75           6698       16623.00     72581.97
  227.54        3339.00           6701       18372.00     80238.93
  227.57        3339.25           6705       20730.00     90567.22
  227.60        3339.50           6709       22925.00    100186.90
  227.62        3339.75           6713       25234.00    110311.90
  227.65        3340.00           6716       27025.00    118169.40
  227.68        3340.25           6720       29157.00    127527.40
  227.71        3340.50           6724       31379.00    137285.70
  227.73        3340.75           6728       33524.00    146710.90
  227.76        3341.00           6731       35171.00    153951.20
  227.79        3341.25           6735       37042.00    162179.90
  227.81        3341.50           6739       38375.00    168044.70
  227.84        3341.75           6743       39420.00    172643.80
  227.87        3342.00           6746       39427.00    172674.60
  227.90        3342.25           6750       39024.00    170900.90
  227.92        3342.50           6754       37774.00    165400.20
  227.95        3342.75           6758       35371.00    154830.60
  227.98        3343.00           6761       33522.00    146702.10
  228.01        3343.25           6765       31430.00    137509.70
  228.03        3343.50           6769       29718.00    129990.60
  228.06        3343.75           6773       27667.00    120986.80
  228.09        3344.00           6776       25697.00    112342.80
  228.12        3344.25           6780       23575.00    103036.60
  228.14        3344.50           6784       21371.00     93375.90
  228.17        3344.75           6788       18807.00     82143.81
  228.20        3345.00           6791       16829.00     73483.66
  228.22        3345.25           6795       14240.00     62154.73
  228.25        3345.50           6799       11003.00     48000.39
  228.28        3345.75           6803        8527.00     37181.24
  228.31        3346.00           6806        6929.00     30202.08
  228.33        3346.25           6810        4723.00     20572.00
  228.36        3346.50           6814        3162.00     13760.75
  228.39        3346.75           6818        2016.00      8761.96
  228.42        3347.00           6821        1328.00      5761.61
  228.44        3347.25           6825         443.00      1902.89
  228.47        3347.50           6829         108.00       442.46
  228.50        3347.75           6833          48.00       180.91
  228.53        3348.00           6836          42.00       154.75
  228.55        3348.25           6840          42.00       154.75
  228.58        3348.50           6844          35.00       124.24
  228.61        3348.75           6848          36.00       128.60
  228.63        3349.00           6851          38.00       137.32
  228.66        3349.25           6855          33.00       115.52
  228.69        3349.50           6859          38.00       137.32
  228.72        3349.75           6863          37.00       132.96
  228.74        3350.00           6867          37.00       132.96
  228.77        3350.25           6870          39.00       141.67
  228.80        3350.50           6874          35.00       124.24
  228.83        3350.75           6878          38.00       137.32
  228.85        3351.00           6882          32.00       111.16
HL scan finished at 03:49:29
end
