************************************************************
  HL Scan of (1) Internal mercury lamp
************************************************************
Integration time is 0.2294 seconds per sample
dh220817Tamanrasset 22.79-5.529 3.17466pr865
************************************************************
Dead Time -------------------------  2.8E-08 
Number of Cycles Used -------------  4 
Starting Wavelength (Angstroms) ---  3331 
Final Wavelength (Angstoms) -------  3351 
Wavelength Increment (Angstroms) --  .25 
Filter Wheel #1 Position ---------- (1) Ground quartz diffuser (ND=2.32)
Filter Wheel #2 Position ---------- (0) Clear Aperture



************************************************************
HL scan start time = 03:46:12
Dark Count =  5.1 


Time (GMT)  Wavelength (Ang)  Step Number  Raw Counts  Counts/Second

  226.70        3331.00           6581          29.00       104.19
  226.92        3331.25           6585          33.00       121.62
  226.95        3331.50           6589          27.00        95.47
  226.98        3331.75           6593          29.00       104.19
  227.00        3332.00           6596          31.00       112.90
  227.03        3332.25           6600          30.00       108.54
  227.06        3332.50           6604          35.00       130.34
  227.09        3332.75           6608          33.00       121.62
  227.11        3333.00           6611          35.00       130.34
  227.14        3333.25           6615          31.00       112.90
  227.17        3333.50           6619          27.00        95.47
  227.19        3333.75           6623          33.00       121.62
  227.22        3334.00           6626          30.00       108.54
  227.25        3334.25           6630          32.00       117.26
  227.28        3334.50           6634          30.00       108.54
  227.30        3334.75           6638          40.00       152.14
  227.33        3335.00           6641          31.00       112.90
  227.36        3335.25           6645          31.00       112.90
  227.38        3335.50           6649          37.00       139.06
  227.41        3335.75           6653          54.00       213.17
  227.44        3336.00           6656         120.00       500.88
  227.47        3336.25           6660         373.00      1603.82
  227.49        3336.50           6664         800.00      3465.46
  227.52        3336.75           6668        1503.00      6530.84
  227.55        3337.00           6671        2089.00      9086.45
  227.57        3337.25           6675        3772.00     16428.22
  227.60        3337.50           6679        5509.00     24008.73
  227.63        3337.75           6683        7445.00     32461.49
  227.66        3338.00           6686        8827.00     38497.88
  227.68        3338.25           6690       10904.00     47573.80
  227.71        3338.50           6694       12683.00     55351.20
  227.74        3338.75           6698       14613.00     63792.58
  227.77        3339.00           6701       16187.00     70679.85
  227.79        3339.25           6705       18242.00     79675.81
  227.82        3339.50           6709       20166.00     88102.43
  227.85        3339.75           6713       22147.00     96782.84
  227.88        3340.00           6716       23674.00    103476.80
  227.90        3340.25           6720       25678.00    112265.60
  227.93        3340.50           6724       27546.00    120461.90
  227.96        3340.75           6728       29466.00    128890.20
  227.98        3341.00           6731       30761.00    134577.20
  228.01        3341.25           6735       32324.00    141443.60
  228.04        3341.50           6739       33273.00    145613.90
  228.07        3341.75           6743       34243.00    149877.40
  228.09        3342.00           6746       34040.00    148985.10
  228.12        3342.25           6750       33613.00    147108.20
  228.15        3342.50           6754       32427.00    141896.10
  228.18        3342.75           6758       30409.00    133031.20
  228.20        3343.00           6761       28925.00    126515.00
  228.23        3343.25           6765       27400.00    119821.10
  228.26        3343.50           6769       25555.00    111726.00
  228.29        3343.75           6773       23621.00    103244.40
  228.31        3344.00           6776       22022.00     96234.99
  228.34        3344.25           6780       20260.00     88514.22
  228.37        3344.50           6784       18076.00     78948.96
  228.40        3344.75           6788       16162.00     70570.43
  228.42        3345.00           6791       14321.00     62515.17
  228.45        3345.25           6795       12109.00     52841.42
  228.48        3345.50           6799        9451.00     41224.11
  228.50        3345.75           6803        7212.00     31443.98
  228.53        3346.00           6806        5774.00     25165.51
  228.56        3346.25           6810        4091.00     17820.14
  228.59        3346.50           6814        2987.00     13003.43
  228.61        3346.75           6818        1998.00      8689.56
  228.64        3347.00           6821        1164.00      5052.59
  228.67        3347.25           6825         380.00      1634.34
  228.69        3347.50           6829          70.00       282.91
  228.72        3347.75           6833          36.00       134.70
  228.75        3348.00           6836          40.00       152.14
  228.78        3348.25           6840          37.00       139.06
  228.80        3348.50           6844          30.00       108.54
  228.83        3348.75           6848          34.00       125.98
  228.86        3349.00           6851          31.00       112.90
  228.88        3349.25           6855          35.00       130.34
  228.91        3349.50           6859          35.00       130.34
  228.94        3349.75           6863          34.00       125.98
  228.97        3350.00           6867          38.00       143.42
  228.99        3350.25           6870          40.00       152.14
  229.02        3350.50           6874          26.00        91.11
  229.05        3350.75           6878          38.00       143.42
  229.07        3351.00           6882          28.00        99.83
HL scan finished at 03:49:42
end
