************************************************************
  HL Scan of (1) Internal mercury lamp
************************************************************
Integration time is 0.2294 seconds per sample
dh210817Tamanrasset 22.79-5.529 3.327609pr865
************************************************************
Dead Time -------------------------  2.8E-08 
Number of Cycles Used -------------  4 
Starting Wavelength (Angstroms) ---  3331 
Final Wavelength (Angstoms) -------  3351 
Wavelength Increment (Angstroms) --  .25 
Filter Wheel #1 Position ---------- (1) Ground quartz diffuser (ND=2.32)
Filter Wheel #2 Position ---------- (0) Clear Aperture



************************************************************
HL scan start time = 03:45:11
Dark Count =  5.9 


Time (GMT)  Wavelength (Ang)  Step Number  Raw Counts  Counts/Second

  225.69        3331.00           6581          36.00       131.21
  225.91        3331.25           6585          31.00       109.42
  225.94        3331.50           6589          31.00       109.42
  225.97        3331.75           6593          31.00       109.42
  225.99        3332.00           6596          29.00       100.70
  226.02        3332.25           6600          32.00       113.78
  226.05        3332.50           6604          31.00       109.42
  226.08        3332.75           6608          35.00       126.85
  226.10        3333.00           6611          28.00        96.34
  226.13        3333.25           6615          34.00       122.49
  226.16        3333.50           6619          26.00        87.62
  226.18        3333.75           6623          29.00       100.70
  226.21        3334.00           6626          34.00       122.49
  226.24        3334.25           6630          32.00       113.78
  226.27        3334.50           6634          35.00       126.85
  226.29        3334.75           6638          35.00       126.85
  226.32        3335.00           6641          39.00       144.29
  226.35        3335.25           6645          41.00       153.01
  226.37        3335.50           6649          33.00       118.13
  226.40        3335.75           6653          49.00       187.88
  226.43        3336.00           6656         125.00       519.19
  226.46        3336.25           6660         394.00      1691.88
  226.48        3336.50           6664         854.00      3697.42
  226.51        3336.75           6668        1566.00      6802.08
  226.54        3337.00           6671        2213.00      9623.78
  226.57        3337.25           6675        4028.00     17541.74
  226.59        3337.50           6679        6075.00     26476.03
  226.62        3337.75           6683        8155.00     35558.93
  226.65        3338.00           6686        9811.00     42793.62
  226.67        3338.25           6690       11897.00     51911.06
  226.70        3338.50           6694       13990.00     61063.78
  226.73        3338.75           6698       16316.00     71240.93
  226.76        3339.00           6701       17739.00     77469.96
  226.78        3339.25           6705       20024.00     87476.86
  226.81        3339.50           6709       22313.00     97506.91
  226.84        3339.75           6713       24493.00    107064.60
  226.87        3340.00           6716       26226.00    114666.20
  226.89        3340.25           6720       28229.00    123456.10
  226.92        3340.50           6724       30199.00    132105.50
  226.95        3340.75           6728       32616.00    142723.10
  226.98        3341.00           6731       33859.00    148186.00
  227.00        3341.25           6735       35613.00    155897.40
  227.03        3341.50           6739       37002.00    162006.60
  227.06        3341.75           6743       37861.00    165785.70
  227.08        3342.00           6746       37836.00    165675.70
  227.11        3342.25           6750       37362.00    163590.30
  227.14        3342.50           6754       35750.00    156499.90
  227.17        3342.75           6758       33823.00    148027.70
  227.19        3343.00           6761       32153.00    140688.70
  227.22        3343.25           6765       30349.00    132764.20
  227.25        3343.50           6769       28222.00    123425.40
  227.28        3343.75           6773       25944.00    113429.00
  227.30        3344.00           6776       24455.00    106898.00
  227.33        3344.25           6780       22329.00     97577.04
  227.36        3344.50           6784       20008.00     87406.77
  227.39        3344.75           6788       17706.00     77325.48
  227.41        3345.00           6791       15594.00     68081.27
  227.44        3345.25           6795       12994.00     56707.67
  227.47        3345.50           6799       10230.00     44624.60
  227.50        3345.75           6803        8122.00     35414.79
  227.52        3346.00           6806        6495.00     28309.70
  227.55        3346.25           6810        4560.00     19863.27
  227.58        3346.50           6814        3471.00     15111.45
  227.60        3346.75           6818        2313.00     10059.94
  227.63        3347.00           6821        1358.00      5895.05
  227.66        3347.25           6825         446.00      1918.59
  227.69        3347.50           6829          91.00       370.97
  227.71        3347.75           6833          47.00       179.16
  227.74        3348.00           6836          42.00       157.37
  227.77        3348.25           6840          37.00       135.57
  227.79        3348.50           6844          37.00       135.57
  227.82        3348.75           6848          36.00       131.21
  227.85        3349.00           6851          35.00       126.85
  227.88        3349.25           6855          40.00       148.65
  227.90        3349.50           6859          36.00       131.21
  227.93        3349.75           6863          35.00       126.85
  227.96        3350.00           6867          35.00       126.85
  227.98        3350.25           6870          35.00       126.85
  228.01        3350.50           6874          35.00       126.85
  228.04        3350.75           6878          37.00       135.57
  228.07        3351.00           6882          37.00       135.57
HL scan finished at 03:48:41
end
