************************************************************
  HL Scan of (1) Internal mercury lamp
************************************************************
Integration time is 0.2294 seconds per sample
dh200818Tamanrasset 22.79-5.529 4.974364pr865
************************************************************
Dead Time -------------------------  2.8E-08 
Number of Cycles Used -------------  4 
Starting Wavelength (Angstroms) ---  3331 
Final Wavelength (Angstoms) -------  3351 
Wavelength Increment (Angstroms) --  .25 
Filter Wheel #1 Position ---------- (1) Ground quartz diffuser (ND=2.32)
Filter Wheel #2 Position ---------- (0) Clear Aperture



************************************************************
HL scan start time = 03:44:08
Dark Count =  6.6 


Time (GMT)  Wavelength (Ang)  Step Number  Raw Counts  Counts/Second

  224.65        3331.00           6581          36.00       128.16
  224.87        3331.25           6585          32.00       110.72
  224.90        3331.50           6589          34.00       119.44
  224.92        3331.75           6593          29.00        97.65
  224.95        3332.00           6596          35.00       123.80
  224.98        3332.25           6600          33.00       115.08
  225.00        3332.50           6604          35.00       123.80
  225.03        3332.75           6608          31.00       106.36
  225.06        3333.00           6611          32.00       110.72
  225.09        3333.25           6615          32.00       110.72
  225.11        3333.50           6619          32.00       110.72
  225.14        3333.75           6623          27.00        88.93
  225.17        3334.00           6626          31.00       106.36
  225.19        3334.25           6630          28.00        93.29
  225.22        3334.50           6634          38.00       136.88
  225.25        3334.75           6638          34.00       119.44
  225.28        3335.00           6641          31.00       106.36
  225.30        3335.25           6645          40.00       145.60
  225.33        3335.50           6649          39.00       141.24
  225.36        3335.75           6653          75.00       298.17
  225.38        3336.00           6656         195.00       821.29
  225.41        3336.25           6660         566.00      2438.70
  225.44        3336.50           6664        1297.00      5626.00
  225.47        3336.75           6668        2391.00     10397.10
  225.49        3337.00           6671        3214.00     13987.17
  225.52        3337.25           6675        4940.00     21518.63
  225.55        3337.50           6679        6946.00     30275.87
  225.58        3337.75           6683        9064.00     39526.72
  225.60        3338.00           6686       10745.00     46872.29
  225.63        3338.25           6690       12947.00     56499.08
  225.66        3338.50           6694       15155.00     66157.31
  225.69        3338.75           6698       17282.00     75466.18
  225.71        3339.00           6701       18973.00     82870.36
  225.74        3339.25           6705       21441.00     93682.21
  225.77        3339.50           6709       23691.00    103544.80
  225.79        3339.75           6713       25668.00    112215.20
  225.82        3340.00           6716       27496.00    120235.90
  225.85        3340.25           6720       29400.00    128593.90
  225.88        3340.50           6724       31658.00    138510.90
  225.90        3340.75           6728       33954.00    148600.50
  225.93        3341.00           6731       35130.00    153770.50
  225.96        3341.25           6735       36987.00    161937.50
  225.99        3341.50           6739       38200.00    167274.20
  226.01        3341.75           6743       38828.00    170037.80
  226.04        3342.00           6746       38610.00    169078.40
  226.07        3342.25           6750       37946.00    166156.60
  226.09        3342.50           6754       36155.00    158277.90
  226.12        3342.75           6758       34270.00    149989.50
  226.15        3343.00           6761       32409.00    141810.50
  226.18        3343.25           6765       30768.00    134601.40
  226.20        3343.50           6769       28608.00    125116.70
  226.23        3343.75           6773       26280.00    114900.00
  226.26        3344.00           6776       24645.00    107728.10
  226.29        3344.25           6780       22414.00     97946.55
  226.31        3344.50           6784       20205.00     88266.71
  226.34        3344.75           6788       18018.00     78688.44
  226.37        3345.00           6791       16128.00     70415.06
  226.40        3345.25           6795       13549.00     59131.83
  226.42        3345.50           6799       10101.00     44057.81
  226.45        3345.75           6803        8018.00     34957.48
  226.48        3346.00           6806        6366.00     27743.43
  226.50        3346.25           6810        4310.00     18769.24
  226.53        3346.50           6814        2934.00     12765.68
  226.56        3346.75           6818        1867.00      8111.69
  226.59        3347.00           6821        1113.00      4823.67
  226.61        3347.25           6825         362.00      1549.33
  226.64        3347.50           6829          73.00       289.45
  226.67        3347.75           6833          43.00       158.68
  226.70        3348.00           6836          47.00       176.11
  226.72        3348.25           6840          38.00       136.88
  226.75        3348.50           6844          41.00       149.96
  226.78        3348.75           6848          35.00       123.80
  226.80        3349.00           6851          40.00       145.60
  226.83        3349.25           6855          36.00       128.16
  226.86        3349.50           6859          45.00       167.39
  226.89        3349.75           6863          43.00       158.68
  226.91        3350.00           6867          36.00       128.16
  226.94        3350.25           6870          32.00       110.72
  226.97        3350.50           6874          36.00       128.16
  226.99        3350.75           6878          38.00       136.88
  227.02        3351.00           6882          33.00       115.08
HL scan finished at 03:47:39
end
