************************************************************
  HL Scan of (1) Internal mercury lamp
************************************************************
Integration time is 0.2294 seconds per sample
dh210818Tamanrasset 22.79-5.529 4.974364pr865
************************************************************
Dead Time -------------------------  2.8E-08 
Number of Cycles Used -------------  4 
Starting Wavelength (Angstroms) ---  3331 
Final Wavelength (Angstoms) -------  3351 
Wavelength Increment (Angstroms) --  .25 
Filter Wheel #1 Position ---------- (1) Ground quartz diffuser (ND=2.32)
Filter Wheel #2 Position ---------- (0) Clear Aperture



************************************************************
HL scan start time = 03:45:04
Dark Count =  5.5 


Time (GMT)  Wavelength (Ang)  Step Number  Raw Counts  Counts/Second

  225.58        3331.00           6581          35.00       128.60
  225.80        3331.25           6585          31.00       111.16
  225.82        3331.50           6589          34.00       124.24
  225.85        3331.75           6593          40.00       150.39
  225.88        3332.00           6596          27.00        93.72
  225.90        3332.25           6600          36.00       132.96
  225.93        3332.50           6604          33.00       119.88
  225.96        3332.75           6608          33.00       119.88
  225.98        3333.00           6611          35.00       128.60
  226.01        3333.25           6615          31.00       111.16
  226.04        3333.50           6619          32.00       115.52
  226.07        3333.75           6623          38.00       141.67
  226.09        3334.00           6626          38.00       141.67
  226.12        3334.25           6630          32.00       115.52
  226.15        3334.50           6634          38.00       141.67
  226.18        3334.75           6638          36.00       132.96
  226.20        3335.00           6641          41.00       154.75
  226.23        3335.25           6645          48.00       185.27
  226.26        3335.50           6649          42.00       159.11
  226.28        3335.75           6653          63.00       250.66
  226.31        3336.00           6656         123.00       512.21
  226.34        3336.25           6660         390.00      1676.19
  226.37        3336.50           6664        1078.00      4675.85
  226.39        3336.75           6668        2160.00      9394.36
  226.42        3337.00           6671        2608.00     11348.42
  226.45        3337.25           6675        4129.00     17984.21
  226.47        3337.50           6679        6281.00     27377.13
  226.50        3337.75           6683        8622.00     37600.60
  226.53        3338.00           6686       10417.00     45443.58
  226.56        3338.25           6690       12634.00     55135.19
  226.58        3338.50           6694       14932.00     65186.44
  226.61        3338.75           6698       17147.00     74880.03
  226.64        3339.00           6701       18910.00     82599.27
  226.67        3339.25           6705       21372.00     93384.66
  226.69        3339.50           6709       23840.00    104202.90
  226.72        3339.75           6713       26112.00    114167.80
  226.75        3340.00           6716       27733.00    121280.80
  226.77        3340.25           6720       30038.00    131400.20
  226.80        3340.50           6724       32476.00    142109.70
  226.83        3340.75           6728       34638.00    151612.20
  226.86        3341.00           6731       36225.00    158590.60
  226.88        3341.25           6735       38193.00    167248.30
  226.91        3341.50           6739       39826.00    174435.40
  226.94        3341.75           6743       40635.00    177996.90
  226.97        3342.00           6746       40658.00    178098.20
  226.99        3342.25           6750       40458.00    177217.70
  227.02        3342.50           6754       38996.00    170782.00
  227.05        3342.75           6758       36769.00    160983.40
  227.08        3343.00           6761       34705.00    151906.70
  227.10        3343.25           6765       32546.00    142417.30
  227.13        3343.50           6769       30759.00    134566.70
  227.16        3343.75           6773       28621.00    125178.60
  227.19        3344.00           6776       26591.00    116269.40
  227.21        3344.25           6780       24374.00    106544.50
  227.24        3344.50           6784       21997.00     96123.68
  227.27        3344.75           6788       19512.00     85235.88
  227.29        3345.00           6791       17543.00     76613.61
  227.32        3345.25           6795       14747.00     64377.06
  227.35        3345.50           6799       11344.00     49495.32
  227.38        3345.75           6803        9086.00     39627.65
  227.40        3346.00           6806        7279.00     31734.81
  227.43        3346.25           6810        5062.00     22055.90
  227.46        3346.50           6814        3238.00     14096.67
  227.49        3346.75           6818        1970.00      8565.70
  227.51        3347.00           6821        1297.00      5630.79
  227.54        3347.25           6825         490.00      2112.16
  227.57        3347.50           6829         106.00       438.10
  227.59        3347.75           6833          47.00       180.91
  227.62        3348.00           6836          45.00       172.19
  227.65        3348.25           6840          33.00       119.88
  227.68        3348.50           6844          33.00       119.88
  227.70        3348.75           6848          41.00       154.75
  227.73        3349.00           6851          40.00       150.39
  227.76        3349.25           6855          39.00       146.03
  227.78        3349.50           6859          41.00       154.75
  227.81        3349.75           6863          33.00       119.88
  227.84        3350.00           6867          39.00       146.03
  227.87        3350.25           6870          37.00       137.32
  227.89        3350.50           6874          37.00       137.32
  227.92        3350.75           6878          35.00       128.60
  227.95        3351.00           6882          41.00       154.75
HL scan finished at 03:48:34
end
