************************************************************
  HL Scan of (1) Internal mercury lamp
************************************************************
Integration time is 0.2294 seconds per sample
dh180818Tamanrasset 22.79-5.529 4.974364pr865
************************************************************
Dead Time -------------------------  2.8E-08 
Number of Cycles Used -------------  4 
Starting Wavelength (Angstroms) ---  3331 
Final Wavelength (Angstoms) -------  3351 
Wavelength Increment (Angstroms) --  .25 
Filter Wheel #1 Position ---------- (1) Ground quartz diffuser (ND=2.32)
Filter Wheel #2 Position ---------- (0) Clear Aperture



************************************************************
HL scan start time = 03:43:58
Dark Count =  5.9 


Time (GMT)  Wavelength (Ang)  Step Number  Raw Counts  Counts/Second

  224.48        3331.00           6581          32.00       113.78
  224.70        3331.25           6585          31.00       109.42
  224.72        3331.50           6589          30.00       105.06
  224.75        3331.75           6593          27.00        91.98
  224.78        3332.00           6596          30.00       105.06
  224.80        3332.25           6600          32.00       113.78
  224.83        3332.50           6604          36.00       131.21
  224.86        3332.75           6608          33.00       118.13
  224.89        3333.00           6611          29.00       100.70
  224.91        3333.25           6615          34.00       122.49
  224.94        3333.50           6619          27.00        91.98
  224.97        3333.75           6623          31.00       109.42
  225.00        3334.00           6626          26.00        87.62
  225.02        3334.25           6630          26.00        87.62
  225.05        3334.50           6634          36.00       131.21
  225.08        3334.75           6638          31.00       109.42
  225.10        3335.00           6641          34.00       122.49
  225.13        3335.25           6645          38.00       139.93
  225.16        3335.50           6649          34.00       122.49
  225.19        3335.75           6653          50.00       192.24
  225.21        3336.00           6656         108.00       445.08
  225.24        3336.25           6660         367.00      1574.18
  225.27        3336.50           6664         884.00      3828.22
  225.29        3336.75           6668        1547.00      6719.22
  225.32        3337.00           6671        2203.00      9580.17
  225.35        3337.25           6675        3896.00     16965.77
  225.38        3337.50           6679        5734.00     24987.40
  225.40        3337.75           6683        7729.00     33698.31
  225.43        3338.00           6686        9306.00     40587.08
  225.46        3338.25           6690       11347.00     49506.67
  225.49        3338.50           6694       13271.00     57919.05
  225.51        3338.75           6698       15245.00     66554.16
  225.54        3339.00           6701       16915.00     73862.72
  225.57        3339.25           6705       18967.00     82847.15
  225.59        3339.50           6709       20903.00     91327.84
  225.62        3339.75           6713       23164.00    101237.30
  225.65        3340.00           6716       24488.00    107042.70
  225.68        3340.25           6720       26642.00    116491.40
  225.70        3340.50           6724       28575.00    124974.90
  225.73        3340.75           6728       30795.00    134723.00
  225.76        3341.00           6731       31918.00    139656.20
  225.79        3341.25           6735       33680.00    147399.20
  225.81        3341.50           6739       34870.00    152630.40
  225.84        3341.75           6743       35877.00    157058.40
  225.87        3342.00           6746       35690.00    156236.00
  225.90        3342.25           6750       35392.00    154925.60
  225.92        3342.50           6754       33932.00    148506.80
  225.95        3342.75           6758       31979.00    139924.20
  225.98        3343.00           6761       30479.00    133335.10
  226.01        3343.25           6765       28886.00    126340.20
  226.03        3343.50           6769       26835.00    117338.20
  226.06        3343.75           6773       24674.00    107858.40
  226.09        3344.00           6776       23100.00    100956.70
  226.11        3344.25           6780       21135.00     92344.39
  226.14        3344.50           6784       18987.00     82934.74
  226.17        3344.75           6788       16914.00     73858.35
  226.20        3345.00           6791       15029.00     65609.08
  226.22        3345.25           6795       12395.00     54088.39
  226.25        3345.50           6799        9598.00     41862.91
  226.28        3345.75           6803        7729.00     33698.31
  226.31        3346.00           6806        6118.00     26663.76
  226.33        3346.25           6810        4193.00     18261.73
  226.36        3346.50           6814        3034.00     13204.97
  226.39        3346.75           6818        2057.00      8943.39
  226.41        3347.00           6821        1273.00      5524.39
  226.44        3347.25           6825         392.00      1683.17
  226.47        3347.50           6829          82.00       331.74
  226.50        3347.75           6833          48.00       183.52
  226.52        3348.00           6836          32.00       113.78
  226.55        3348.25           6840          37.00       135.57
  226.58        3348.50           6844          36.00       131.21
  226.61        3348.75           6848          35.00       126.85
  226.63        3349.00           6851          37.00       135.57
  226.66        3349.25           6855          43.00       161.73
  226.69        3349.50           6859          36.00       131.21
  226.71        3349.75           6863          35.00       126.85
  226.74        3350.00           6867          37.00       135.57
  226.77        3350.25           6870          37.00       135.57
  226.80        3350.50           6874          32.00       113.78
  226.82        3350.75           6878          32.00       113.78
  226.85        3351.00           6882          40.00       148.65
HL scan finished at 03:47:28
end
