************************************************************
  HL Scan of (1) Internal mercury lamp
************************************************************
Integration time is 0.2294 seconds per sample
dh200817Tamanrasset 22.79-5.529 3.26643pr865
************************************************************
Dead Time -------------------------  2.8E-08 
Number of Cycles Used -------------  4 
Starting Wavelength (Angstroms) ---  3331 
Final Wavelength (Angstoms) -------  3351 
Wavelength Increment (Angstroms) --  .25 
Filter Wheel #1 Position ---------- (1) Ground quartz diffuser (ND=2.32)
Filter Wheel #2 Position ---------- (0) Clear Aperture



************************************************************
HL scan start time = 03:45:40
Dark Count =  5.3 


Time (GMT)  Wavelength (Ang)  Step Number  Raw Counts  Counts/Second

  226.18        3331.00           6581          37.00       138.19
  226.40        3331.25           6585          37.00       138.19
  226.43        3331.50           6589          28.00        98.95
  226.46        3331.75           6593          34.00       125.11
  226.48        3332.00           6596          34.00       125.11
  226.51        3332.25           6600          31.00       112.03
  226.54        3332.50           6604          32.00       116.39
  226.56        3332.75           6608          34.00       125.11
  226.59        3333.00           6611          29.00       103.31
  226.62        3333.25           6615          34.00       125.11
  226.65        3333.50           6619          33.00       120.75
  226.67        3333.75           6623          35.00       129.47
  226.70        3334.00           6626          37.00       138.19
  226.73        3334.25           6630          35.00       129.47
  226.75        3334.50           6634          33.00       120.75
  226.78        3334.75           6638          28.00        98.95
  226.81        3335.00           6641          39.00       146.91
  226.84        3335.25           6645          35.00       129.47
  226.86        3335.50           6649          42.00       159.98
  226.89        3335.75           6653          51.00       199.22
  226.92        3336.00           6656         133.00       556.68
  226.94        3336.25           6660         405.00      1742.46
  226.97        3336.50           6664         997.00      4323.54
  227.00        3336.75           6668        1792.00      7790.28
  227.03        3337.00           6671        2272.00      9883.73
  227.05        3337.25           6675        3990.00     17378.55
  227.08        3337.50           6679        5932.00     25854.37
  227.11        3337.75           6683        7970.00     34753.51
  227.14        3338.00           6686        9422.00     41096.52
  227.16        3338.25           6690       11670.00     50921.29
  227.19        3338.50           6694       13669.00     59662.36
  227.22        3338.75           6698       15851.00     69208.53
  227.24        3339.00           6701       17452.00     76216.10
  227.27        3339.25           6705       19560.00     85446.99
  227.30        3339.50           6709       21842.00     95445.22
  227.33        3339.75           6713       23759.00    103848.60
  227.35        3340.00           6716       25310.00    110650.50
  227.38        3340.25           6720       27539.00    120430.30
  227.41        3340.50           6724       29412.00    128652.20
  227.44        3340.75           6728       31415.00    137449.10
  227.46        3341.00           6731       33066.00    144703.30
  227.49        3341.25           6735       34720.00    151973.60
  227.52        3341.50           6739       35857.00    156973.10
  227.55        3341.75           6743       36484.00    159730.70
  227.57        3342.00           6746       36516.00    159871.40
  227.60        3342.25           6750       36026.00    157716.30
  227.63        3342.50           6754       34472.00    150883.30
  227.65        3342.75           6758       31974.00    139904.90
  227.68        3343.00           6761       30675.00    134198.60
  227.71        3343.25           6765       29102.00    127291.20
  227.74        3343.50           6769       26965.00    117911.30
  227.76        3343.75           6773       25049.00    109505.70
  227.79        3344.00           6776       23512.00    102765.60
  227.82        3344.25           6780       21365.00     93354.86
  227.85        3344.50           6784       19301.00     84312.58
  227.87        3344.75           6788       17176.00     75007.85
  227.90        3345.00           6791       15195.00     66338.02
  227.93        3345.25           6795       12438.00     54279.04
  227.96        3345.50           6799        9822.00     42844.31
  227.98        3345.75           6803        7747.00     33779.54
  228.01        3346.00           6806        6067.00     26443.72
  228.04        3346.25           6810        4136.00     18015.63
  228.06        3346.50           6814        2923.00     12723.36
  228.09        3346.75           6818        1971.00      8570.93
  228.12        3347.00           6821        1243.00      5396.20
  228.15        3347.25           6825         409.00      1759.90
  228.17        3347.50           6829          73.00       295.12
  228.20        3347.75           6833          46.00       177.42
  228.23        3348.00           6836          43.00       164.34
  228.26        3348.25           6840          37.00       138.19
  228.28        3348.50           6844          35.00       129.47
  228.31        3348.75           6848          36.00       133.83
  228.34        3349.00           6851          39.00       146.91
  228.36        3349.25           6855          35.00       129.47
  228.39        3349.50           6859          35.00       129.47
  228.42        3349.75           6863          35.00       129.47
  228.45        3350.00           6867          32.00       116.39
  228.47        3350.25           6870          35.00       129.47
  228.50        3350.50           6874          37.00       138.19
  228.53        3350.75           6878          42.00       159.98
  228.55        3351.00           6882          38.00       142.55
HL scan finished at 03:49:11
end
