************************************************************
  HL Scan of (1) Internal mercury lamp
************************************************************
Integration time is 0.2294 seconds per sample
dh190818Tamanrasset 22.79-5.529 4.974364pr865
************************************************************
Dead Time -------------------------  2.8E-08 
Number of Cycles Used -------------  4 
Starting Wavelength (Angstroms) ---  3331 
Final Wavelength (Angstoms) -------  3351 
Wavelength Increment (Angstroms) --  .25 
Filter Wheel #1 Position ---------- (1) Ground quartz diffuser (ND=2.32)
Filter Wheel #2 Position ---------- (0) Clear Aperture



************************************************************
HL scan start time = 03:43:57
Dark Count =  5 


Time (GMT)  Wavelength (Ang)  Step Number  Raw Counts  Counts/Second

  224.46        3331.00           6581          34.00       126.42
  224.68        3331.25           6585          29.00       104.62
  224.71        3331.50           6589          29.00       104.62
  224.73        3331.75           6593          28.00       100.26
  224.76        3332.00           6596          28.00       100.26
  224.79        3332.25           6600          33.00       122.06
  224.82        3332.50           6604          29.00       104.62
  224.84        3332.75           6608          27.00        95.90
  224.87        3333.00           6611          27.00        95.90
  224.90        3333.25           6615          27.00        95.90
  224.92        3333.50           6619          28.00       100.26
  224.95        3333.75           6623          27.00        95.90
  224.98        3334.00           6626          25.00        87.18
  225.01        3334.25           6630          28.00       100.26
  225.03        3334.50           6634          33.00       122.06
  225.06        3334.75           6638          31.00       113.34
  225.09        3335.00           6641          31.00       113.34
  225.11        3335.25           6645          37.00       139.49
  225.14        3335.50           6649          40.00       152.57
  225.17        3335.75           6653          57.00       226.68
  225.20        3336.00           6656         150.00       632.09
  225.22        3336.25           6660         489.00      2109.98
  225.25        3336.50           6664        1165.00      5057.39
  225.28        3336.75           6668        2048.00      8908.06
  225.31        3337.00           6671        2598.00     11306.98
  225.33        3337.25           6675        4302.00     18741.31
  225.36        3337.50           6679        6196.00     27008.21
  225.39        3337.75           6683        8097.00     35309.52
  225.42        3338.00           6686        9674.00     42198.92
  225.44        3338.25           6690       11868.00     51788.21
  225.47        3338.50           6694       13739.00     59969.85
  225.50        3338.75           6698       15693.00     68518.43
  225.52        3339.00           6701       17359.00     75810.28
  225.55        3339.25           6705       19427.00     84865.77
  225.58        3339.50           6709       21384.00     93439.44
  225.61        3339.75           6713       23533.00    102859.00
  225.63        3340.00           6716       25054.00    109529.00
  225.66        3340.25           6720       26959.00    117886.30
  225.69        3340.50           6724       28946.00    126607.60
  225.72        3340.75           6728       31023.00    135728.50
  225.74        3341.00           6731       32252.00    141127.60
  225.77        3341.25           6735       33833.00    148075.60
  225.80        3341.50           6739       35030.00    153337.90
  225.83        3341.75           6743       35710.00    156328.00
  225.85        3342.00           6746       35531.00    155540.80
  225.88        3342.25           6750       34964.00    153047.70
  225.91        3342.50           6754       33838.00    148097.60
  225.94        3342.75           6758       31558.00    138078.60
  225.96        3343.00           6761       29952.00    131024.70
  225.99        3343.25           6765       28563.00    124926.20
  226.02        3343.50           6769       26391.00    115394.00
  226.04        3343.75           6773       24311.00    106270.40
  226.07        3344.00           6776       22791.00     99606.09
  226.10        3344.25           6780       20900.00     91318.63
  226.13        3344.50           6784       18810.00     82163.53
  226.15        3344.75           6788       16616.00     72557.91
  226.18        3345.00           6791       14774.00     64497.37
  226.21        3345.25           6795       12237.00     53401.50
  226.24        3345.50           6799        9436.00     41159.01
  226.26        3345.75           6803        7384.00     32195.53
  226.29        3346.00           6806        5802.00     25288.17
  226.32        3346.25           6810        3991.00     17384.22
  226.34        3346.50           6814        2750.00     11970.01
  226.37        3346.75           6818        1982.00      8620.22
  226.40        3347.00           6821        1192.00      5175.12
  226.43        3347.25           6825         354.00      1521.42
  226.45        3347.50           6829          66.00       265.91
  226.48        3347.75           6833          39.00       148.21
  226.51        3348.00           6836          37.00       139.49
  226.54        3348.25           6840          39.00       148.21
  226.56        3348.50           6844          40.00       152.57
  226.59        3348.75           6848          35.00       130.78
  226.62        3349.00           6851          33.00       122.06
  226.64        3349.25           6855          32.00       117.70
  226.67        3349.50           6859          34.00       126.42
  226.70        3349.75           6863          33.00       122.06
  226.73        3350.00           6867          36.00       135.14
  226.75        3350.25           6870          38.00       143.85
  226.78        3350.50           6874          31.00       113.34
  226.81        3350.75           6878          35.00       130.78
  226.84        3351.00           6882          38.00       143.85
HL scan finished at 03:47:27
end
