************************************************************
  HL Scan of (1) Internal mercury lamp
************************************************************
Integration time is 0.2294 seconds per sample
dh260817Tamanrasset 22.79-5.529 3.169561pr865
************************************************************
Dead Time -------------------------  2.8E-08 
Number of Cycles Used -------------  4 
Starting Wavelength (Angstroms) ---  3331 
Final Wavelength (Angstoms) -------  3351 
Wavelength Increment (Angstroms) --  .25 
Filter Wheel #1 Position ---------- (1) Ground quartz diffuser (ND=2.32)
Filter Wheel #2 Position ---------- (0) Clear Aperture



************************************************************
HL scan start time = 03:47:13
Dark Count =  4.7 


Time (GMT)  Wavelength (Ang)  Step Number  Raw Counts  Counts/Second

  227.72        3331.00           6581          29.00       105.93
  227.94        3331.25           6585          33.00       123.37
  227.97        3331.50           6589          31.00       114.65
  227.99        3331.75           6593          30.00       110.29
  228.02        3332.00           6596          34.00       127.72
  228.05        3332.25           6600          28.00       101.57
  228.08        3332.50           6604          27.00        97.21
  228.10        3332.75           6608          33.00       123.37
  228.13        3333.00           6611          30.00       110.29
  228.16        3333.25           6615          28.00       101.57
  228.18        3333.50           6619          33.00       123.37
  228.21        3333.75           6623          27.00        97.21
  228.24        3334.00           6626          36.00       136.44
  228.27        3334.25           6630          28.00       101.57
  228.29        3334.50           6634          35.00       132.08
  228.32        3334.75           6638          34.00       127.72
  228.35        3335.00           6641          37.00       140.80
  228.37        3335.25           6645          42.00       162.60
  228.40        3335.50           6649          36.00       136.44
  228.43        3335.75           6653          45.00       175.68
  228.46        3336.00           6656          76.00       310.81
  228.48        3336.25           6660         277.00      1187.05
  228.51        3336.50           6664         832.00      3606.73
  228.54        3336.75           6668        1302.00      5656.08
  228.57        3337.00           6671        1812.00      7880.12
  228.59        3337.25           6675        3314.00     14431.73
  228.62        3337.50           6679        5024.00     21893.54
  228.65        3337.75           6683        7012.00     30572.37
  228.67        3338.00           6686        8477.00     36970.68
  228.70        3338.25           6690       10454.00     45608.77
  228.73        3338.50           6694       12386.00     54054.29
  228.76        3338.75           6698       14267.00     62280.70
  228.78        3339.00           6701       15847.00     69193.65
  228.81        3339.25           6705       17745.00     77501.48
  228.84        3339.50           6709       19740.00     86238.07
  228.87        3339.75           6713       21700.00     94825.55
  228.89        3340.00           6716       23174.00    101286.40
  228.92        3340.25           6720       25138.00    109898.70
  228.95        3340.50           6724       27089.00    118458.10
  228.98        3340.75           6728       29004.00    126863.50
  229.00        3341.00           6731       30365.00    132839.80
  229.03        3341.25           6735       32218.00    140979.60
  229.06        3341.50           6739       33254.00    145532.10
  229.09        3341.75           6743       34181.00    149606.60
  229.11        3342.00           6746       34235.00    149844.00
  229.14        3342.25           6750       33847.00    148138.50
  229.17        3342.50           6754       32820.00    143624.80
  229.19        3342.75           6758       30804.00    134767.80
  229.22        3343.00           6761       29475.00    128931.50
  229.25        3343.25           6765       27301.00    119388.40
  229.28        3343.50           6769       25744.00    112556.90
  229.30        3343.75           6773       23918.00    104548.40
  229.33        3344.00           6776       22276.00     97350.00
  229.36        3344.25           6780       20266.00     88542.27
  229.39        3344.50           6784       18398.00     80360.65
  229.41        3344.75           6788       16410.00     71657.59
  229.44        3345.00           6791       14662.00     64008.69
  229.47        3345.25           6795       12611.00     55038.11
  229.50        3345.50           6799        9977.00     43524.24
  229.52        3345.75           6803        7587.00     33083.38
  229.55        3346.00           6806        6081.00     26507.46
  229.58        3346.25           6810        4385.00     19104.81
  229.60        3346.50           6814        3356.00     14614.96
  229.63        3346.75           6818        2182.00      9493.81
  229.66        3347.00           6821        1395.00      6061.62
  229.69        3347.25           6825         497.00      2146.16
  229.71        3347.50           6829         108.00       450.31
  229.74        3347.75           6833          48.00       188.75
  229.77        3348.00           6836          36.00       136.44
  229.80        3348.25           6840          36.00       136.44
  229.82        3348.50           6844          39.00       149.52
  229.85        3348.75           6848          38.00       145.16
  229.88        3349.00           6851          34.00       127.72
  229.90        3349.25           6855          25.00        88.49
  229.93        3349.50           6859          37.00       140.80
  229.96        3349.75           6863          39.00       149.52
  229.99        3350.00           6867          34.00       127.72
  230.01        3350.25           6870          35.00       132.08
  230.04        3350.50           6874          33.00       123.37
  230.07        3350.75           6878          41.00       158.24
  230.09        3351.00           6882          40.00       153.88
HL scan finished at 03:50:43
end
