************************************************************
  HL Scan of (1) Internal mercury lamp
************************************************************
Integration time is 0.2294 seconds per sample
dh190817Tamanrasset 22.79-5.529 3.251135pr865
************************************************************
Dead Time -------------------------  2.8E-08 
Number of Cycles Used -------------  4 
Starting Wavelength (Angstroms) ---  3331 
Final Wavelength (Angstoms) -------  3351 
Wavelength Increment (Angstroms) --  .25 
Filter Wheel #1 Position ---------- (1) Ground quartz diffuser (ND=2.32)
Filter Wheel #2 Position ---------- (0) Clear Aperture



************************************************************
HL scan start time = 03:44:11
Dark Count =  4.8 


Time (GMT)  Wavelength (Ang)  Step Number  Raw Counts  Counts/Second

  224.69        3331.00           6581          36.00       136.01
  224.91        3331.25           6585          31.00       114.21
  224.94        3331.50           6589          27.00        96.77
  224.97        3331.75           6593          29.00       105.49
  224.99        3332.00           6596          30.00       109.85
  225.02        3332.25           6600          36.00       136.01
  225.05        3332.50           6604          38.00       144.73
  225.07        3332.75           6608          28.00       101.13
  225.10        3333.00           6611          32.00       118.57
  225.13        3333.25           6615          35.00       131.65
  225.16        3333.50           6619          32.00       118.57
  225.18        3333.75           6623          37.00       140.37
  225.21        3334.00           6626          31.00       114.21
  225.24        3334.25           6630          28.00       101.13
  225.26        3334.50           6634          34.00       127.29
  225.29        3334.75           6638          35.00       131.65
  225.32        3335.00           6641          35.00       131.65
  225.35        3335.25           6645          37.00       140.37
  225.37        3335.50           6649          42.00       162.16
  225.40        3335.75           6653          62.00       249.35
  225.43        3336.00           6656         160.00       676.56
  225.45        3336.25           6660         456.00      1966.98
  225.48        3336.50           6664         977.00      4238.52
  225.51        3336.75           6668        1823.00      7927.65
  225.54        3337.00           6671        2526.00     10993.79
  225.56        3337.25           6675        4277.00     18633.09
  225.59        3337.50           6679        6191.00     26987.26
  225.62        3337.75           6683        8180.00     35672.93
  225.64        3338.00           6686        9736.00     42470.71
  225.67        3338.25           6690       11776.00     51386.88
  225.70        3338.50           6694       13784.00     60167.54
  225.73        3338.75           6698       15846.00     69188.84
  225.75        3339.00           6701       17446.00     76192.02
  225.78        3339.25           6705       19613.00     85681.33
  225.81        3339.50           6709       21893.00     95670.92
  225.84        3339.75           6713       23900.00    104469.10
  225.86        3340.00           6716       25438.00    111214.10
  225.89        3340.25           6720       27559.00    120520.20
  225.92        3340.50           6724       29470.00    128909.10
  225.95        3340.75           6728       31489.00    137776.40
  225.97        3341.00           6731       32872.00    143852.90
  226.00        3341.25           6735       34552.00    151237.20
  226.03        3341.50           6739       35837.00    156887.30
  226.05        3341.75           6743       36501.00    159807.60
  226.08        3342.00           6746       36431.00    159499.80
  226.11        3342.25           6750       35916.00    157234.80
  226.14        3342.50           6754       34218.00    149768.90
  226.16        3342.75           6758       32231.00    141036.30
  226.19        3343.00           6761       30770.00    134618.10
  226.22        3343.25           6765       28810.00    126011.40
  226.25        3343.50           6769       26962.00    117900.30
  226.27        3343.75           6773       25020.00    109380.70
  226.30        3344.00           6776       23272.00    101715.60
  226.33        3344.25           6780       21259.00     92892.56
  226.35        3344.50           6784       19196.00     83854.90
  226.38        3344.75           6788       16962.00     74073.26
  226.41        3345.00           6791       15079.00     65832.66
  226.44        3345.25           6795       12704.00     55444.34
  226.46        3345.50           6799        9885.00     43121.79
  226.49        3345.75           6803        7424.00     32371.09
  226.52        3346.00           6806        5812.00     25332.70
  226.55        3346.25           6810        4054.00     17659.99
  226.57        3346.50           6814        2914.00     12686.28
  226.60        3346.75           6818        1897.00      8250.38
  226.63        3347.00           6821        1080.00      4687.62
  226.66        3347.25           6825         340.00      1461.26
  226.68        3347.50           6829          66.00       266.78
  226.71        3347.75           6833          43.00       166.52
  226.74        3348.00           6836          39.00       149.09
  226.76        3348.25           6840          40.00       153.44
  226.79        3348.50           6844          33.00       122.93
  226.82        3348.75           6848          38.00       144.73
  226.85        3349.00           6851          39.00       149.09
  226.87        3349.25           6855          40.00       153.44
  226.90        3349.50           6859          38.00       144.73
  226.93        3349.75           6863          41.00       157.80
  226.95        3350.00           6867          33.00       122.93
  226.98        3350.25           6870          41.00       157.80
  227.01        3350.50           6874          35.00       131.65
  227.03        3350.75           6878          36.00       136.01
  227.06        3351.00           6882          31.00       114.21
HL scan finished at 03:47:41
end
