************************************************************
  HL Scan of (1) Internal mercury lamp
************************************************************
Integration time is 0.2294 seconds per sample
dh240818Tamanrasset 22.79-5.529 4.974364pr865
************************************************************
Dead Time -------------------------  2.8E-08 
Number of Cycles Used -------------  4 
Starting Wavelength (Angstroms) ---  3331 
Final Wavelength (Angstoms) -------  3351 
Wavelength Increment (Angstroms) --  .25 
Filter Wheel #1 Position ---------- (1) Ground quartz diffuser (ND=2.32)
Filter Wheel #2 Position ---------- (0) Clear Aperture



************************************************************
HL scan start time = 03:46:03
Dark Count =  5.4 


Time (GMT)  Wavelength (Ang)  Step Number  Raw Counts  Counts/Second

  226.57        3331.00           6581          32.00       115.96
  226.78        3331.25           6585          33.00       120.31
  226.81        3331.50           6589          34.00       124.67
  226.84        3331.75           6593          34.00       124.67
  226.87        3332.00           6596          31.00       111.60
  226.89        3332.25           6600          31.00       111.60
  226.92        3332.50           6604          35.00       129.03
  226.95        3332.75           6608          35.00       129.03
  226.97        3333.00           6611          35.00       129.03
  227.00        3333.25           6615          30.00       107.24
  227.03        3333.50           6619          28.00        98.52
  227.06        3333.75           6623          32.00       115.96
  227.08        3334.00           6626          36.00       133.39
  227.11        3334.25           6630          33.00       120.31
  227.14        3334.50           6634          35.00       129.03
  227.16        3334.75           6638          32.00       115.96
  227.19        3335.00           6641          37.00       137.75
  227.22        3335.25           6645          36.00       133.39
  227.25        3335.50           6649          37.00       137.75
  227.27        3335.75           6653          49.00       190.06
  227.30        3336.00           6656          99.00       408.03
  227.33        3336.25           6660         325.00      1393.25
  227.35        3336.50           6664         965.00      4183.58
  227.38        3336.75           6668        1769.00      7689.54
  227.41        3337.00           6671        2194.00      9543.09
  227.44        3337.25           6675        3784.00     16479.27
  227.46        3337.50           6679        5908.00     25749.16
  227.49        3337.75           6683        8068.00     35181.11
  227.52        3338.00           6686        9800.00     42747.74
  227.55        3338.25           6690       12018.00     52442.25
  227.57        3338.50           6694       14348.00     62631.98
  227.60        3338.75           6698       16403.00     71623.88
  227.63        3339.00           6701       18085.00     78987.05
  227.66        3339.25           6705       20501.00     89568.72
  227.68        3339.50           6709       22607.00     98797.78
  227.71        3339.75           6713       25041.00    109470.20
  227.74        3340.00           6716       26979.00    117972.30
  227.77        3340.25           6720       29034.00    126992.20
  227.79        3340.50           6724       31368.00    137242.20
  227.82        3340.75           6728       33432.00    146311.40
  227.85        3341.00           6731       34937.00    152927.20
  227.87        3341.25           6735       36843.00    161309.40
  227.90        3341.50           6739       38478.00    168502.80
  227.93        3341.75           6743       39251.00    171904.80
  227.96        3342.00           6746       39273.00    172001.60
  227.98        3342.25           6750       38846.00    170122.30
  228.01        3342.50           6754       37322.00    163416.50
  228.04        3342.75           6758       35311.00    154571.70
  228.06        3343.00           6761       33798.00    147920.00
  228.09        3343.25           6765       31383.00    137308.10
  228.12        3343.50           6769       29553.00    129270.90
  228.15        3343.75           6773       27385.00    119754.00
  228.17        3344.00           6776       25832.00    112939.90
  228.20        3344.25           6780       23623.00    103251.90
  228.23        3344.50           6784       21213.00     92688.37
  228.26        3344.75           6788       18845.00     82315.06
  228.28        3345.00           6791       16931.00     73934.94
  228.31        3345.25           6795       14205.00     62006.43
  228.34        3345.50           6799       11051.00     48215.00
  228.37        3345.75           6803        8851.00     38601.42
  228.39        3346.00           6806        7235.00     31543.10
  228.42        3346.25           6810        5127.00     22340.04
  228.45        3346.50           6814        3475.00     15131.08
  228.48        3346.75           6818        2249.00      9782.98
  228.50        3347.00           6821        1571.00      6826.06
  228.53        3347.25           6825         546.00      2356.74
  228.56        3347.50           6829         139.00       582.40
  228.58        3347.75           6833          47.00       181.34
  228.61        3348.00           6836          36.00       133.39
  228.64        3348.25           6840          33.00       120.31
  228.67        3348.50           6844          39.00       146.47
  228.69        3348.75           6848          35.00       129.03
  228.72        3349.00           6851          37.00       137.75
  228.75        3349.25           6855          37.00       137.75
  228.77        3349.50           6859          30.00       107.24
  228.80        3349.75           6863          39.00       146.47
  228.83        3350.00           6867          38.00       142.11
  228.86        3350.25           6870          36.00       133.39
  228.88        3350.50           6874          35.00       129.03
  228.91        3350.75           6878          34.00       124.67
  228.94        3351.00           6882          30.00       107.24
HL scan finished at 03:49:33
end
