************************************************************
  HL Scan of (1) Internal mercury lamp
************************************************************
Integration time is 0.2294 seconds per sample
dh250818Tamanrasset 22.79-5.529 4.974364pr865
************************************************************
Dead Time -------------------------  2.8E-08 
Number of Cycles Used -------------  4 
Starting Wavelength (Angstroms) ---  3331 
Final Wavelength (Angstoms) -------  3351 
Wavelength Increment (Angstroms) --  .25 
Filter Wheel #1 Position ---------- (1) Ground quartz diffuser (ND=2.32)
Filter Wheel #2 Position ---------- (0) Clear Aperture



************************************************************
HL scan start time = 03:46:13
Dark Count =  6 


Time (GMT)  Wavelength (Ang)  Step Number  Raw Counts  Counts/Second

  226.73        3331.00           6581          36.00       130.78
  226.94        3331.25           6585          32.00       113.34
  226.97        3331.50           6589          30.00       104.62
  227.00        3331.75           6593          30.00       104.62
  227.03        3332.00           6596          34.00       122.06
  227.05        3332.25           6600          34.00       122.06
  227.08        3332.50           6604          37.00       135.14
  227.11        3332.75           6608          32.00       113.34
  227.14        3333.00           6611          33.00       117.70
  227.16        3333.25           6615          35.00       126.42
  227.19        3333.50           6619          35.00       126.42
  227.22        3333.75           6623          40.00       148.21
  227.24        3334.00           6626          29.00       100.26
  227.27        3334.25           6630          33.00       117.70
  227.30        3334.50           6634          31.00       108.98
  227.33        3334.75           6638          30.00       104.62
  227.35        3335.00           6641          33.00       117.70
  227.38        3335.25           6645          34.00       122.06
  227.41        3335.50           6649          39.00       143.85
  227.43        3335.75           6653          55.00       213.60
  227.46        3336.00           6656         138.00       575.42
  227.49        3336.25           6660         463.00      1992.26
  227.52        3336.50           6664         954.00      4133.00
  227.54        3336.75           6668        1471.00      6387.37
  227.57        3337.00           6671        2349.00     10216.52
  227.60        3337.25           6675        4142.00     18038.75
  227.62        3337.50           6679        6160.00     26846.68
  227.65        3337.75           6683        8197.00     35741.94
  227.68        3338.00           6686        9770.00     42614.03
  227.71        3338.25           6690       11817.00     51560.87
  227.73        3338.50           6694       13978.00     61010.86
  227.76        3338.75           6698       16077.00     70194.50
  227.79        3339.00           6701       17590.00     76817.19
  227.82        3339.25           6705       19776.00     86390.06
  227.84        3339.50           6709       21993.00     96103.94
  227.87        3339.75           6713       23965.00    104748.80
  227.90        3340.00           6716       25695.00    112336.20
  227.93        3340.25           6720       27745.00    121331.30
  227.95        3340.50           6724       29874.00    130677.80
  227.98        3340.75           6728       31729.00    138825.40
  228.01        3341.00           6731       33072.00    144726.50
  228.04        3341.25           6735       34943.00    152950.90
  228.06        3341.50           6739       36157.00    158289.40
  228.09        3341.75           6743       36810.00    161161.50
  228.12        3342.00           6746       36889.00    161509.00
  228.14        3342.25           6750       36409.00    159397.70
  228.17        3342.50           6754       34948.00    152972.90
  228.20        3342.75           6758       32494.00    142186.60
  228.23        3343.00           6761       31012.00    135675.70
  228.25        3343.25           6765       29467.00    128890.70
  228.28        3343.50           6769       27301.00    119382.70
  228.31        3343.75           6773       25241.00    110344.80
  228.34        3344.00           6776       23440.00    102446.90
  228.36        3344.25           6780       21482.00     93864.50
  228.39        3344.50           6784       19310.00     84348.94
  228.42        3344.75           6788       17114.00     74733.38
  228.44        3345.00           6791       15351.00     67017.53
  228.47        3345.25           6795       12567.00     54840.03
  228.50        3345.50           6799        9702.00     42316.90
  228.53        3345.75           6803        7565.00     32981.62
  228.55        3346.00           6806        5932.00     25851.31
  228.58        3346.25           6810        4087.00     17798.76
  228.61        3346.50           6814        3135.00     13645.14
  228.64        3346.75           6818        1981.00      8611.49
  228.66        3347.00           6821        1134.00      4917.85
  228.69        3347.25           6825         365.00      1565.02
  228.72        3347.50           6829          73.00       292.07
  228.74        3347.75           6833          40.00       148.21
  228.77        3348.00           6836          46.00       174.37
  228.80        3348.25           6840          36.00       130.78
  228.83        3348.50           6844          35.00       126.42
  228.85        3348.75           6848          41.00       152.57
  228.88        3349.00           6851          39.00       143.85
  228.91        3349.25           6855          35.00       126.42
  228.93        3349.50           6859          33.00       117.70
  228.96        3349.75           6863          36.00       130.78
  228.99        3350.00           6867          33.00       117.70
  229.02        3350.25           6870          33.00       117.70
  229.04        3350.50           6874          43.00       161.29
  229.07        3350.75           6878          37.00       135.14
  229.10        3351.00           6882          36.00       130.78
HL scan finished at 03:49:43
end
