************************************************************
  HL Scan of (1) Internal mercury lamp
************************************************************
Integration time is 0.2294 seconds per sample
dh270817Tamanrasset 22.79-5.529 3.297019pr865
************************************************************
Dead Time -------------------------  2.8E-08 
Number of Cycles Used -------------  4 
Starting Wavelength (Angstroms) ---  3331 
Final Wavelength (Angstoms) -------  3351 
Wavelength Increment (Angstroms) --  .25 
Filter Wheel #1 Position ---------- (1) Ground quartz diffuser (ND=2.32)
Filter Wheel #2 Position ---------- (0) Clear Aperture



************************************************************
HL scan start time = 03:47:12
Dark Count =  6 


Time (GMT)  Wavelength (Ang)  Step Number  Raw Counts  Counts/Second

  227.71        3331.00           6581          34.00       122.06
  227.93        3331.25           6585          30.00       104.62
  227.95        3331.50           6589          32.00       113.34
  227.98        3331.75           6593          34.00       122.06
  228.01        3332.00           6596          32.00       113.34
  228.03        3332.25           6600          33.00       117.70
  228.06        3332.50           6604          31.00       108.98
  228.09        3332.75           6608          38.00       139.49
  228.12        3333.00           6611          34.00       122.06
  228.14        3333.25           6615          34.00       122.06
  228.17        3333.50           6619          30.00       104.62
  228.20        3333.75           6623          37.00       135.14
  228.22        3334.00           6626          28.00        95.90
  228.25        3334.25           6630          32.00       113.34
  228.28        3334.50           6634          31.00       108.98
  228.31        3334.75           6638          32.00       113.34
  228.33        3335.00           6641          37.00       135.14
  228.36        3335.25           6645          41.00       152.57
  228.39        3335.50           6649          43.00       161.29
  228.41        3335.75           6653          48.00       183.09
  228.44        3336.00           6656          94.00       383.61
  228.47        3336.25           6660         359.00      1538.86
  228.50        3336.50           6664         987.00      4276.89
  228.52        3336.75           6668        1723.00      7486.31
  228.55        3337.00           6671        2077.00      9030.18
  228.58        3337.25           6675        3791.00     16507.19
  228.60        3337.50           6679        5737.00     25000.06
  228.63        3337.75           6683        7718.00     33649.83
  228.66        3338.00           6686        9355.00     40800.73
  228.69        3338.25           6690       11516.00     50245.01
  228.71        3338.50           6694       13512.00     58972.63
  228.74        3338.75           6698       15580.00     68019.57
  228.77        3339.00           6701       17314.00     75608.90
  228.80        3339.25           6705       19462.00     85014.68
  228.82        3339.50           6709       21693.00     94789.18
  228.85        3339.75           6713       23882.00    104384.90
  228.88        3340.00           6716       25478.00    111384.30
  228.91        3340.25           6720       27511.00    120304.30
  228.93        3340.50           6724       29548.00    129246.30
  228.96        3340.75           6728       31559.00    138078.60
  228.99        3341.00           6731       32899.00    143966.30
  229.02        3341.25           6735       34646.00    151645.20
  229.04        3341.50           6739       36206.00    158504.90
  229.07        3341.75           6743       36924.00    161663.00
  229.10        3342.00           6746       37054.00    162234.90
  229.12        3342.25           6750       36909.00    161597.00
  229.15        3342.50           6754       35432.00    155101.10
  229.18        3342.75           6758       33106.00    144876.00
  229.21        3343.00           6761       31749.00    138913.30
  229.23        3343.25           6765       29923.00    130893.00
  229.26        3343.50           6769       28137.00    123051.80
  229.29        3343.75           6773       26017.00    113748.80
  229.32        3344.00           6776       24301.00    106222.20
  229.34        3344.25           6780       22217.00     97085.71
  229.37        3344.50           6784       20128.00     87932.02
  229.40        3344.75           6788       17889.00     78126.25
  229.43        3345.00           6791       16079.00     70203.26
  229.45        3345.25           6795       13685.00     59729.28
  229.48        3345.50           6799       10739.00     46848.69
  229.51        3345.75           6803        8276.00     36087.01
  229.53        3346.00           6806        6742.00     29387.73
  229.56        3346.25           6810        4715.00     20539.27
  229.59        3346.50           6814        3319.00     14447.87
  229.62        3346.75           6818        2175.00      9457.61
  229.64        3347.00           6821        1507.00      6544.36
  229.67        3347.25           6825         543.00      2341.04
  229.70        3347.50           6829         118.00       488.24
  229.72        3347.75           6833          45.00       170.01
  229.75        3348.00           6836          43.00       161.29
  229.78        3348.25           6840          42.00       156.93
  229.81        3348.50           6844          42.00       156.93
  229.83        3348.75           6848          35.00       126.42
  229.86        3349.00           6851          46.00       174.37
  229.89        3349.25           6855          29.00       100.26
  229.92        3349.50           6859          36.00       130.78
  229.94        3349.75           6863          35.00       126.42
  229.97        3350.00           6867          35.00       126.42
  230.00        3350.25           6870          34.00       122.06
  230.02        3350.50           6874          36.00       130.78
  230.05        3350.75           6878          36.00       130.78
  230.08        3351.00           6882          34.00       122.06
HL scan finished at 03:50:42
end
