************************************************************
  HL Scan of (1) Internal mercury lamp
************************************************************
Integration time is 0.2294 seconds per sample
dh230818Tamanrasset 22.79-5.529 4.974364pr865
************************************************************
Dead Time -------------------------  2.8E-08 
Number of Cycles Used -------------  4 
Starting Wavelength (Angstroms) ---  3331 
Final Wavelength (Angstoms) -------  3351 
Wavelength Increment (Angstroms) --  .25 
Filter Wheel #1 Position ---------- (1) Ground quartz diffuser (ND=2.32)
Filter Wheel #2 Position ---------- (0) Clear Aperture



************************************************************
HL scan start time = 03:45:56
Dark Count =  6.8 


Time (GMT)  Wavelength (Ang)  Step Number  Raw Counts  Counts/Second

  226.45        3331.00           6581          35.00       122.93
  226.67        3331.25           6585          32.00       109.85
  226.70        3331.50           6589          31.00       105.49
  226.72        3331.75           6593          33.00       114.21
  226.75        3332.00           6596          29.00        96.77
  226.78        3332.25           6600          34.00       118.57
  226.81        3332.50           6604          32.00       109.85
  226.83        3332.75           6608          39.00       140.37
  226.86        3333.00           6611          28.00        92.42
  226.89        3333.25           6615          34.00       118.57
  226.91        3333.50           6619          34.00       118.57
  226.94        3333.75           6623          34.00       118.57
  226.97        3334.00           6626          32.00       109.85
  227.00        3334.25           6630          31.00       105.49
  227.02        3334.50           6634          33.00       114.21
  227.05        3334.75           6638          36.00       127.29
  227.08        3335.00           6641          40.00       144.73
  227.10        3335.25           6645          41.00       149.09
  227.13        3335.50           6649          39.00       140.37
  227.16        3335.75           6653          54.00       205.76
  227.19        3336.00           6656         127.00       523.98
  227.21        3336.25           6660         436.00      1871.07
  227.24        3336.50           6664        1120.00      4853.32
  227.27        3336.75           6668        2124.00      9231.68
  227.29        3337.00           6671        2487.00     10814.96
  227.32        3337.25           6675        4170.00     18157.44
  227.35        3337.50           6679        6334.00     27602.85
  227.38        3337.75           6683        8502.00     37070.72
  227.40        3338.00           6686       10158.00     44306.03
  227.43        3338.25           6690       12508.00     54578.55
  227.46        3338.50           6694       14701.00     64170.13
  227.49        3338.75           6698       16977.00     74130.18
  227.51        3339.00           6701       18777.00     82011.13
  227.54        3339.25           6705       21032.00     91889.12
  227.57        3339.50           6709       23430.00    102399.50
  227.60        3339.75           6713       25596.00    111898.40
  227.62        3340.00           6716       27558.00    120507.10
  227.65        3340.25           6720       29774.00    130235.20
  227.68        3340.50           6724       31873.00    139454.60
  227.70        3340.75           6728       34251.00    149905.10
  227.73        3341.00           6731       35866.00    157006.10
  227.76        3341.25           6735       37843.00    165702.50
  227.79        3341.50           6739       39155.00    171476.10
  227.81        3341.75           6743       40310.00    176560.30
  227.84        3342.00           6746       40309.00    176555.90
  227.87        3342.25           6750       39864.00    174596.90
  227.90        3342.50           6754       38273.00    167594.60
  227.92        3342.75           6758       35950.00    157375.50
  227.95        3343.00           6761       34446.00    150762.40
  227.98        3343.25           6765       32133.00    140596.90
  228.00        3343.50           6769       30420.00    133072.10
  228.03        3343.75           6773       28273.00    123645.30
  228.06        3344.00           6776       26413.00    115482.70
  228.09        3344.25           6780       24035.00    105052.20
  228.11        3344.50           6784       21784.00     95184.47
  228.14        3344.75           6788       19460.00     85002.41
  228.17        3345.00           6791       17471.00     76292.71
  228.20        3345.25           6795       14731.00     64301.37
  228.22        3345.50           6799       11284.00     49227.36
  228.25        3345.75           6803        8952.00     39036.54
  228.28        3346.00           6806        7286.00     31759.71
  228.31        3346.25           6810        5057.00     22028.41
  228.33        3346.50           6814        3434.00     14946.10
  228.36        3346.75           6818        2167.00      9419.22
  228.39        3347.00           6821        1584.00      6876.65
  228.41        3347.25           6825         560.00      2411.67
  228.44        3347.50           6829         130.00       537.06
  228.47        3347.75           6833          42.00       153.44
  228.50        3348.00           6836          39.00       140.37
  228.52        3348.25           6840          40.00       144.73
  228.55        3348.50           6844          41.00       149.09
  228.58        3348.75           6848          38.00       136.01
  228.60        3349.00           6851          42.00       153.44
  228.63        3349.25           6855          38.00       136.01
  228.66        3349.50           6859          39.00       140.37
  228.69        3349.75           6863          39.00       140.37
  228.71        3350.00           6867          40.00       144.73
  228.74        3350.25           6870          37.00       131.65
  228.77        3350.50           6874          35.00       122.93
  228.79        3350.75           6878          31.00       105.49
  228.82        3351.00           6882          38.00       136.01
HL scan finished at 03:49:27
end
