************************************************************
  HL Scan of (1) Internal mercury lamp
************************************************************
Integration time is 0.2294 seconds per sample
dh250817Tamanrasset 22.79-5.529 3.225643pr865
************************************************************
Dead Time -------------------------  2.8E-08 
Number of Cycles Used -------------  4 
Starting Wavelength (Angstroms) ---  3331 
Final Wavelength (Angstoms) -------  3351 
Wavelength Increment (Angstroms) --  .25 
Filter Wheel #1 Position ---------- (1) Ground quartz diffuser (ND=2.32)
Filter Wheel #2 Position ---------- (0) Clear Aperture



************************************************************
HL scan start time = 03:47:41
Dark Count =  5.5 


Time (GMT)  Wavelength (Ang)  Step Number  Raw Counts  Counts/Second

  228.19        3331.00           6581          31.00       111.16
  228.41        3331.25           6585          36.00       132.96
  228.44        3331.50           6589          34.00       124.24
  228.46        3331.75           6593          29.00       102.44
  228.49        3332.00           6596          24.00        80.65
  228.52        3332.25           6600          32.00       115.52
  228.54        3332.50           6604          30.00       106.80
  228.57        3332.75           6608          34.00       124.24
  228.60        3333.00           6611          30.00       106.80
  228.63        3333.25           6615          31.00       111.16
  228.65        3333.50           6619          32.00       115.52
  228.68        3333.75           6623          29.00       102.44
  228.71        3334.00           6626          27.00        93.72
  228.73        3334.25           6630          38.00       141.67
  228.76        3334.50           6634          27.00        93.72
  228.79        3334.75           6638          31.00       111.16
  228.82        3335.00           6641          34.00       124.24
  228.84        3335.25           6645          33.00       119.88
  228.87        3335.50           6649          38.00       141.67
  228.90        3335.75           6653          51.00       198.34
  228.92        3336.00           6656         120.00       499.14
  228.95        3336.25           6660         390.00      1676.19
  228.98        3336.50           6664         878.00      3803.81
  229.01        3336.75           6668        1485.00      6450.60
  229.03        3337.00           6671        2163.00      9407.45
  229.06        3337.25           6675        3906.00     17011.15
  229.09        3337.50           6679        5800.00     25277.26
  229.11        3337.75           6683        7814.00     34071.29
  229.14        3338.00           6686        9361.00     40829.13
  229.17        3338.25           6690       11274.00     49189.33
  229.20        3338.50           6694       13181.00     57527.21
  229.22        3338.75           6698       15302.00     66805.31
  229.25        3339.00           6701       16804.00     73378.60
  229.28        3339.25           6705       18945.00     82752.56
  229.31        3339.50           6709       21099.00     92188.40
  229.33        3339.75           6713       23086.00    100897.10
  229.36        3340.00           6716       24613.00    107592.60
  229.39        3340.25           6720       26709.00    116787.10
  229.42        3340.50           6724       28596.00    125068.90
  229.44        3340.75           6728       30360.00    132814.30
  229.47        3341.00           6731       31749.00    138915.50
  229.50        3341.25           6735       33398.00    146161.50
  229.52        3341.50           6739       34646.00    151647.40
  229.55        3341.75           6743       35277.00    154421.70
  229.58        3342.00           6746       35176.00    153977.60
  229.61        3342.25           6750       34683.00    151810.00
  229.63        3342.50           6754       33172.00    145168.20
  229.66        3342.75           6758       31239.00    136675.10
  229.69        3343.00           6761       29796.00    130337.50
  229.72        3343.25           6765       28169.00    123194.50
  229.74        3343.50           6769       26183.00    114479.30
  229.77        3343.75           6773       24246.00    105983.20
  229.80        3344.00           6776       22665.00     99051.59
  229.83        3344.25           6780       20745.00     90637.32
  229.85        3344.50           6784       18688.00     81627.07
  229.88        3344.75           6788       16465.00     71894.81
  229.91        3345.00           6791       14666.00     64022.69
  229.93        3345.25           6795       12245.00     53434.29
  229.96        3345.50           6799        9460.00     41261.68
  229.99        3345.75           6803        7200.00     31389.83
  230.02        3346.00           6806        5700.00     24840.73
  230.04        3346.25           6810        3889.00     16936.98
  230.07        3346.50           6814        2829.00     12312.44
  230.10        3346.75           6818        1987.00      8639.84
  230.13        3347.00           6821        1103.00      4784.86
  230.15        3347.25           6825         310.00      1327.43
  230.18        3347.50           6829          73.00       294.25
  230.21        3347.75           6833          41.00       154.75
  230.23        3348.00           6836          37.00       137.32
  230.26        3348.25           6840          36.00       132.96
  230.29        3348.50           6844          40.00       150.39
  230.32        3348.75           6848          35.00       128.60
  230.34        3349.00           6851          32.00       115.52
  230.37        3349.25           6855          38.00       141.67
  230.40        3349.50           6859          34.00       124.24
  230.42        3349.75           6863          34.00       124.24
  230.45        3350.00           6867          37.00       137.32
  230.48        3350.25           6870          33.00       119.88
  230.51        3350.50           6874          32.00       115.52
  230.53        3350.75           6878          36.00       132.96
  230.56        3351.00           6882          36.00       132.96
HL scan finished at 03:51:11
end
