************************************************************
  HL Scan of (1) Internal mercury lamp
************************************************************
Integration time is 0.2294 seconds per sample
dh180817Tamanrasset 22.79-5.529 3.378592pr865
************************************************************
Dead Time -------------------------  2.8E-08 
Number of Cycles Used -------------  4 
Starting Wavelength (Angstroms) ---  3331 
Final Wavelength (Angstoms) -------  3351 
Wavelength Increment (Angstroms) --  .25 
Filter Wheel #1 Position ---------- (1) Ground quartz diffuser (ND=2.32)
Filter Wheel #2 Position ---------- (0) Clear Aperture



************************************************************
HL scan start time = 03:44:11
Dark Count =  6 


Time (GMT)  Wavelength (Ang)  Step Number  Raw Counts  Counts/Second

  224.69        3331.00           6581          34.00       122.06
  224.91        3331.25           6585          38.00       139.49
  224.93        3331.50           6589          37.00       135.14
  224.96        3331.75           6593          40.00       148.21
  224.99        3332.00           6596          33.00       117.70
  225.02        3332.25           6600          29.00       100.26
  225.04        3332.50           6604          39.00       143.85
  225.07        3332.75           6608          37.00       135.14
  225.10        3333.00           6611          30.00       104.62
  225.13        3333.25           6615          28.00        95.90
  225.15        3333.50           6619          36.00       130.78
  225.18        3333.75           6623          31.00       108.98
  225.21        3334.00           6626          28.00        95.90
  225.23        3334.25           6630          32.00       113.34
  225.26        3334.50           6634          31.00       108.98
  225.29        3334.75           6638          33.00       117.70
  225.32        3335.00           6641          32.00       113.34
  225.34        3335.25           6645          43.00       161.29
  225.37        3335.50           6649          45.00       170.01
  225.40        3335.75           6653          74.00       296.43
  225.42        3336.00           6656         168.00       706.20
  225.45        3336.25           6660         533.00      2297.45
  225.48        3336.50           6664        1216.00      5275.41
  225.51        3336.75           6668        2133.00      9274.42
  225.53        3337.00           6671        2757.00     11996.18
  225.56        3337.25           6675        4634.00     20185.78
  225.59        3337.50           6679        6710.00     29248.01
  225.62        3337.75           6683        8939.00     38983.24
  225.64        3338.00           6686       10546.00     46005.17
  225.67        3338.25           6690       12841.00     56038.17
  225.70        3338.50           6694       15032.00     65621.77
  225.72        3338.75           6698       17407.00     76016.03
  225.75        3339.00           6701       18987.00     82934.30
  225.78        3339.25           6705       21327.00     93185.28
  225.81        3339.50           6709       23637.00    103310.60
  225.83        3339.75           6713       25838.00    112963.50
  225.86        3340.00           6716       27500.00    120256.00
  225.89        3340.25           6720       29846.00    130554.90
  225.92        3340.50           6724       32182.00    140815.70
  225.94        3340.75           6728       34181.00    149600.90
  225.97        3341.00           6731       35665.00    156125.70
  226.00        3341.25           6735       37548.00    164408.10
  226.03        3341.50           6739       38721.00    169569.50
  226.05        3341.75           6743       39426.00    172672.40
  226.08        3342.00           6746       39251.00    171902.10
  226.11        3342.25           6750       38696.00    169459.50
  226.14        3342.50           6754       36909.00    161597.00
  226.16        3342.75           6758       34799.00    152317.80
  226.19        3343.00           6761       33031.00    144546.40
  226.22        3343.25           6765       31323.00    137041.90
  226.24        3343.50           6769       29134.00    127428.60
  226.27        3343.75           6773       26869.00    117487.00
  226.30        3344.00           6776       25232.00    110305.30
  226.33        3344.25           6780       22769.00     99505.27
  226.35        3344.50           6784       20487.00     89504.76
  226.38        3344.75           6788       18206.00     79514.24
  226.41        3345.00           6791       16018.00     69936.30
  226.44        3345.25           6795       13415.00     58548.39
  226.46        3345.50           6799       10456.00     45611.84
  226.49        3345.75           6803        8150.00     35536.65
  226.52        3346.00           6806        6406.00     27920.69
  226.55        3346.25           6810        4372.00     19042.41
  226.57        3346.50           6814        3068.00     13352.86
  226.60        3346.75           6818        1944.00      8450.13
  226.63        3347.00           6821        1145.00      4965.82
  226.65        3347.25           6825         332.00      1421.16
  226.68        3347.50           6829          68.00       270.27
  226.71        3347.75           6833          41.00       152.57
  226.74        3348.00           6836          50.00       191.81
  226.76        3348.25           6840          31.00       108.98
  226.79        3348.50           6844          44.00       165.65
  226.82        3348.75           6848          44.00       165.65
  226.85        3349.00           6851          41.00       152.57
  226.87        3349.25           6855          36.00       130.78
  226.90        3349.50           6859          38.00       139.49
  226.93        3349.75           6863          43.00       161.29
  226.95        3350.00           6867          30.00       104.62
  226.98        3350.25           6870          41.00       152.57
  227.01        3350.50           6874          43.00       161.29
  227.04        3350.75           6878          40.00       148.21
  227.06        3351.00           6882          40.00       148.21
HL scan finished at 03:47:41
end
