************************************************************
  HL Scan of (1) Internal mercury lamp
************************************************************
Integration time is 0.2294 seconds per sample
dh260818Tamanrasset 22.79-5.529 4.974364pr865
************************************************************
Dead Time -------------------------  2.8E-08 
Number of Cycles Used -------------  4 
Starting Wavelength (Angstroms) ---  3331 
Final Wavelength (Angstoms) -------  3351 
Wavelength Increment (Angstroms) --  .25 
Filter Wheel #1 Position ---------- (1) Ground quartz diffuser (ND=2.32)
Filter Wheel #2 Position ---------- (0) Clear Aperture



************************************************************
HL scan start time = 03:46:14
Dark Count =  5.9 


Time (GMT)  Wavelength (Ang)  Step Number  Raw Counts  Counts/Second

  226.75        3331.00           6581          32.00       113.78
  226.97        3331.25           6585          28.00        96.34
  227.00        3331.50           6589          31.00       109.42
  227.02        3331.75           6593          28.00        96.34
  227.05        3332.00           6596          28.00        96.34
  227.08        3332.25           6600          27.00        91.98
  227.11        3332.50           6604          29.00       100.70
  227.13        3332.75           6608          30.00       105.06
  227.16        3333.00           6611          27.00        91.98
  227.19        3333.25           6615          34.00       122.49
  227.22        3333.50           6619          33.00       118.13
  227.24        3333.75           6623          29.00       100.70
  227.27        3334.00           6626          32.00       113.78
  227.30        3334.25           6630          24.00        78.90
  227.32        3334.50           6634          31.00       109.42
  227.35        3334.75           6638          30.00       105.06
  227.38        3335.00           6641          31.00       109.42
  227.40        3335.25           6645          37.00       135.57
  227.43        3335.50           6649          40.00       148.65
  227.46        3335.75           6653          52.00       200.96
  227.49        3336.00           6656         102.00       418.92
  227.51        3336.25           6660         326.00      1395.43
  227.54        3336.50           6664         795.00      3440.17
  227.57        3336.75           6668        1557.00      6762.83
  227.60        3337.00           6671        1974.00      8581.40
  227.62        3337.25           6675        3358.00     14618.45
  227.65        3337.50           6679        5231.00     22791.79
  227.68        3337.75           6683        6930.00     30209.07
  227.71        3338.00           6686        8314.00     36253.44
  227.73        3338.25           6690       10161.00     44323.07
  227.76        3338.50           6694       12012.00     52413.83
  227.79        3338.75           6698       13872.00     60547.64
  227.81        3339.00           6701       15240.00     66532.28
  227.84        3339.25           6705       17211.00     75158.44
  227.87        3339.50           6709       19136.00     83587.29
  227.90        3339.75           6713       20984.00     91682.74
  227.92        3340.00           6716       22481.00     98243.28
  227.95        3340.25           6720       24360.00    106481.40
  227.98        3340.50           6724       25948.00    113446.60
  228.01        3340.75           6728       27836.00    121731.10
  228.03        3341.00           6731       29079.00    127187.50
  228.06        3341.25           6735       30304.00    132566.60
  228.09        3341.50           6739       31835.00    139291.60
  228.12        3341.75           6743       32214.00    140956.70
  228.14        3342.00           6746       32531.00    142349.60
  228.17        3342.25           6750       32222.00    140991.90
  228.20        3342.50           6754       31062.00    135895.80
  228.22        3342.75           6758       29151.00    127503.70
  228.25        3343.00           6761       27829.00    121700.40
  228.28        3343.25           6765       25872.00    113113.10
  228.31        3343.50           6769       24420.00    106744.50
  228.33        3343.75           6773       22704.00     99220.78
  228.36        3344.00           6776       21173.00     92510.90
  228.39        3344.25           6780       19484.00     85111.49
  228.42        3344.50           6784       17602.00     76870.16
  228.44        3344.75           6788       15700.00     68545.11
  228.47        3345.00           6791       13960.00     60932.55
  228.50        3345.25           6795       11793.00     51456.39
  228.52        3345.50           6799        9421.00     41089.53
  228.55        3345.75           6803        7236.00     31545.29
  228.58        3346.00           6806        5870.00     25581.09
  228.61        3346.25           6810        4056.00     17663.92
  228.63        3346.50           6814        2741.00     11926.83
  228.66        3346.75           6818        1742.00      7569.61
  228.69        3347.00           6821        1236.00      5363.05
  228.72        3347.25           6825         447.00      1922.95
  228.74        3347.50           6829         105.00       432.00
  228.77        3347.75           6833          39.00       144.29
  228.80        3348.00           6836          39.00       144.29
  228.82        3348.25           6840          36.00       131.21
  228.85        3348.50           6844          37.00       135.57
  228.88        3348.75           6848          33.00       118.13
  228.91        3349.00           6851          31.00       109.42
  228.93        3349.25           6855          38.00       139.93
  228.96        3349.50           6859          39.00       144.29
  228.99        3349.75           6863          34.00       122.49
  229.01        3350.00           6867          33.00       118.13
  229.04        3350.25           6870          34.00       122.49
  229.07        3350.50           6874          36.00       131.21
  229.10        3350.75           6878          33.00       118.13
  229.12        3351.00           6882          28.00        96.34
HL scan finished at 03:49:45
end
