************************************************************
  HL Scan of (1) Internal mercury lamp
************************************************************
Integration time is 0.2294 seconds per sample
dh240817Tamanrasset 22.79-5.529 3.189955pr865
************************************************************
Dead Time -------------------------  2.8E-08 
Number of Cycles Used -------------  4 
Starting Wavelength (Angstroms) ---  3331 
Final Wavelength (Angstoms) -------  3351 
Wavelength Increment (Angstroms) --  .25 
Filter Wheel #1 Position ---------- (1) Ground quartz diffuser (ND=2.32)
Filter Wheel #2 Position ---------- (0) Clear Aperture



************************************************************
HL scan start time = 03:46:11
Dark Count =  4.5 


Time (GMT)  Wavelength (Ang)  Step Number  Raw Counts  Counts/Second

  226.70        3331.00           6581          34.00       128.60
  226.92        3331.25           6585          33.00       124.24
  226.95        3331.50           6589          32.00       119.88
  226.97        3331.75           6593          34.00       128.60
  227.00        3332.00           6596          26.00        93.72
  227.03        3332.25           6600          33.00       124.24
  227.06        3332.50           6604          28.00       102.44
  227.08        3332.75           6608          29.00       106.80
  227.11        3333.00           6611          33.00       124.24
  227.14        3333.25           6615          32.00       119.88
  227.16        3333.50           6619          31.00       115.52
  227.19        3333.75           6623          34.00       128.60
  227.22        3334.00           6626          30.00       111.16
  227.25        3334.25           6630          32.00       119.88
  227.27        3334.50           6634          36.00       137.32
  227.30        3334.75           6638          33.00       124.24
  227.33        3335.00           6641          36.00       137.32
  227.35        3335.25           6645          35.00       132.96
  227.38        3335.50           6649          39.00       150.39
  227.41        3335.75           6653          68.00       276.81
  227.44        3336.00           6656         152.00       642.99
  227.46        3336.25           6660         436.00      1881.09
  227.49        3336.50           6664        1015.00      4405.51
  227.52        3336.75           6668        1736.00      7549.55
  227.55        3337.00           6671        2318.00     10087.85
  227.57        3337.25           6675        4087.00     17805.30
  227.60        3337.50           6679        5890.00     25674.51
  227.63        3337.75           6683        7821.00     34106.23
  227.65        3338.00           6686        9247.00     40335.42
  227.68        3338.25           6690       11417.00     49818.80
  227.71        3338.50           6694       13160.00     57439.74
  227.74        3338.75           6698       15241.00     66542.79
  227.76        3339.00           6701       16740.00     73102.84
  227.79        3339.25           6705       18767.00     81977.41
  227.82        3339.50           6709       20821.00     90974.68
  227.85        3339.75           6713       23017.00    100599.00
  227.87        3340.00           6716       24320.00    106312.10
  227.90        3340.25           6720       26321.00    115089.10
  227.93        3340.50           6724       28315.00    123839.80
  227.96        3340.75           6728       30403.00    133007.50
  227.98        3341.00           6731       31493.00    137795.20
  228.01        3341.25           6735       33088.00    144803.50
  228.04        3341.50           6739       34278.00    150033.90
  228.06        3341.75           6743       34698.00    151880.40
  228.09        3342.00           6746       34810.00    152372.80
  228.12        3342.25           6750       34153.00    149484.50
  228.15        3342.50           6754       32421.00    141872.40
  228.17        3342.75           6758       30362.00    132827.50
  228.20        3343.00           6761       28788.00    125916.10
  228.23        3343.25           6765       27096.00    118489.70
  228.26        3343.50           6769       25227.00    110289.90
  228.28        3343.75           6773       23188.00    101348.70
  228.31        3344.00           6776       21936.00     95860.71
  228.34        3344.25           6780       19928.00     87062.46
  228.37        3344.50           6784       17905.00     78202.87
  228.39        3344.75           6788       15781.00     68905.71
  228.42        3345.00           6791       13968.00     60973.67
  228.45        3345.25           6795       11616.00     50688.72
  228.47        3345.50           6799        9109.00     39732.50
  228.50        3345.75           6803        6782.00     29568.94
  228.53        3346.00           6806        5338.00     23264.93
  228.56        3346.25           6810        3591.00     15641.11
  228.58        3346.50           6814        2514.00     10942.76
  228.61        3346.75           6818        1692.00      7357.66
  228.64        3347.00           6821         912.00      3956.41
  228.67        3347.25           6825         255.00      1092.01
  228.69        3347.50           6829          57.00       228.86
  228.72        3347.75           6833          36.00       137.32
  228.75        3348.00           6836          39.00       150.39
  228.78        3348.25           6840          35.00       132.96
  228.80        3348.50           6844          30.00       111.16
  228.83        3348.75           6848          34.00       128.60
  228.86        3349.00           6851          29.00       106.80
  228.88        3349.25           6855          29.00       106.80
  228.91        3349.50           6859          28.00       102.44
  228.94        3349.75           6863          36.00       137.32
  228.96        3350.00           6867          35.00       132.96
  228.99        3350.25           6870          33.00       124.24
  229.02        3350.50           6874          29.00       106.80
  229.05        3350.75           6878          36.00       137.32
  229.07        3351.00           6882          33.00       124.24
HL scan finished at 03:49:42
end
