************************************************************
  HL Scan of (1) Internal mercury lamp
************************************************************
Integration time is 0.2294 seconds per sample
dh010917Tamanrasset 22.79-5.529 3.246036pr865
************************************************************
Dead Time -------------------------  2.8E-08 
Number of Cycles Used -------------  4 
Starting Wavelength (Angstroms) ---  3331 
Final Wavelength (Angstoms) -------  3351 
Wavelength Increment (Angstroms) --  .25 
Filter Wheel #1 Position ---------- (1) Ground quartz diffuser (ND=2.32)
Filter Wheel #2 Position ---------- (0) Clear Aperture



************************************************************
HL scan start time = 03:49:11
Dark Count =  6.4 


Time (GMT)  Wavelength (Ang)  Step Number  Raw Counts  Counts/Second

  229.69        3331.00           6581          37.00       133.39
  229.91        3331.25           6585          31.00       107.24
  229.94        3331.50           6589          33.00       115.96
  229.96        3331.75           6593          31.00       107.24
  229.99        3332.00           6596          30.00       102.88
  230.02        3332.25           6600          36.00       129.03
  230.05        3332.50           6604          39.00       142.11
  230.07        3332.75           6608          34.00       120.31
  230.10        3333.00           6611          38.00       137.75
  230.13        3333.25           6615          26.00        85.44
  230.15        3333.50           6619          32.00       111.60
  230.18        3333.75           6623          33.00       115.96
  230.21        3334.00           6626          31.00       107.24
  230.24        3334.25           6630          34.00       120.31
  230.26        3334.50           6634          29.00        98.52
  230.29        3334.75           6638          33.00       115.96
  230.32        3335.00           6641          36.00       129.03
  230.35        3335.25           6645          31.00       107.24
  230.37        3335.50           6649          44.00       163.91
  230.40        3335.75           6653          57.00       220.58
  230.43        3336.00           6656         132.00       547.52
  230.45        3336.25           6660         404.00      1733.30
  230.48        3336.50           6664         873.00      3778.08
  230.51        3336.75           6668        1563.00      6786.82
  230.54        3337.00           6671        2250.00      9782.98
  230.56        3337.25           6675        3924.00     17085.77
  230.59        3337.50           6679        5853.00     25504.70
  230.62        3337.75           6683        7883.00     34368.72
  230.64        3338.00           6686        9421.00     41087.35
  230.67        3338.25           6690       11410.00     49779.89
  230.70        3338.50           6694       13478.00     58822.18
  230.73        3338.75           6698       15493.00     67637.13
  230.75        3339.00           6701       17116.00     74740.38
  230.78        3339.25           6705       19256.00     84110.68
  230.81        3339.50           6709       21485.00     93875.91
  230.84        3339.75           6713       23696.00    103567.60
  230.86        3340.00           6716       25050.00    109505.30
  230.89        3340.25           6720       26958.00    117875.80
  230.92        3340.50           6724       29089.00    127229.30
  230.95        3340.75           6728       31293.00    136908.30
  230.97        3341.00           6731       32661.00    142918.60
  231.00        3341.25           6735       34165.00    149528.90
  231.03        3341.50           6739       35342.00    154703.60
  231.05        3341.75           6743       36219.00    158560.30
  231.08        3342.00           6746       36036.00    157755.50
  231.11        3342.25           6750       35746.00    156480.10
  231.14        3342.50           6754       34004.00    148821.10
  231.16        3342.75           6758       31993.00    139983.50
  231.19        3343.00           6761       30634.00    134013.70
  231.22        3343.25           6765       29025.00    126948.30
  231.25        3343.50           6769       26987.00    118003.00
  231.27        3343.75           6773       24989.00    109237.70
  231.30        3344.00           6776       23282.00    101752.40
  231.33        3344.25           6780       21189.00     92578.82
  231.36        3344.50           6784       18902.00     82560.30
  231.38        3344.75           6788       16837.00     73519.10
  231.41        3345.00           6791       15059.00     65738.16
  231.44        3345.25           6795       12453.00     54339.81
  231.46        3345.50           6799        9749.00     42520.52
  231.49        3345.75           6803        7532.00     32835.76
  231.52        3346.00           6806        5915.00     25775.35
  231.55        3346.25           6810        4115.00     17919.19
  231.57        3346.50           6814        2979.00     12962.86
  231.60        3346.75           6818        1895.00      8234.68
  231.63        3347.00           6821        1046.00      4532.40
  231.66        3347.25           6825         319.00      1362.74
  231.68        3347.50           6829          69.00       272.89
  231.71        3347.75           6833          42.00       155.19
  231.74        3348.00           6836          38.00       137.75
  231.76        3348.25           6840          39.00       142.11
  231.79        3348.50           6844          32.00       111.60
  231.82        3348.75           6848          38.00       137.75
  231.85        3349.00           6851          37.00       133.39
  231.87        3349.25           6855          36.00       129.03
  231.90        3349.50           6859          35.00       124.67
  231.93        3349.75           6863          30.00       102.88
  231.95        3350.00           6867          37.00       133.39
  231.98        3350.25           6870          31.00       107.24
  232.01        3350.50           6874          40.00       146.47
  232.04        3350.75           6878          30.00       102.88
  232.06        3351.00           6882          37.00       133.39
HL scan finished at 03:52:41
end
