************************************************************
  HL Scan of (1) Internal mercury lamp
************************************************************
Integration time is 0.2294 seconds per sample
dh280818Tamanrasset 22.79-5.529 4.974364pr865
************************************************************
Dead Time -------------------------  2.8E-08 
Number of Cycles Used -------------  4 
Starting Wavelength (Angstroms) ---  3331 
Final Wavelength (Angstoms) -------  3351 
Wavelength Increment (Angstroms) --  .25 
Filter Wheel #1 Position ---------- (1) Ground quartz diffuser (ND=2.32)
Filter Wheel #2 Position ---------- (0) Clear Aperture



************************************************************
HL scan start time = 03:48:29
Dark Count =  4.9 


Time (GMT)  Wavelength (Ang)  Step Number  Raw Counts  Counts/Second

  229.00        3331.00           6581          26.00        91.98
  229.21        3331.25           6585          36.00       135.57
  229.24        3331.50           6589          30.00       109.42
  229.27        3331.75           6593          35.00       131.21
  229.30        3332.00           6596          31.00       113.78
  229.32        3332.25           6600          27.00        96.34
  229.35        3332.50           6604          33.00       122.49
  229.38        3332.75           6608          31.00       113.78
  229.40        3333.00           6611          28.00       100.70
  229.43        3333.25           6615          38.00       144.29
  229.46        3333.50           6619          34.00       126.85
  229.49        3333.75           6623          37.00       139.93
  229.51        3334.00           6626          39.00       148.65
  229.54        3334.25           6630          29.00       105.06
  229.57        3334.50           6634          32.00       118.13
  229.59        3334.75           6638          34.00       126.85
  229.62        3335.00           6641          34.00       126.85
  229.65        3335.25           6645          32.00       118.13
  229.68        3335.50           6649          44.00       170.45
  229.70        3335.75           6653          52.00       205.32
  229.73        3336.00           6656         116.00       484.31
  229.76        3336.25           6660         390.00      1678.81
  229.78        3336.50           6664         906.00      3928.51
  229.81        3336.75           6668        1544.00      6710.50
  229.84        3337.00           6671        2175.00      9462.40
  229.87        3337.25           6675        3840.00     16725.79
  229.89        3337.50           6679        5708.00     24878.27
  229.92        3337.75           6683        7801.00     34017.13
  229.95        3338.00           6686        9240.00     40303.09
  229.98        3338.25           6690       11248.00     49078.30
  230.00        3338.50           6694       13209.00     57652.28
  230.03        3338.75           6698       15320.00     66886.71
  230.06        3339.00           6701       16950.00     74020.30
  230.08        3339.25           6705       19058.00     83250.07
  230.11        3339.50           6709       21235.00     92786.96
  230.14        3339.75           6713       23253.00    101631.90
  230.17        3340.00           6716       24661.00    107805.80
  230.19        3340.25           6720       26793.00    117158.30
  230.22        3340.50           6724       28605.00    125111.00
  230.25        3340.75           6728       30829.00    134876.80
  230.28        3341.00           6731       32154.00    140697.50
  230.30        3341.25           6735       33910.00    148414.50
  230.33        3341.50           6739       35224.00    154191.30
  230.36        3341.75           6743       36030.00    157735.70
  230.39        3342.00           6746       35873.00    157045.20
  230.41        3342.25           6750       35496.00    155387.30
  230.44        3342.50           6754       33742.00    147676.10
  230.47        3342.75           6758       31884.00    139511.20
  230.50        3343.00           6761       30514.00    133493.30
  230.52        3343.25           6765       28911.00    126454.40
  230.55        3343.50           6769       26700.00    116750.30
  230.58        3343.75           6773       24777.00    108314.50
  230.61        3344.00           6776       23059.00    100781.40
  230.63        3344.25           6780       21187.00     92576.63
  230.66        3344.50           6784       19066.00     83285.10
  230.69        3344.75           6788       16758.00     73179.88
  230.71        3345.00           6791       14780.00     64524.06
  230.74        3345.25           6795       12290.00     53633.67
  230.77        3345.50           6799        9793.00     42719.33
  230.80        3345.75           6803        7767.00     33868.63
  230.82        3346.00           6806        6214.00     27087.24
  230.85        3346.25           6810        4216.00     18366.46
  230.88        3346.50           6814        3064.00     13340.21
  230.90        3346.75           6818        2121.00      9226.88
  230.93        3347.00           6821        1269.00      5511.31
  230.96        3347.25           6825         435.00      1874.99
  230.99        3347.50           6829          92.00       379.69
  231.01        3347.75           6833          39.00       148.65
  231.04        3348.00           6836          42.00       161.73
  231.07        3348.25           6840          35.00       131.21
  231.10        3348.50           6844          40.00       153.01
  231.12        3348.75           6848          35.00       131.21
  231.15        3349.00           6851          48.00       187.88
  231.18        3349.25           6855          32.00       118.13
  231.20        3349.50           6859          36.00       135.57
  231.23        3349.75           6863          35.00       131.21
  231.26        3350.00           6867          37.00       139.93
  231.29        3350.25           6870          33.00       122.49
  231.31        3350.50           6874          39.00       148.65
  231.34        3350.75           6878          37.00       139.93
  231.37        3351.00           6882          35.00       131.21
HL scan finished at 03:51:59
end
