************************************************************
  HL Scan of (1) Internal mercury lamp
************************************************************
Integration time is 0.2294 seconds per sample
dh020918Tamanrasset 22.79-5.529 4.974364pr865
************************************************************
Dead Time -------------------------  2.8E-08 
Number of Cycles Used -------------  4 
Starting Wavelength (Angstroms) ---  3331 
Final Wavelength (Angstoms) -------  3351 
Wavelength Increment (Angstroms) --  .25 
Filter Wheel #1 Position ---------- (1) Ground quartz diffuser (ND=2.32)
Filter Wheel #2 Position ---------- (0) Clear Aperture



************************************************************
HL scan start time = 03:49:01
Dark Count =  5.9 


Time (GMT)  Wavelength (Ang)  Step Number  Raw Counts  Counts/Second

  229.52        3331.00           6581          34.00       122.49
  229.74        3331.25           6585          35.00       126.85
  229.77        3331.50           6589          30.00       105.06
  229.80        3331.75           6593          25.00        83.26
  229.82        3332.00           6596          34.00       122.49
  229.85        3332.25           6600          33.00       118.13
  229.88        3332.50           6604          37.00       135.57
  229.91        3332.75           6608          25.00        83.26
  229.93        3333.00           6611          30.00       105.06
  229.96        3333.25           6615          31.00       109.42
  229.99        3333.50           6619          34.00       122.49
  230.01        3333.75           6623          31.00       109.42
  230.04        3334.00           6626          36.00       131.21
  230.07        3334.25           6630          32.00       113.78
  230.10        3334.50           6634          29.00       100.70
  230.12        3334.75           6638          35.00       126.85
  230.15        3335.00           6641          35.00       126.85
  230.18        3335.25           6645          38.00       139.93
  230.20        3335.50           6649          42.00       157.37
  230.23        3335.75           6653          60.00       235.83
  230.26        3336.00           6656         138.00       575.86
  230.29        3336.25           6660         485.00      2088.61
  230.31        3336.50           6664        1194.00      5179.91
  230.34        3336.75           6668        2113.00      9187.63
  230.37        3337.00           6671        2619.00     11394.66
  230.39        3337.25           6675        4327.00     18846.48
  230.42        3337.50           6679        6400.00     27894.93
  230.45        3337.75           6683        8499.00     37061.54
  230.48        3338.00           6686       10102.00     44065.23
  230.50        3338.25           6690       12256.00     53480.64
  230.53        3338.50           6694       14320.00     62507.31
  230.56        3338.75           6698       16412.00     71661.09
  230.59        3339.00           6701       17977.00     78511.99
  230.61        3339.25           6705       20181.00     88164.63
  230.64        3339.50           6709       22324.00     97555.12
  230.67        3339.75           6713       24601.00    107538.20
  230.70        3340.00           6716       26299.00    114986.50
  230.72        3340.25           6720       28489.00    124597.40
  230.75        3340.50           6724       30550.00    133647.00
  230.78        3340.75           6728       32612.00    142705.50
  230.80        3341.00           6731       34128.00    149368.40
  230.83        3341.25           6735       35707.00    156310.80
  230.86        3341.50           6739       37094.00    162411.30
  230.89        3341.75           6743       37684.00    165006.90
  230.91        3342.00           6746       37922.00    166054.10
  230.94        3342.25           6750       37439.00    163929.00
  230.97        3342.50           6754       35834.00    156869.30
  231.00        3342.75           6758       33726.00    147601.40
  231.02        3343.00           6761       32337.00    141497.20
  231.05        3343.25           6765       29879.00    130700.20
  231.08        3343.50           6769       28306.00    123794.10
  231.11        3343.75           6773       26048.00    113885.30
  231.13        3344.00           6776       24304.00    106235.80
  231.16        3344.25           6780       22257.00     97261.47
  231.19        3344.50           6784       19981.00     87288.49
  231.22        3344.75           6788       17560.00     76686.29
  231.24        3345.00           6791       15890.00     69376.57
  231.27        3345.25           6795       13514.00     58981.81
  231.30        3345.50           6799       10332.00     45070.36
  231.32        3345.75           6803        7959.00     34702.84
  231.35        3346.00           6806        6338.00     27624.24
  231.38        3346.25           6810        4362.00     18999.21
  231.41        3346.50           6814        2893.00     12589.88
  231.43        3346.75           6818        1795.00      7800.74
  231.46        3347.00           6821        1166.00      5057.82
  231.49        3347.25           6825         372.00      1595.97
  231.52        3347.50           6829          87.00       353.53
  231.54        3347.75           6833          45.00       170.45
  231.57        3348.00           6836          35.00       126.85
  231.60        3348.25           6840          36.00       131.21
  231.62        3348.50           6844          36.00       131.21
  231.65        3348.75           6848          36.00       131.21
  231.68        3349.00           6851          38.00       139.93
  231.70        3349.25           6855          32.00       113.78
  231.73        3349.50           6859          35.00       126.85
  231.76        3349.75           6863          37.00       135.57
  231.79        3350.00           6867          33.00       118.13
  231.81        3350.25           6870          33.00       118.13
  231.84        3350.50           6874          32.00       113.78
  231.87        3350.75           6878          33.00       118.13
  231.89        3351.00           6882          39.00       144.29
HL scan finished at 03:52:31
end
