************************************************************
  HL Scan of (1) Internal mercury lamp
************************************************************
Integration time is 0.2294 seconds per sample
dh060918Tamanrasset 22.79-5.529 4.974364pr865
************************************************************
Dead Time -------------------------  2.8E-08 
Number of Cycles Used -------------  4 
Starting Wavelength (Angstroms) ---  3331 
Final Wavelength (Angstoms) -------  3351 
Wavelength Increment (Angstroms) --  .25 
Filter Wheel #1 Position ---------- (1) Ground quartz diffuser (ND=2.32)
Filter Wheel #2 Position ---------- (0) Clear Aperture



************************************************************
HL scan start time = 03:51:01
Dark Count =  6 


Time (GMT)  Wavelength (Ang)  Step Number  Raw Counts  Counts/Second

  231.53        3331.00           6581          33.00       117.70
  231.75        3331.25           6585          34.00       122.06
  231.77        3331.50           6589          32.00       113.34
  231.80        3331.75           6593          35.00       126.42
  231.83        3332.00           6596          32.00       113.34
  231.85        3332.25           6600          31.00       108.98
  231.88        3332.50           6604          37.00       135.14
  231.91        3332.75           6608          37.00       135.14
  231.94        3333.00           6611          30.00       104.62
  231.96        3333.25           6615          33.00       117.70
  231.99        3333.50           6619          31.00       108.98
  232.02        3333.75           6623          36.00       130.78
  232.04        3334.00           6626          36.00       130.78
  232.07        3334.25           6630          32.00       113.34
  232.10        3334.50           6634          33.00       117.70
  232.13        3334.75           6638          29.00       100.26
  232.15        3335.00           6641          39.00       143.85
  232.18        3335.25           6645          41.00       152.57
  232.21        3335.50           6649          37.00       135.14
  232.23        3335.75           6653          70.00       278.99
  232.26        3336.00           6656         183.00       771.59
  232.29        3336.25           6660         585.00      2524.15
  232.32        3336.50           6664        1339.00      5811.76
  232.34        3336.75           6668        2315.00     10068.23
  232.37        3337.00           6671        2828.00     12305.90
  232.40        3337.25           6675        4715.00     20539.27
  232.42        3337.50           6679        6846.00     29841.84
  232.45        3337.75           6683        9072.00     39564.29
  232.48        3338.00           6686       10806.00     47141.53
  232.51        3338.25           6690       13070.00     57039.59
  232.53        3338.50           6694       15313.00     66851.26
  232.56        3338.75           6698       17520.00     76510.73
  232.59        3339.00           6701       19366.00     84594.21
  232.62        3339.25           6705       21671.00     94692.76
  232.64        3339.50           6709       23952.00    104691.80
  232.67        3339.75           6713       26110.00    114156.80
  232.70        3340.00           6716       27868.00    121871.10
  232.72        3340.25           6720       30139.00    131841.50
  232.75        3340.50           6724       32180.00    140806.90
  232.78        3340.75           6728       34583.00    151368.20
  232.81        3341.00           6731       35840.00    156895.30
  232.83        3341.25           6735       37476.00    164091.40
  232.86        3341.50           6739       39060.00    171061.50
  232.89        3341.75           6743       39919.00    174842.50
  232.92        3342.00           6746       39597.00    173425.10
  232.94        3342.25           6750       39014.00    170859.10
  232.97        3342.50           6754       37296.00    163299.50
  233.00        3342.75           6758       34623.00    151544.00
  233.02        3343.00           6761       33361.00    145996.70
  233.05        3343.25           6765       31421.00    137472.40
  233.08        3343.50           6769       29183.00    127643.70
  233.11        3343.75           6773       27158.00    118755.20
  233.13        3344.00           6776       25236.00    110322.80
  233.16        3344.25           6780       23047.00    100724.00
  233.19        3344.50           6784       20744.00     90630.74
  233.22        3344.75           6788       18289.00     79877.68
  233.24        3345.00           6791       15997.00     69844.40
  233.27        3345.25           6795       13116.00     57240.76
  233.30        3345.50           6799       10340.00     45104.89
  233.32        3345.75           6803        8118.00     35396.88
  233.35        3346.00           6806        6412.00     27946.89
  233.38        3346.25           6810        4309.00     18767.49
  233.41        3346.50           6814        2734.00     11895.86
  233.43        3346.75           6818        1901.00      8262.59
  233.46        3347.00           6821        1163.00      5044.30
  233.49        3347.25           6825         299.00      1277.29
  233.52        3347.50           6829          60.00       235.40
  233.54        3347.75           6833          40.00       148.21
  233.57        3348.00           6836          44.00       165.65
  233.60        3348.25           6840          38.00       139.49
  233.62        3348.50           6844          35.00       126.42
  233.65        3348.75           6848          28.00        95.90
  233.68        3349.00           6851          36.00       130.78
  233.71        3349.25           6855          37.00       135.14
  233.73        3349.50           6859          39.00       143.85
  233.76        3349.75           6863          42.00       156.93
  233.79        3350.00           6867          43.00       161.29
  233.81        3350.25           6870          38.00       139.49
  233.84        3350.50           6874          35.00       126.42
  233.87        3350.75           6878          37.00       135.14
  233.90        3351.00           6882          36.00       130.78
HL scan finished at 03:54:31
end
