************************************************************
  HL Scan of (1) Internal mercury lamp
************************************************************
Integration time is 0.2294 seconds per sample
dh300818Tamanrasset 22.79-5.529 4.974364pr865
************************************************************
Dead Time -------------------------  2.8E-08 
Number of Cycles Used -------------  4 
Starting Wavelength (Angstroms) ---  3331 
Final Wavelength (Angstoms) -------  3351 
Wavelength Increment (Angstroms) --  .25 
Filter Wheel #1 Position ---------- (1) Ground quartz diffuser (ND=2.32)
Filter Wheel #2 Position ---------- (0) Clear Aperture



************************************************************
HL scan start time = 03:48:05
Dark Count =  5.6 


Time (GMT)  Wavelength (Ang)  Step Number  Raw Counts  Counts/Second

  228.60        3331.00           6581          29.00       102.01
  228.82        3331.25           6585          35.00       128.16
  228.85        3331.50           6589          29.00       102.01
  228.87        3331.75           6593          32.00       115.08
  228.90        3332.00           6596          30.00       106.36
  228.93        3332.25           6600          30.00       106.36
  228.96        3332.50           6604          31.00       110.72
  228.98        3332.75           6608          32.00       115.08
  229.01        3333.00           6611          32.00       115.08
  229.04        3333.25           6615          28.00        97.65
  229.07        3333.50           6619          29.00       102.01
  229.09        3333.75           6623          29.00       102.01
  229.12        3334.00           6626          36.00       132.52
  229.15        3334.25           6630          36.00       132.52
  229.17        3334.50           6634          33.00       119.44
  229.20        3334.75           6638          32.00       115.08
  229.23        3335.00           6641          34.00       123.80
  229.26        3335.25           6645          32.00       115.08
  229.28        3335.50           6649          37.00       136.88
  229.31        3335.75           6653          60.00       237.14
  229.34        3336.00           6656         122.00       507.42
  229.37        3336.25           6660         396.00      1701.91
  229.39        3336.50           6664        1030.00      4466.12
  229.42        3336.75           6668        1813.00      7880.55
  229.45        3337.00           6671        2343.00     10192.10
  229.48        3337.25           6675        3920.00     17071.80
  229.50        3337.50           6679        5737.00     25001.81
  229.53        3337.75           6683        7648.00     33345.86
  229.56        3338.00           6686        9175.00     40016.04
  229.58        3338.25           6690       11124.00     48533.22
  229.61        3338.50           6694       13104.00     57190.03
  229.64        3338.75           6698       15095.00     65899.18
  229.67        3339.00           6701       16530.00     72178.86
  229.69        3339.25           6705       18566.00     81092.38
  229.72        3339.50           6709       20583.00     89927.11
  229.75        3339.75           6713       22761.00     99471.97
  229.78        3340.00           6716       24017.00    104978.60
  229.80        3340.25           6720       26044.00    113869.00
  229.83        3340.50           6724       28102.00    122900.00
  229.86        3340.75           6728       30023.00    131333.90
  229.89        3341.00           6731       31279.00    136850.30
  229.91        3341.25           6735       32994.00    144385.50
  229.94        3341.50           6739       34095.00    149224.60
  229.97        3341.75           6743       34914.00    152825.20
  230.00        3342.00           6746       34710.00    151928.30
  230.02        3342.25           6750       34306.00    150152.20
  230.05        3342.50           6754       32998.00    144403.10
  230.08        3342.75           6758       30876.00    135080.10
  230.11        3343.00           6761       29500.00    129037.30
  230.13        3343.25           6765       27360.00    119643.40
  230.16        3343.50           6769       25787.00    112741.60
  230.19        3343.75           6773       23718.00    103667.50
  230.22        3344.00           6776       22262.00     97284.69
  230.24        3344.25           6780       20274.00     88573.36
  230.27        3344.50           6784       18288.00     79875.04
  230.30        3344.75           6788       16297.00     71159.08
  230.33        3345.00           6791       14655.00     63974.14
  230.35        3345.25           6795       12517.00     54623.15
  230.38        3345.50           6799        9435.00     41152.01
  230.41        3345.75           6803        7092.00     30917.77
  230.44        3346.00           6806        5781.00     25193.88
  230.46        3346.25           6810        3920.00     17071.80
  230.49        3346.50           6814        2709.00     11788.55
  230.52        3346.75           6818        1534.00      6663.84
  230.55        3347.00           6821         920.00      3986.50
  230.57        3347.25           6825         331.00      1418.54
  230.60        3347.50           6829          70.00       280.73
  230.63        3347.75           6833          34.00       123.80
  230.66        3348.00           6836          37.00       136.88
  230.68        3348.25           6840          35.00       128.16
  230.71        3348.50           6844          39.00       145.60
  230.74        3348.75           6848          35.00       128.16
  230.76        3349.00           6851          30.00       106.36
  230.79        3349.25           6855          34.00       123.80
  230.82        3349.50           6859          35.00       128.16
  230.85        3349.75           6863          36.00       132.52
  230.87        3350.00           6867          34.00       123.80
  230.90        3350.25           6870          37.00       136.88
  230.93        3350.50           6874          39.00       145.60
  230.96        3350.75           6878          37.00       136.88
  230.98        3351.00           6882          34.00       123.80
HL scan finished at 03:51:36
end
