************************************************************
  HL Scan of (1) Internal mercury lamp
************************************************************
Integration time is 0.2294 seconds per sample
dh300817Tamanrasset 22.79-5.529 3.327609pr865
************************************************************
Dead Time -------------------------  2.8E-08 
Number of Cycles Used -------------  4 
Starting Wavelength (Angstroms) ---  3331 
Final Wavelength (Angstoms) -------  3351 
Wavelength Increment (Angstroms) --  .25 
Filter Wheel #1 Position ---------- (1) Ground quartz diffuser (ND=2.32)
Filter Wheel #2 Position ---------- (0) Clear Aperture



************************************************************
HL scan start time = 03:48:13
Dark Count =  5.5 


Time (GMT)  Wavelength (Ang)  Step Number  Raw Counts  Counts/Second

  228.73        3331.00           6581          27.00        93.72
  228.95        3331.25           6585          37.00       137.32
  228.97        3331.50           6589          28.00        98.08
  229.00        3331.75           6593          33.00       119.88
  229.03        3332.00           6596          29.00       102.44
  229.05        3332.25           6600          34.00       124.24
  229.08        3332.50           6604          26.00        89.36
  229.11        3332.75           6608          28.00        98.08
  229.14        3333.00           6611          34.00       124.24
  229.16        3333.25           6615          30.00       106.80
  229.19        3333.50           6619          34.00       124.24
  229.22        3333.75           6623          34.00       124.24
  229.25        3334.00           6626          30.00       106.80
  229.27        3334.25           6630          29.00       102.44
  229.30        3334.50           6634          38.00       141.67
  229.33        3334.75           6638          30.00       106.80
  229.35        3335.00           6641          40.00       150.39
  229.38        3335.25           6645          44.00       167.83
  229.41        3335.50           6649          43.00       163.47
  229.44        3335.75           6653          54.00       211.42
  229.46        3336.00           6656         132.00       551.45
  229.49        3336.25           6660         424.00      1824.42
  229.52        3336.50           6664         954.00      4135.18
  229.54        3336.75           6668        1707.00      7418.72
  229.57        3337.00           6671        2295.00      9983.17
  229.60        3337.25           6675        4171.00     18167.48
  229.63        3337.50           6679        6237.00     27185.03
  229.65        3337.75           6683        8338.00     36360.02
  229.68        3338.00           6686       10075.00     43948.99
  229.71        3338.25           6690       12098.00     52791.58
  229.74        3338.50           6694       14362.00     62692.78
  229.76        3338.75           6698       16526.00     72161.80
  229.79        3339.00           6701       18248.00     79700.34
  229.82        3339.25           6705       20508.00     89598.97
  229.85        3339.50           6709       22675.00     99095.41
  229.87        3339.75           6713       25028.00    109412.70
  229.90        3340.00           6716       26505.00    115892.00
  229.93        3340.25           6720       28881.00    126320.00
  229.95        3340.50           6724       30973.00    135506.60
  229.98        3340.75           6728       32988.00    144359.60
  230.01        3341.00           6731       34628.00    151568.20
  230.04        3341.25           6735       36384.00    159290.00
  230.06        3341.50           6739       37777.00    165417.90
  230.09        3341.75           6743       38186.00    167217.50
  230.12        3342.00           6746       38419.00    168242.70
  230.15        3342.25           6750       37862.00    165791.90
  230.17        3342.50           6754       36283.00    158845.70
  230.20        3342.75           6758       34073.00    149128.40
  230.23        3343.00           6761       32459.00    142035.00
  230.25        3343.25           6765       30600.00    133868.30
  230.28        3343.50           6769       28457.00    124458.70
  230.31        3343.75           6773       26277.00    114891.70
  230.34        3344.00           6776       24682.00    107895.20
  230.36        3344.25           6780       22418.00     97968.90
  230.39        3344.50           6784       20214.00     88310.94
  230.42        3344.75           6788       17982.00     78535.63
  230.45        3345.00           6791       16036.00     70017.26
  230.47        3345.25           6795       13223.00     57710.88
  230.50        3345.50           6799       10133.00     44202.46
  230.53        3345.75           6803        7992.00     34848.72
  230.56        3346.00           6806        6326.00     27573.59
  230.58        3346.25           6810        4344.00     18922.40
  230.61        3346.50           6814        3168.00     13791.29
  230.64        3346.75           6818        2012.00      8748.87
  230.66        3347.00           6821        1217.00      5281.95
  230.69        3347.25           6825         363.00      1558.48
  230.72        3347.50           6829          74.00       298.61
  230.75        3347.75           6833          48.00       185.27
  230.77        3348.00           6836          41.00       154.75
  230.80        3348.25           6840          33.00       119.88
  230.83        3348.50           6844          32.00       115.52
  230.85        3348.75           6848          32.00       115.52
  230.88        3349.00           6851          38.00       141.67
  230.91        3349.25           6855          33.00       119.88
  230.94        3349.50           6859          37.00       137.32
  230.96        3349.75           6863          35.00       128.60
  230.99        3350.00           6867          35.00       128.60
  231.02        3350.25           6870          39.00       146.03
  231.04        3350.50           6874          41.00       154.75
  231.07        3350.75           6878          34.00       124.24
  231.10        3351.00           6882          30.00       106.80
HL scan finished at 03:51:43
end
