************************************************************
  HL Scan of (1) Internal mercury lamp
************************************************************
Integration time is 0.2294 seconds per sample
dh040917Tamanrasset 22.79-5.529 3.256233pr865
************************************************************
Dead Time -------------------------  2.8E-08 
Number of Cycles Used -------------  4 
Starting Wavelength (Angstroms) ---  3331 
Final Wavelength (Angstoms) -------  3351 
Wavelength Increment (Angstroms) --  .25 
Filter Wheel #1 Position ---------- (1) Ground quartz diffuser (ND=2.32)
Filter Wheel #2 Position ---------- (0) Clear Aperture



************************************************************
HL scan start time = 03:49:59
Dark Count =  6.3 


Time (GMT)  Wavelength (Ang)  Step Number  Raw Counts  Counts/Second

  230.49        3331.00           6581          30.00       103.31
  230.71        3331.25           6585          37.00       133.83
  230.74        3331.50           6589          36.00       129.47
  230.77        3331.75           6593          35.00       125.11
  230.79        3332.00           6596          28.00        94.59
  230.82        3332.25           6600          35.00       125.11
  230.85        3332.50           6604          26.00        85.88
  230.87        3332.75           6608          32.00       112.03
  230.90        3333.00           6611          31.00       107.67
  230.93        3333.25           6615          36.00       129.47
  230.96        3333.50           6619          36.00       129.47
  230.98        3333.75           6623          31.00       107.67
  231.01        3334.00           6626          30.00       103.31
  231.04        3334.25           6630          31.00       107.67
  231.06        3334.50           6634          30.00       103.31
  231.09        3334.75           6638          31.00       107.67
  231.12        3335.00           6641          31.00       107.67
  231.15        3335.25           6645          40.00       146.91
  231.17        3335.50           6649          47.00       177.42
  231.20        3335.75           6653          53.00       203.58
  231.23        3336.00           6656         109.00       447.70
  231.25        3336.25           6660         373.00      1598.59
  231.28        3336.50           6664         975.00      4223.26
  231.31        3336.75           6668        1704.00      7402.14
  231.34        3337.00           6671        2127.00      9246.94
  231.36        3337.25           6675        3851.00     16767.68
  231.39        3337.50           6679        5801.00     25278.13
  231.42        3337.75           6683        7828.00     34128.94
  231.45        3338.00           6686        9386.00     40934.86
  231.47        3338.25           6690       11424.00     49841.53
  231.50        3338.50           6694       13498.00     58910.08
  231.53        3338.75           6698       15607.00     68136.41
  231.55        3339.00           6701       17188.00     75056.00
  231.58        3339.25           6705       19180.00     83778.25
  231.61        3339.50           6709       21278.00     92969.24
  231.64        3339.75           6713       23432.00    102410.50
  231.66        3340.00           6716       25150.00    109944.30
  231.69        3340.25           6720       27302.00    119385.80
  231.72        3340.50           6724       29330.00    128287.80
  231.75        3340.75           6728       31342.00    137124.00
  231.77        3341.00           6731       32771.00    143402.50
  231.80        3341.25           6735       34450.00    150782.20
  231.83        3341.50           6739       35666.00    156128.70
  231.86        3341.75           6743       36477.00    159695.50
  231.88        3342.00           6746       36437.00    159519.50
  231.91        3342.25           6750       36095.00    158015.40
  231.94        3342.50           6754       34940.00    152936.40
  231.96        3342.75           6758       32599.00    142646.60
  231.99        3343.00           6761       31306.00    136965.90
  232.02        3343.25           6765       29287.00    128099.00
  232.05        3343.50           6769       27373.00    119697.40
  232.07        3343.75           6773       25466.00    111330.40
  232.10        3344.00           6776       23773.00    103905.60
  232.13        3344.25           6780       21813.00     95313.75
  232.16        3344.50           6784       19727.00     86174.10
  232.18        3344.75           6788       17253.00     75340.54
  232.21        3345.00           6791       15625.00     68215.18
  232.24        3345.25           6795       13326.00     58157.84
  232.27        3345.50           6799       10185.00     44426.20
  232.29        3345.75           6803        7984.00     34810.29
  232.32        3346.00           6806        6370.00     27762.20
  232.35        3346.25           6810        4459.00     19420.76
  232.37        3346.50           6814        3274.00     14250.24
  232.40        3346.75           6818        1961.00      8522.96
  232.43        3347.00           6821        1336.00      5797.37
  232.46        3347.25           6825         451.00      1938.64
  232.48        3347.50           6829          99.00       404.10
  232.51        3347.75           6833          37.00       133.83
  232.54        3348.00           6836          36.00       129.47
  232.57        3348.25           6840          38.00       138.19
  232.59        3348.50           6844          41.00       151.26
  232.62        3348.75           6848          30.00       103.31
  232.65        3349.00           6851          29.00        98.95
  232.67        3349.25           6855          36.00       129.47
  232.70        3349.50           6859          38.00       138.19
  232.73        3349.75           6863          34.00       120.75
  232.75        3350.00           6867          32.00       112.03
  232.78        3350.25           6870          36.00       129.47
  232.81        3350.50           6874          32.00       112.03
  232.84        3350.75           6878          38.00       138.19
  232.86        3351.00           6882          38.00       138.19
HL scan finished at 03:53:29
end
