************************************************************
  HL Scan of (1) Internal mercury lamp
************************************************************
Integration time is 0.2294 seconds per sample
dh040918Tamanrasset 22.79-5.529 4.974364pr865
************************************************************
Dead Time -------------------------  2.8E-08 
Number of Cycles Used -------------  4 
Starting Wavelength (Angstroms) ---  3331 
Final Wavelength (Angstoms) -------  3351 
Wavelength Increment (Angstroms) --  .25 
Filter Wheel #1 Position ---------- (1) Ground quartz diffuser (ND=2.32)
Filter Wheel #2 Position ---------- (0) Clear Aperture



************************************************************
HL scan start time = 03:50:43
Dark Count =  5.8 


Time (GMT)  Wavelength (Ang)  Step Number  Raw Counts  Counts/Second

  231.22        3331.00           6581          38.00       140.37
  231.44        3331.25           6585          33.00       118.57
  231.47        3331.50           6589          34.00       122.93
  231.49        3331.75           6593          35.00       127.29
  231.52        3332.00           6596          31.00       109.85
  231.55        3332.25           6600          32.00       114.21
  231.58        3332.50           6604          36.00       131.65
  231.60        3332.75           6608          35.00       127.29
  231.63        3333.00           6611          37.00       136.01
  231.66        3333.25           6615          32.00       114.21
  231.68        3333.50           6619          36.00       131.65
  231.71        3333.75           6623          33.00       118.57
  231.74        3334.00           6626          33.00       118.57
  231.77        3334.25           6630          34.00       122.93
  231.79        3334.50           6634          38.00       140.37
  231.82        3334.75           6638          33.00       118.57
  231.85        3335.00           6641          37.00       136.01
  231.87        3335.25           6645          40.00       149.09
  231.90        3335.50           6649          46.00       175.24
  231.93        3335.75           6653          64.00       253.71
  231.96        3336.00           6656         164.00       689.64
  231.98        3336.25           6660         506.00      2180.60
  232.01        3336.50           6664        1281.00      5559.71
  232.04        3336.75           6668        2667.00     11604.47
  232.07        3337.00           6671        3157.00     13741.99
  232.09        3337.25           6675        4737.00     20636.16
  232.12        3337.50           6679        6935.00     30231.34
  232.15        3337.75           6683        9255.00     40364.69
  232.17        3338.00           6686       10936.00     47710.60
  232.20        3338.25           6690       13157.00     57420.94
  232.23        3338.50           6694       15585.00     68042.33
  232.26        3338.75           6698       17698.00     77290.88
  232.28        3339.00           6701       19513.00     85238.94
  232.31        3339.25           6705       21693.00     94790.05
  232.34        3339.50           6709       24248.00    105990.60
  232.36        3339.75           6713       26597.00    116294.40
  232.39        3340.00           6716       28184.00    123259.00
  232.42        3340.25           6720       30496.00    133410.20
  232.45        3340.50           6724       32966.00    144261.60
  232.47        3340.75           6728       35297.00    154508.30
  232.50        3341.00           6731       36451.00    159583.30
  232.53        3341.25           6735       38566.00    168888.30
  232.56        3341.50           6739       39820.00    174407.60
  232.58        3341.75           6743       40457.00    177211.90
  232.61        3342.00           6746       40492.00    177366.00
  232.64        3342.25           6750       39903.00    174773.00
  232.67        3342.50           6754       38261.00    167546.20
  232.69        3342.75           6758       35629.00    155968.20
  232.72        3343.00           6761       33925.00    148476.50
  232.75        3343.25           6765       31621.00    138351.80
  232.77        3343.50           6769       29722.00    130011.20
  232.80        3343.75           6773       27584.00    120625.60
  232.83        3344.00           6776       25771.00    112670.50
  232.86        3344.25           6780       23429.00    102399.50
  232.88        3344.50           6784       20965.00     91599.94
  232.91        3344.75           6788       18819.00     82199.43
  232.94        3345.00           6791       16867.00     73653.05
  232.97        3345.25           6795       13996.00     61090.46
  232.99        3345.50           6799       10495.00     45783.15
  233.02        3345.75           6803        8250.00     35974.32
  233.05        3346.00           6806        6519.00     28414.93
  233.07        3346.25           6810        4425.00     19274.57
  233.10        3346.50           6814        2880.00     12533.61
  233.13        3346.75           6818        1617.00      7024.92
  233.16        3347.00           6821        1049.00      4548.09
  233.18        3347.25           6825         341.00      1461.26
  233.21        3347.50           6829          76.00       306.02
  233.24        3347.75           6833          44.00       166.52
  233.27        3348.00           6836          43.00       162.16
  233.29        3348.25           6840          37.00       136.01
  233.32        3348.50           6844          31.00       109.85
  233.35        3348.75           6848          44.00       166.52
  233.37        3349.00           6851          36.00       131.65
  233.40        3349.25           6855          31.00       109.85
  233.43        3349.50           6859          41.00       153.44
  233.46        3349.75           6863          38.00       140.37
  233.48        3350.00           6867          32.00       114.21
  233.51        3350.25           6870          38.00       140.37
  233.54        3350.50           6874          43.00       162.16
  233.56        3350.75           6878          39.00       144.73
  233.59        3351.00           6882          40.00       149.09
HL scan finished at 03:54:13
end
