************************************************************
  HL Scan of (1) Internal mercury lamp
************************************************************
Integration time is 0.2294 seconds per sample
dh030917Tamanrasset 22.79-5.529 3.195053pr865
************************************************************
Dead Time -------------------------  2.8E-08 
Number of Cycles Used -------------  4 
Starting Wavelength (Angstroms) ---  3331 
Final Wavelength (Angstoms) -------  3351 
Wavelength Increment (Angstroms) --  .25 
Filter Wheel #1 Position ---------- (1) Ground quartz diffuser (ND=2.32)
Filter Wheel #2 Position ---------- (0) Clear Aperture



************************************************************
HL scan start time = 03:50:41
Dark Count =  4.9 


Time (GMT)  Wavelength (Ang)  Step Number  Raw Counts  Counts/Second

  231.20        3331.00           6581          28.00       100.70
  231.42        3331.25           6585          30.00       109.42
  231.45        3331.50           6589          33.00       122.49
  231.47        3331.75           6593          28.00       100.70
  231.50        3332.00           6596          31.00       113.78
  231.53        3332.25           6600          34.00       126.85
  231.55        3332.50           6604          30.00       109.42
  231.58        3332.75           6608          29.00       105.06
  231.61        3333.00           6611          32.00       118.13
  231.63        3333.25           6615          33.00       122.49
  231.66        3333.50           6619          33.00       122.49
  231.69        3333.75           6623          34.00       126.85
  231.72        3334.00           6626          28.00       100.70
  231.74        3334.25           6630          34.00       126.85
  231.77        3334.50           6634          28.00       100.70
  231.80        3334.75           6638          33.00       122.49
  231.83        3335.00           6641          38.00       144.29
  231.85        3335.25           6645          36.00       135.57
  231.88        3335.50           6649          40.00       153.01
  231.91        3335.75           6653          65.00       261.99
  231.93        3336.00           6656         159.00       671.77
  231.96        3336.25           6660         470.00      2027.58
  231.99        3336.50           6664         990.00      4294.76
  232.02        3336.75           6668        1717.00      7464.94
  232.04        3337.00           6671        2512.00     10932.29
  232.07        3337.25           6675        4204.00     18314.10
  232.10        3337.50           6679        6145.00     26786.00
  232.12        3337.75           6683        8010.00     34929.96
  232.15        3338.00           6686        9380.00     40914.76
  232.18        3338.25           6690       11485.00     50114.30
  232.21        3338.50           6694       13306.00     58076.49
  232.23        3338.75           6698       15271.00     66672.31
  232.26        3339.00           6701       16816.00     73433.75
  232.29        3339.25           6705       18792.00     82085.13
  232.32        3339.50           6709       20928.00     91441.76
  232.34        3339.75           6713       23093.00    100930.40
  232.37        3340.00           6716       24519.00    107183.00
  232.40        3340.25           6720       26251.00    114780.20
  232.42        3340.50           6724       28573.00    124970.50
  232.45        3340.75           6728       30149.00    131890.30
  232.48        3341.00           6731       31528.00    137947.20
  232.51        3341.25           6735       33073.00    144735.80
  232.53        3341.50           6739       34030.00    148942.00
  232.56        3341.75           6743       34627.00    151566.50
  232.59        3342.00           6746       34733.00    152032.50
  232.62        3342.25           6750       34194.00    149662.90
  232.64        3342.50           6754       32278.00    141242.30
  232.67        3342.75           6758       30493.00    133401.00
  232.70        3343.00           6761       29156.00    127530.00
  232.73        3343.25           6765       27330.00    119514.80
  232.75        3343.50           6769       25536.00    111643.60
  232.78        3343.75           6773       23772.00    103907.40
  232.81        3344.00           6776       22202.00     97024.78
  232.83        3344.25           6780       20097.00     87801.02
  232.86        3344.50           6784       18070.00     78923.56
  232.89        3344.75           6788       15982.00     69783.56
  232.92        3345.00           6791       14178.00     61890.51
  232.94        3345.25           6795       11902.00     51937.29
  232.97        3345.50           6799        9353.00     40796.80
  233.00        3345.75           6803        7183.00     31318.21
  233.03        3346.00           6806        5580.00     24319.52
  233.05        3346.25           6810        3774.00     16437.82
  233.08        3346.50           6814        2764.00     12031.52
  233.11        3346.75           6818        1863.00      8101.66
  233.13        3347.00           6821        1055.00      4578.18
  233.16        3347.25           6825         309.00      1325.68
  233.19        3347.50           6829          72.00       292.50
  233.22        3347.75           6833          44.00       170.45
  233.24        3348.00           6836          39.00       148.65
  233.27        3348.25           6840          38.00       144.29
  233.30        3348.50           6844          33.00       122.49
  233.32        3348.75           6848          40.00       153.01
  233.35        3349.00           6851          29.00       105.06
  233.38        3349.25           6855          29.00       105.06
  233.41        3349.50           6859          34.00       126.85
  233.43        3349.75           6863          36.00       135.57
  233.46        3350.00           6867          31.00       113.78
  233.49        3350.25           6870          37.00       139.93
  233.51        3350.50           6874          38.00       144.29
  233.54        3350.75           6878          34.00       126.85
  233.57        3351.00           6882          37.00       139.93
HL scan finished at 03:54:11
end
