************************************************************
  HL Scan of (1) Internal mercury lamp
************************************************************
Integration time is 0.2294 seconds per sample
dh030918Tamanrasset 22.79-5.529 4.974364pr865
************************************************************
Dead Time -------------------------  2.8E-08 
Number of Cycles Used -------------  4 
Starting Wavelength (Angstroms) ---  3331 
Final Wavelength (Angstoms) -------  3351 
Wavelength Increment (Angstroms) --  .25 
Filter Wheel #1 Position ---------- (1) Ground quartz diffuser (ND=2.32)
Filter Wheel #2 Position ---------- (0) Clear Aperture



************************************************************
HL scan start time = 03:50:03
Dark Count =  6.5 


Time (GMT)  Wavelength (Ang)  Step Number  Raw Counts  Counts/Second

  230.56        3331.00           6581          35.00       124.24
  230.78        3331.25           6585          33.00       115.52
  230.80        3331.50           6589          35.00       124.24
  230.83        3331.75           6593          29.00        98.08
  230.86        3332.00           6596          35.00       124.24
  230.89        3332.25           6600          27.00        89.36
  230.91        3332.50           6604          36.00       128.60
  230.94        3332.75           6608          30.00       102.44
  230.97        3333.00           6611          36.00       128.60
  230.99        3333.25           6615          31.00       106.80
  231.02        3333.50           6619          33.00       115.52
  231.05        3333.75           6623          27.00        89.36
  231.08        3334.00           6626          30.00       102.44
  231.10        3334.25           6630          32.00       111.16
  231.13        3334.50           6634          33.00       115.52
  231.16        3334.75           6638          34.00       119.88
  231.18        3335.00           6641          38.00       137.32
  231.21        3335.25           6645          35.00       124.24
  231.24        3335.50           6649          39.00       141.67
  231.27        3335.75           6653          62.00       241.94
  231.29        3336.00           6656         149.00       621.20
  231.32        3336.25           6660         468.00      2011.88
  231.35        3336.50           6664         976.00      4226.74
  231.37        3336.75           6668        1784.00      7750.16
  231.40        3337.00           6671        2380.00     10349.56
  231.43        3337.25           6675        4069.00     17718.03
  231.46        3337.50           6679        6008.00     26180.91
  231.48        3337.75           6683        8070.00     35185.04
  231.51        3338.00           6686        9577.00     41768.52
  231.54        3338.25           6690       11747.00     51252.67
  231.57        3338.50           6694       13578.00     59259.10
  231.59        3338.75           6698       15741.00     68721.91
  231.62        3339.00           6701       17260.00     75370.31
  231.65        3339.25           6705       19488.00     85126.38
  231.67        3339.50           6709       21575.00     94269.86
  231.70        3339.75           6713       23640.00    103321.60
  231.73        3340.00           6716       25218.00    110241.70
  231.76        3340.25           6720       27262.00    119209.40
  231.78        3340.50           6724       29318.00    128234.20
  231.81        3340.75           6728       31361.00    137206.60
  231.84        3341.00           6731       32635.00    142804.00
  231.87        3341.25           6735       34424.00    150667.00
  231.89        3341.50           6739       35537.00    155560.60
  231.92        3341.75           6743       36357.00    159166.80
  231.95        3342.00           6746       36172.00    158353.20
  231.98        3342.25           6750       35754.00    156514.90
  232.00        3342.50           6754       33855.00    148165.70
  232.03        3342.75           6758       31910.00    139618.40
  232.06        3343.00           6761       30406.00    133011.90
  232.08        3343.25           6765       28897.00    126385.90
  232.11        3343.50           6769       26764.00    117024.10
  232.14        3343.75           6773       24840.00    108583.80
  232.17        3344.00           6776       23045.00    100713.00
  232.19        3344.25           6780       20932.00     91452.28
  232.22        3344.50           6784       19058.00     83243.06
  232.25        3344.75           6788       16710.00     72962.78
  232.28        3345.00           6791       14851.00     64827.69
  232.30        3345.25           6795       12356.00     53915.24
  232.33        3345.50           6799        9523.00     41532.58
  232.36        3345.75           6803        7461.00     32525.25
  232.38        3346.00           6806        5880.00     25622.13
  232.41        3346.25           6810        4000.00     17416.95
  232.44        3346.50           6814        2877.00     12517.47
  232.47        3346.75           6818        1781.00      7737.07
  232.49        3347.00           6821        1070.00      4636.61
  232.52        3347.25           6825         320.00      1366.66
  232.55        3347.50           6829          70.00       276.81
  232.58        3347.75           6833          46.00       172.19
  232.60        3348.00           6836          33.00       115.52
  232.63        3348.25           6840          36.00       128.60
  232.66        3348.50           6844          34.00       119.88
  232.68        3348.75           6848          36.00       128.60
  232.71        3349.00           6851          33.00       115.52
  232.74        3349.25           6855          36.00       128.60
  232.77        3349.50           6859          33.00       115.52
  232.79        3349.75           6863          35.00       124.24
  232.82        3350.00           6867          34.00       119.88
  232.85        3350.25           6870          41.00       150.39
  232.87        3350.50           6874          38.00       137.32
  232.90        3350.75           6878          36.00       128.60
  232.93        3351.00           6882          33.00       115.52
HL scan finished at 03:53:33
end
