************************************************************
  HL Scan of (1) Internal mercury lamp
************************************************************
Integration time is 0.2294 seconds per sample
dh020917Tamanrasset 22.79-5.529 3.276626pr865
************************************************************
Dead Time -------------------------  2.8E-08 
Number of Cycles Used -------------  4 
Starting Wavelength (Angstroms) ---  3331 
Final Wavelength (Angstoms) -------  3351 
Wavelength Increment (Angstroms) --  .25 
Filter Wheel #1 Position ---------- (1) Ground quartz diffuser (ND=2.32)
Filter Wheel #2 Position ---------- (0) Clear Aperture



************************************************************
HL scan start time = 03:49:40
Dark Count =  5.4 


Time (GMT)  Wavelength (Ang)  Step Number  Raw Counts  Counts/Second

  230.18        3331.00           6581          33.00       120.31
  230.40        3331.25           6585          32.00       115.96
  230.42        3331.50           6589          30.00       107.24
  230.45        3331.75           6593          30.00       107.24
  230.48        3332.00           6596          30.00       107.24
  230.50        3332.25           6600          34.00       124.67
  230.53        3332.50           6604          25.00        85.44
  230.56        3332.75           6608          31.00       111.60
  230.59        3333.00           6611          31.00       111.60
  230.61        3333.25           6615          35.00       129.03
  230.64        3333.50           6619          30.00       107.24
  230.67        3333.75           6623          31.00       111.60
  230.69        3334.00           6626          32.00       115.96
  230.72        3334.25           6630          30.00       107.24
  230.75        3334.50           6634          31.00       111.60
  230.78        3334.75           6638          29.00       102.88
  230.80        3335.00           6641          31.00       111.60
  230.83        3335.25           6645          36.00       133.39
  230.86        3335.50           6649          44.00       168.27
  230.89        3335.75           6653          50.00       194.42
  230.91        3336.00           6656         127.00       530.09
  230.94        3336.25           6660         413.00      1776.90
  230.97        3336.50           6664         982.00      4257.70
  230.99        3336.75           6668        1873.00      8143.09
  231.02        3337.00           6671        2331.00     10140.63
  231.05        3337.25           6675        4033.00     17565.74
  231.08        3337.50           6679        6074.00     26473.85
  231.10        3337.75           6683        8122.00     35416.97
  231.13        3338.00           6686        9652.00     42101.04
  231.16        3338.25           6690       11747.00     51257.47
  231.19        3338.50           6694       13815.00     60300.50
  231.21        3338.75           6698       16039.00     70030.82
  231.24        3339.00           6701       17498.00     76417.03
  231.27        3339.25           6705       19773.00     86379.55
  231.29        3339.50           6709       21900.00     95698.99
  231.32        3339.75           6713       24013.00    104961.90
  231.35        3340.00           6716       25514.00    111544.90
  231.38        3340.25           6720       27558.00    120513.20
  231.40        3340.50           6724       29728.00    130039.30
  231.43        3340.75           6728       32011.00    140067.00
  231.46        3341.00           6731       33111.00    144900.60
  231.49        3341.25           6735       34840.00    152500.70
  231.51        3341.50           6739       36249.00    158696.60
  231.54        3341.75           6743       37001.00    162004.40
  231.57        3342.00           6746       37096.00    162422.30
  231.60        3342.25           6750       36355.00    159162.90
  231.62        3342.50           6754       34803.00    152338.10
  231.65        3342.75           6758       32494.00    142189.20
  231.68        3343.00           6761       31052.00    135854.10
  231.70        3343.25           6765       29389.00    128550.80
  231.73        3343.50           6769       27252.00    119170.30
  231.76        3343.75           6773       25291.00    110566.70
  231.79        3344.00           6776       23490.00    102668.80
  231.81        3344.25           6780       21529.00     94073.09
  231.84        3344.50           6784       19425.00     84855.26
  231.87        3344.75           6788       17089.00     74626.57
  231.90        3345.00           6791       14962.00     65318.14
  231.92        3345.25           6795       12376.00     54007.51
  231.95        3345.50           6799        9788.00     42695.30
  231.98        3345.75           6803        7744.00     33766.00
  232.01        3346.00           6806        6107.00     26617.92
  232.03        3346.25           6810        4168.00     18154.82
  232.06        3346.50           6814        2711.00     11798.15
  232.09        3346.75           6818        1971.00      8570.50
  232.11        3347.00           6821        1163.00      5046.92
  232.14        3347.25           6825         380.00      1633.03
  232.17        3347.50           6829          75.00       303.40
  232.20        3347.75           6833          44.00       168.27
  232.22        3348.00           6836          43.00       163.91
  232.25        3348.25           6840          34.00       124.67
  232.28        3348.50           6844          37.00       137.75
  232.30        3348.75           6848          31.00       111.60
  232.33        3349.00           6851          32.00       115.96
  232.36        3349.25           6855          40.00       150.83
  232.39        3349.50           6859          40.00       150.83
  232.41        3349.75           6863          40.00       150.83
  232.44        3350.00           6867          35.00       129.03
  232.47        3350.25           6870          36.00       133.39
  232.49        3350.50           6874          32.00       115.96
  232.52        3350.75           6878          35.00       129.03
  232.55        3351.00           6882          40.00       150.83
HL scan finished at 03:53:10
end
