************************************************************
  HL Scan of (1) Internal mercury lamp
************************************************************
Integration time is 0.2294 seconds per sample
dh060917Tamanrasset 22.79-5.529 3.062497pr865
************************************************************
Dead Time -------------------------  2.8E-08 
Number of Cycles Used -------------  4 
Starting Wavelength (Angstroms) ---  3331 
Final Wavelength (Angstoms) -------  3351 
Wavelength Increment (Angstroms) --  .25 
Filter Wheel #1 Position ---------- (1) Ground quartz diffuser (ND=2.32)
Filter Wheel #2 Position ---------- (0) Clear Aperture



************************************************************
HL scan start time = 03:51:39
Dark Count =  5.5 


Time (GMT)  Wavelength (Ang)  Step Number  Raw Counts  Counts/Second

  232.15        3331.00           6581          33.00       119.88
  232.37        3331.25           6585          30.00       106.80
  232.40        3331.50           6589          32.00       115.52
  232.43        3331.75           6593          28.00        98.08
  232.45        3332.00           6596          37.00       137.32
  232.48        3332.25           6600          31.00       111.16
  232.51        3332.50           6604          34.00       124.24
  232.54        3332.75           6608          31.00       111.16
  232.56        3333.00           6611          25.00        85.00
  232.59        3333.25           6615          33.00       119.88
  232.62        3333.50           6619          31.00       111.16
  232.64        3333.75           6623          30.00       106.80
  232.67        3334.00           6626          30.00       106.80
  232.70        3334.25           6630          28.00        98.08
  232.73        3334.50           6634          27.00        93.72
  232.75        3334.75           6638          31.00       111.16
  232.78        3335.00           6641          34.00       124.24
  232.81        3335.25           6645          35.00       128.60
  232.83        3335.50           6649          39.00       146.03
  232.86        3335.75           6653          35.00       128.60
  232.89        3336.00           6656          67.00       268.09
  232.92        3336.25           6660         237.00      1009.18
  232.94        3336.50           6664         699.00      3023.36
  232.97        3336.75           6668        1243.00      5395.32
  233.00        3337.00           6671        1710.00      7431.80
  233.02        3337.25           6675        3123.00     13594.98
  233.05        3337.50           6679        4791.00     20873.14
  233.08        3337.75           6683        6528.00     28455.53
  233.11        3338.00           6686        7892.00     34411.96
  233.13        3338.25           6690        9682.00     42231.69
  233.16        3338.50           6694       11510.00     50220.97
  233.19        3338.75           6698       13303.00     58060.75
  233.22        3339.00           6701       14679.00     64079.57
  233.24        3339.25           6705       16440.00     71785.38
  233.27        3339.50           6709       18084.00     78982.24
  233.30        3339.75           6713       20016.00     87443.57
  233.32        3340.00           6716       21431.00     93643.21
  233.35        3340.25           6720       23159.00    101217.10
  233.38        3340.50           6724       25023.00    109390.80
  233.41        3340.75           6728       26859.00    117445.30
  233.43        3341.00           6731       28109.00    122931.10
  233.46        3341.25           6735       29499.00    129033.40
  233.49        3341.50           6739       30659.00    134127.50
  233.52        3341.75           6743       31457.00    137632.70
  233.54        3342.00           6746       31536.00    137979.80
  233.57        3342.25           6750       31245.00    136701.40
  233.60        3342.50           6754       30429.00    133117.30
  233.63        3342.75           6758       28551.00    124871.30
  233.65        3343.00           6761       27307.00    119411.20
  233.68        3343.25           6765       25689.00    112312.10
  233.71        3343.50           6769       24035.00    105057.90
  233.74        3343.75           6773       22170.00     96881.91
  233.76        3344.00           6776       20778.00     90781.90
  233.79        3344.25           6780       18965.00     82840.15
  233.82        3344.50           6784       17176.00     75006.97
  233.84        3344.75           6788       15269.00     66660.93
  233.87        3345.00           6791       13899.00     60667.49
  233.90        3345.25           6795       11892.00     51890.95
  233.93        3345.50           6799        9318.00     40641.25
  233.95        3345.75           6803        7033.00     30660.58
  233.98        3346.00           6806        5731.00     24976.05
  234.01        3346.25           6810        4165.00     18141.30
  234.04        3346.50           6814        2990.00     13014.77
  234.06        3346.75           6818        1837.00      7985.66
  234.09        3347.00           6821        1289.00      5595.91
  234.12        3347.25           6825         443.00      1907.25
  234.14        3347.50           6829          80.00       324.76
  234.17        3347.75           6833          41.00       154.75
  234.20        3348.00           6836          34.00       124.24
  234.23        3348.25           6840          36.00       132.96
  234.25        3348.50           6844          33.00       119.88
  234.28        3348.75           6848          33.00       119.88
  234.31        3349.00           6851          26.00        89.36
  234.33        3349.25           6855          37.00       137.32
  234.36        3349.50           6859          31.00       111.16
  234.39        3349.75           6863          32.00       115.52
  234.42        3350.00           6867          37.00       137.32
  234.44        3350.25           6870          39.00       146.03
  234.47        3350.50           6874          36.00       132.96
  234.50        3350.75           6878          35.00       128.60
  234.53        3351.00           6882          36.00       132.96
HL scan finished at 03:55:09
end
