************************************************************
  HL Scan of (1) Internal mercury lamp
************************************************************
Integration time is 0.2294 seconds per sample
dh280817Tamanrasset 22.79-5.529 3.322511pr865
************************************************************
Dead Time -------------------------  2.8E-08 
Number of Cycles Used -------------  4 
Starting Wavelength (Angstroms) ---  3331 
Final Wavelength (Angstoms) -------  3351 
Wavelength Increment (Angstroms) --  .25 
Filter Wheel #1 Position ---------- (1) Ground quartz diffuser (ND=2.32)
Filter Wheel #2 Position ---------- (0) Clear Aperture



************************************************************
HL scan start time = 03:47:55
Dark Count =  5.4 


Time (GMT)  Wavelength (Ang)  Step Number  Raw Counts  Counts/Second

  228.43        3331.00           6581          29.00       102.88
  228.65        3331.25           6585          35.00       129.03
  228.67        3331.50           6589          36.00       133.39
  228.70        3331.75           6593          36.00       133.39
  228.73        3332.00           6596          32.00       115.96
  228.76        3332.25           6600          32.00       115.96
  228.78        3332.50           6604          25.00        85.44
  228.81        3332.75           6608          31.00       111.60
  228.84        3333.00           6611          28.00        98.52
  228.86        3333.25           6615          35.00       129.03
  228.89        3333.50           6619          32.00       115.96
  228.92        3333.75           6623          31.00       111.60
  228.95        3334.00           6626          30.00       107.24
  228.97        3334.25           6630          32.00       115.96
  229.00        3334.50           6634          36.00       133.39
  229.03        3334.75           6638          33.00       120.31
  229.06        3335.00           6641          39.00       146.47
  229.08        3335.25           6645          42.00       159.55
  229.11        3335.50           6649          39.00       146.47
  229.14        3335.75           6653          65.00       259.81
  229.16        3336.00           6656         154.00       647.79
  229.19        3336.25           6660         458.00      1973.08
  229.22        3336.50           6664        1117.00      4846.34
  229.25        3336.75           6668        1949.00      8474.55
  229.27        3337.00           6671        2461.00     10707.66
  229.30        3337.25           6675        4235.00     18447.19
  229.33        3337.50           6679        6239.00     27194.20
  229.35        3337.75           6683        8392.00     36596.33
  229.38        3338.00           6686        9965.00     43468.74
  229.41        3338.25           6690       12171.00     53111.18
  229.44        3338.50           6694       14177.00     61883.95
  229.46        3338.75           6698       16482.00     71969.65
  229.49        3339.00           6701       18141.00     79232.26
  229.52        3339.25           6705       20246.00     88451.57
  229.55        3339.50           6709       22628.00     98889.84
  229.57        3339.75           6713       24832.00    108553.50
  229.60        3340.00           6716       26332.00    115133.40
  229.63        3340.25           6720       28627.00    125205.40
  229.65        3340.50           6724       30605.00    133890.70
  229.68        3340.75           6728       32715.00    143160.30
  229.71        3341.00           6731       34024.00    148913.40
  229.74        3341.25           6735       35721.00    156374.60
  229.76        3341.50           6739       37187.00    162822.60
  229.79        3341.75           6743       37797.00    165506.30
  229.82        3342.00           6746       37709.00    165119.10
  229.85        3342.25           6750       37094.00    162413.50
  229.87        3342.50           6754       35919.00    157245.30
  229.90        3342.75           6758       33144.00    145045.60
  229.93        3343.00           6761       31593.00    138230.60
  229.96        3343.25           6765       30272.00    132428.20
  229.98        3343.50           6769       27909.00    122053.70
  230.01        3343.75           6773       26006.00    113703.20
  230.04        3344.00           6776       24145.00    105540.70
  230.07        3344.25           6780       21943.00     95887.44
  230.09        3344.50           6784       19868.00     86795.69
  230.12        3344.75           6788       17337.00     75712.21
  230.15        3345.00           6791       15547.00     67877.80
  230.17        3345.25           6795       12853.00     56093.27
  230.20        3345.50           6799        9976.00     43516.82
  230.23        3345.75           6803        7831.00     34145.97
  230.26        3346.00           6806        6076.00     26482.58
  230.28        3346.25           6810        4189.00     18246.46
  230.31        3346.50           6814        2724.00     11854.85
  230.34        3346.75           6818        1894.00      8234.68
  230.37        3347.00           6821        1137.00      4933.55
  230.39        3347.25           6825         360.00      1545.84
  230.42        3347.50           6829          69.00       277.25
  230.45        3347.75           6833          45.00       172.63
  230.47        3348.00           6836          41.00       155.19
  230.50        3348.25           6840          35.00       129.03
  230.53        3348.50           6844          36.00       133.39
  230.56        3348.75           6848          34.00       124.67
  230.58        3349.00           6851          37.00       137.75
  230.61        3349.25           6855          32.00       115.96
  230.64        3349.50           6859          36.00       133.39
  230.66        3349.75           6863          30.00       107.24
  230.69        3350.00           6867          32.00       115.96
  230.72        3350.25           6870          36.00       133.39
  230.75        3350.50           6874          40.00       150.83
  230.77        3350.75           6878          35.00       129.03
  230.80        3351.00           6882          32.00       115.96
HL scan finished at 03:51:25
end
