************************************************************
  HL Scan of (1) Internal mercury lamp
************************************************************
Integration time is 0.2294 seconds per sample
dh290817Tamanrasset 22.79-5.529 3.246036pr865
************************************************************
Dead Time -------------------------  2.8E-08 
Number of Cycles Used -------------  4 
Starting Wavelength (Angstroms) ---  3331 
Final Wavelength (Angstoms) -------  3351 
Wavelength Increment (Angstroms) --  .25 
Filter Wheel #1 Position ---------- (1) Ground quartz diffuser (ND=2.32)
Filter Wheel #2 Position ---------- (0) Clear Aperture



************************************************************
HL scan start time = 03:48:12
Dark Count =  4.1 


Time (GMT)  Wavelength (Ang)  Step Number  Raw Counts  Counts/Second

  228.71        3331.00           6581          31.00       117.26
  228.93        3331.25           6585          36.00       139.06
  228.96        3331.50           6589          27.00        99.83
  228.98        3331.75           6593          26.00        95.47
  229.01        3332.00           6596          24.00        86.75
  229.04        3332.25           6600          31.00       117.26
  229.06        3332.50           6604          34.00       130.34
  229.09        3332.75           6608          33.00       125.98
  229.12        3333.00           6611          29.00       108.54
  229.15        3333.25           6615          27.00        99.83
  229.17        3333.50           6619          30.00       112.90
  229.20        3333.75           6623          34.00       130.34
  229.23        3334.00           6626          31.00       117.26
  229.25        3334.25           6630          31.00       117.26
  229.28        3334.50           6634          28.00       104.19
  229.31        3334.75           6638          36.00       139.06
  229.34        3335.00           6641          37.00       143.42
  229.36        3335.25           6645          36.00       139.06
  229.39        3335.50           6649          36.00       139.06
  229.42        3335.75           6653          47.00       187.01
  229.45        3336.00           6656          95.00       396.26
  229.47        3336.25           6660         311.00      1337.89
  229.50        3336.50           6664         882.00      3827.35
  229.53        3336.75           6668        1578.00      6862.26
  229.55        3337.00           6671        1933.00      8410.44
  229.58        3337.25           6675        3556.00     15490.15
  229.61        3337.50           6679        5451.00     23759.92
  229.64        3337.75           6683        7415.00     32334.84
  229.66        3338.00           6686        8855.00     38624.58
  229.69        3338.25           6690       11028.00     48120.15
  229.72        3338.50           6694       13010.00     56785.51
  229.75        3338.75           6698       15054.00     65726.34
  229.77        3339.00           6701       16727.00     73047.69
  229.80        3339.25           6705       18873.00     82443.37
  229.83        3339.50           6709       20765.00     90731.08
  229.86        3339.75           6713       23036.00    100684.10
  229.88        3340.00           6716       24700.00    107980.30
  229.91        3340.25           6720       26729.00    116881.00
  229.94        3340.50           6724       28739.00    125702.80
  229.97        3340.75           6728       30550.00    133654.90
  229.99        3341.00           6731       31897.00    139571.90
  230.02        3341.25           6735       33684.00    147424.60
  230.05        3341.50           6739       35140.00    153825.50
  230.07        3341.75           6743       36065.00    157893.10
  230.10        3342.00           6746       36144.00    158240.50
  230.13        3342.25           6750       35783.00    156652.90
  230.16        3342.50           6754       34428.00    150695.10
  230.18        3342.75           6758       32174.00    140788.90
  230.21        3343.00           6761       30821.00    134845.10
  230.24        3343.25           6765       28451.00    124438.50
  230.27        3343.50           6769       27050.00    118289.60
  230.29        3343.75           6773       25118.00    109813.60
  230.32        3344.00           6776       23504.00    102735.80
  230.35        3344.25           6780       21508.00     93986.78
  230.38        3344.50           6784       19298.00     84304.71
  230.40        3344.75           6788       17360.00     75818.59
  230.43        3345.00           6791       15650.00     68334.21
  230.46        3345.25           6795       13263.00     57891.94
  230.48        3345.50           6799       10260.00     44763.57
  230.51        3345.75           6803        8036.00     35047.02
  230.54        3346.00           6806        6399.00     27898.42
  230.57        3346.25           6810        4548.00     19818.75
  230.59        3346.50           6814        3247.00     14142.04
  230.62        3346.75           6818        2101.00      9143.14
  230.65        3347.00           6821        1434.00      6234.31
  230.68        3347.25           6825         517.00      2235.97
  230.70        3347.50           6829         116.00       487.80
  230.73        3347.75           6833          40.00       156.50
  230.76        3348.00           6836          41.00       160.86
  230.78        3348.25           6840          33.00       125.98
  230.81        3348.50           6844          34.00       130.34
  230.84        3348.75           6848          36.00       139.06
  230.87        3349.00           6851          44.00       173.93
  230.89        3349.25           6855          32.00       121.62
  230.92        3349.50           6859          37.00       143.42
  230.95        3349.75           6863          41.00       160.86
  230.97        3350.00           6867          34.00       130.34
  231.00        3350.25           6870          39.00       152.14
  231.03        3350.50           6874          39.00       152.14
  231.06        3350.75           6878          40.00       156.50
  231.08        3351.00           6882          38.00       147.78
HL scan finished at 03:51:42
end
