************************************************************
  HL Scan of (1) Internal mercury lamp
************************************************************
Integration time is 0.2294 seconds per sample
dh050918Tamanrasset 22.79-5.529 4.974364pr865
************************************************************
Dead Time -------------------------  2.8E-08 
Number of Cycles Used -------------  4 
Starting Wavelength (Angstroms) ---  3331 
Final Wavelength (Angstoms) -------  3351 
Wavelength Increment (Angstroms) --  .25 
Filter Wheel #1 Position ---------- (1) Ground quartz diffuser (ND=2.32)
Filter Wheel #2 Position ---------- (0) Clear Aperture



************************************************************
HL scan start time = 03:50:01
Dark Count =  6.6 


Time (GMT)  Wavelength (Ang)  Step Number  Raw Counts  Counts/Second

  230.52        3331.00           6581          38.00       136.88
  230.74        3331.25           6585          30.00       102.01
  230.77        3331.50           6589          29.00        97.65
  230.79        3331.75           6593          35.00       123.80
  230.82        3332.00           6596          30.00       102.01
  230.85        3332.25           6600          32.00       110.72
  230.88        3332.50           6604          34.00       119.44
  230.90        3332.75           6608          33.00       115.08
  230.93        3333.00           6611          35.00       123.80
  230.96        3333.25           6615          34.00       119.44
  230.98        3333.50           6619          33.00       115.08
  231.01        3333.75           6623          34.00       119.44
  231.04        3334.00           6626          38.00       136.88
  231.07        3334.25           6630          34.00       119.44
  231.09        3334.50           6634          33.00       115.08
  231.12        3334.75           6638          33.00       115.08
  231.15        3335.00           6641          39.00       141.24
  231.17        3335.25           6645          40.00       145.60
  231.20        3335.50           6649          34.00       119.44
  231.23        3335.75           6653          71.00       280.73
  231.26        3336.00           6656         170.00       712.31
  231.28        3336.25           6660         487.00      2094.28
  231.31        3336.50           6664        1113.00      4823.67
  231.34        3336.75           6668        2140.00      9302.34
  231.36        3337.00           6671        2674.00     11631.51
  231.39        3337.25           6675        4353.00     18956.88
  231.42        3337.50           6679        6567.00     28621.01
  231.45        3337.75           6683        8706.00     37962.74
  231.47        3338.00           6686       10210.00     44534.15
  231.50        3338.25           6690       12431.00     54242.74
  231.53        3338.50           6694       14571.00     63602.27
  231.56        3338.75           6698       16665.00     72765.38
  231.58        3339.00           6701       18391.00     80321.68
  231.61        3339.25           6705       20560.00     89821.96
  231.64        3339.50           6709       22958.00    100331.20
  231.66        3339.75           6713       25107.00    109754.40
  231.69        3340.00           6716       26680.00    116655.10
  231.72        3340.25           6720       28903.00    126411.80
  231.75        3340.50           6724       30867.00    135036.20
  231.77        3340.75           6728       33095.00    144825.00
  231.80        3341.00           6731       34542.00    151185.30
  231.83        3341.25           6735       36362.00    159188.40
  231.86        3341.50           6739       37571.00    164506.70
  231.88        3341.75           6743       38190.00    167230.20
  231.91        3342.00           6746       38145.00    167032.20
  231.94        3342.25           6750       37576.00    164528.70
  231.96        3342.50           6754       36164.00    158317.50
  231.99        3342.75           6758       33740.00    147659.80
  232.02        3343.00           6761       32118.00    140531.90
  232.05        3343.25           6765       30007.00    131259.20
  232.07        3343.50           6769       28106.00    122913.10
  232.10        3343.75           6773       26052.00    113899.70
  232.13        3344.00           6776       24197.00    105763.50
  232.16        3344.25           6780       22188.00     96955.97
  232.18        3344.50           6784       19949.00     87145.26
  232.21        3344.75           6788       17489.00     76372.40
  232.24        3345.00           6791       15542.00     67850.66
  232.27        3345.25           6795       13024.00     56835.80
  232.29        3345.50           6799       10001.00     43620.82
  232.32        3345.75           6803        7785.00     33939.83
  232.35        3346.00           6806        6136.00     26739.28
  232.37        3346.25           6810        4240.00     18463.77
  232.40        3346.50           6814        2865.00     12464.68
  232.43        3346.75           6818        1856.00      8063.72
  232.46        3347.00           6821        1144.00      4958.84
  232.48        3347.25           6825         351.00      1501.37
  232.51        3347.50           6829          74.00       293.81
  232.54        3347.75           6833          36.00       128.16
  232.56        3348.00           6836          40.00       145.60
  232.59        3348.25           6840          42.00       154.32
  232.62        3348.50           6844          40.00       145.60
  232.65        3348.75           6848          36.00       128.16
  232.67        3349.00           6851          39.00       141.24
  232.70        3349.25           6855          43.00       158.68
  232.73        3349.50           6859          42.00       154.32
  232.75        3349.75           6863          33.00       115.08
  232.78        3350.00           6867          36.00       128.16
  232.81        3350.25           6870          32.00       110.72
  232.84        3350.50           6874          37.00       132.52
  232.86        3350.75           6878          36.00       128.16
  232.89        3351.00           6882          39.00       141.24
HL scan finished at 03:53:31
end
