************************************************************
  HL Scan of (1) Internal mercury lamp
************************************************************
Integration time is 0.2294 seconds per sample
dh050917Tamanrasset 22.79-5.529 3.225643pr865
************************************************************
Dead Time -------------------------  2.8E-08 
Number of Cycles Used -------------  4 
Starting Wavelength (Angstroms) ---  3331 
Final Wavelength (Angstoms) -------  3351 
Wavelength Increment (Angstroms) --  .25 
Filter Wheel #1 Position ---------- (1) Ground quartz diffuser (ND=2.32)
Filter Wheel #2 Position ---------- (0) Clear Aperture



************************************************************
HL scan start time = 03:50:11
Dark Count =  5 


Time (GMT)  Wavelength (Ang)  Step Number  Raw Counts  Counts/Second

  230.70        3331.00           6581          31.00       113.34
  230.91        3331.25           6585          32.00       117.70
  230.94        3331.50           6589          30.00       108.98
  230.97        3331.75           6593          33.00       122.06
  230.99        3332.00           6596          36.00       135.14
  231.02        3332.25           6600          32.00       117.70
  231.05        3332.50           6604          32.00       117.70
  231.08        3332.75           6608          29.00       104.62
  231.10        3333.00           6611          31.00       113.34
  231.13        3333.25           6615          36.00       135.14
  231.16        3333.50           6619          32.00       117.70
  231.19        3333.75           6623          29.00       104.62
  231.21        3334.00           6626          33.00       122.06
  231.24        3334.25           6630          30.00       108.98
  231.27        3334.50           6634          32.00       117.70
  231.29        3334.75           6638          31.00       113.34
  231.32        3335.00           6641          36.00       135.14
  231.35        3335.25           6645          34.00       126.42
  231.37        3335.50           6649          43.00       165.65
  231.40        3335.75           6653          53.00       209.24
  231.43        3336.00           6656          97.00       401.05
  231.46        3336.25           6660         351.00      1508.35
  231.48        3336.50           6664         778.00      3369.98
  231.51        3336.75           6668        1331.00      5781.23
  231.54        3337.00           6671        1919.00      8345.45
  231.57        3337.25           6675        3622.00     15774.19
  231.59        3337.50           6679        5449.00     23747.26
  231.62        3337.75           6683        7422.00     32361.49
  231.65        3338.00           6686        8856.00     38625.01
  231.68        3338.25           6690       10901.00     47561.12
  231.70        3338.50           6694       12903.00     56313.66
  231.73        3338.75           6698       14931.00     65184.26
  231.76        3339.00           6701       16332.00     71314.88
  231.78        3339.25           6705       18485.00     80740.31
  231.81        3339.50           6709       20573.00     89885.92
  231.84        3339.75           6713       22744.00     99400.07
  231.87        3340.00           6716       24197.00    105770.50
  231.89        3340.25           6720       26242.00    114740.30
  231.92        3340.50           6724       28293.00    123741.00
  231.95        3340.75           6728       30077.00    131573.60
  231.98        3341.00           6731       31662.00    138535.50
  232.00        3341.25           6735       32996.00    144396.90
  232.03        3341.50           6739       34496.00    150990.10
  232.06        3341.75           6743       35229.00    154212.90
  232.09        3342.00           6746       35333.00    154670.10
  232.11        3342.25           6750       34873.00    152647.60
  232.14        3342.50           6754       33513.00    146669.10
  232.17        3342.75           6758       31641.00    138443.20
  232.19        3343.00           6761       30192.00    132078.70
  232.22        3343.25           6765       28504.00    124667.20
  232.25        3343.50           6769       26623.00    116412.00
  232.28        3343.75           6773       24524.00    107204.50
  232.30        3344.00           6776       22974.00    100408.30
  232.33        3344.25           6780       20865.00     91165.28
  232.36        3344.50           6784       18917.00     82632.12
  232.39        3344.75           6788       16702.00     72934.32
  232.41        3345.00           6791       14810.00     64654.87
  232.44        3345.25           6795       12653.00     55220.45
  232.47        3345.50           6799       10133.00     44204.64
  232.50        3345.75           6803        7769.00     33876.93
  232.52        3346.00           6806        6111.00     26637.12
  232.55        3346.25           6810        4265.00     18579.85
  232.58        3346.50           6814        3190.00     13889.45
  232.60        3346.75           6818        2244.00      9762.91
  232.63        3347.00           6821        1360.00      5907.69
  232.66        3347.25           6825         484.00      2088.18
  232.69        3347.50           6829          97.00       401.05
  232.71        3347.75           6833          40.00       152.57
  232.74        3348.00           6836          40.00       152.57
  232.77        3348.25           6840          42.00       161.29
  232.80        3348.50           6844          35.00       130.78
  232.82        3348.75           6848          30.00       108.98
  232.85        3349.00           6851          40.00       152.57
  232.88        3349.25           6855          38.00       143.85
  232.90        3349.50           6859          38.00       143.85
  232.93        3349.75           6863          36.00       135.14
  232.96        3350.00           6867          28.00       100.26
  232.99        3350.25           6870          37.00       139.49
  233.01        3350.50           6874          37.00       139.49
  233.04        3350.75           6878          36.00       135.14
  233.07        3351.00           6882          35.00       130.78
HL scan finished at 03:53:41
end
