************************************************************
  HL Scan of (1) Internal mercury lamp
************************************************************
Integration time is 0.2294 seconds per sample
dh310817Tamanrasset 22.79-5.529 3.312315pr865
************************************************************
Dead Time -------------------------  2.8E-08 
Number of Cycles Used -------------  4 
Starting Wavelength (Angstroms) ---  3331 
Final Wavelength (Angstoms) -------  3351 
Wavelength Increment (Angstroms) --  .25 
Filter Wheel #1 Position ---------- (1) Ground quartz diffuser (ND=2.32)
Filter Wheel #2 Position ---------- (0) Clear Aperture



************************************************************
HL scan start time = 03:49:38
Dark Count =  5.1 


Time (GMT)  Wavelength (Ang)  Step Number  Raw Counts  Counts/Second

  230.15        3331.00           6581          29.00       104.19
  230.36        3331.25           6585          33.00       121.62
  230.39        3331.50           6589          38.00       143.42
  230.42        3331.75           6593          30.00       108.54
  230.45        3332.00           6596          31.00       112.90
  230.47        3332.25           6600          28.00        99.83
  230.50        3332.50           6604          28.00        99.83
  230.53        3332.75           6608          32.00       117.26
  230.55        3333.00           6611          30.00       108.54
  230.58        3333.25           6615          33.00       121.62
  230.61        3333.50           6619          27.00        95.47
  230.64        3333.75           6623          37.00       139.06
  230.66        3334.00           6626          33.00       121.62
  230.69        3334.25           6630          31.00       112.90
  230.72        3334.50           6634          34.00       125.98
  230.75        3334.75           6638          40.00       152.14
  230.77        3335.00           6641          35.00       130.34
  230.80        3335.25           6645          38.00       143.42
  230.83        3335.50           6649          42.00       160.86
  230.85        3335.75           6653          50.00       195.73
  230.88        3336.00           6656         132.00       553.19
  230.91        3336.25           6660         459.00      1978.75
  230.94        3336.50           6664        1129.00      4899.98
  230.96        3336.75           6668        1854.00      8061.54
  230.99        3337.00           6671        2387.00     10386.19
  231.02        3337.25           6675        4101.00     17863.77
  231.04        3337.50           6679        6113.00     26645.42
  231.07        3337.75           6683        8281.00     36112.79
  231.10        3338.00           6686        9767.00     42604.85
  231.13        3338.25           6690       12002.00     52373.62
  231.15        3338.50           6694       14153.00     61780.28
  231.18        3338.75           6698       16264.00     71016.84
  231.21        3339.00           6701       17808.00     77775.56
  231.24        3339.25           6705       20123.00     87914.06
  231.26        3339.50           6709       22227.00     97133.49
  231.29        3339.75           6713       24528.00    107221.60
  231.32        3340.00           6716       26278.00    114897.80
  231.35        3340.25           6720       28218.00    123411.30
  231.37        3340.50           6724       30579.00    133777.90
  231.40        3340.75           6728       32644.00    142849.70
  231.43        3341.00           6731       34088.00    149196.10
  231.46        3341.25           6735       35656.00    156090.00
  231.48        3341.50           6739       36943.00    161750.50
  231.51        3341.75           6743       37635.00    164794.80
  231.54        3342.00           6746       37507.00    164231.70
  231.56        3342.25           6750       37058.00    162256.40
  231.59        3342.50           6754       35712.00    156336.30
  231.62        3342.75           6758       33402.00    146180.80
  231.65        3343.00           6761       31981.00    139936.50
  231.67        3343.25           6765       29652.00    129706.90
  231.70        3343.50           6769       27908.00    122050.70
  231.73        3343.75           6773       25804.00    112818.30
  231.76        3344.00           6776       24211.00    105831.50
  231.78        3344.25           6780       21898.00     95691.53
  231.81        3344.50           6784       19724.00     86166.22
  231.84        3344.75           6788       17453.00     76221.35
  231.87        3345.00           6791       15809.00     69025.60
  231.89        3345.25           6795       13489.00     58875.97
  231.92        3345.50           6799       10511.00     45856.14
  231.95        3345.75           6803        7866.00     34300.15
  231.97        3346.00           6806        6178.00     26929.19
  232.00        3346.25           6810        4324.00     18836.87
  232.03        3346.50           6814        2982.00     12981.61
  232.06        3346.75           6818        1818.00      7904.54
  232.08        3347.00           6821        1127.00      4891.25
  232.11        3347.25           6825         312.00      1337.89
  232.14        3347.50           6829          71.00       287.27
  232.16        3347.75           6833          43.00       165.21
  232.19        3348.00           6836          37.00       139.06
  232.22        3348.25           6840          40.00       152.14
  232.25        3348.50           6844          33.00       121.62
  232.27        3348.75           6848          34.00       125.98
  232.30        3349.00           6851          36.00       134.70
  232.33        3349.25           6855          34.00       125.98
  232.36        3349.50           6859          37.00       139.06
  232.38        3349.75           6863          38.00       143.42
  232.41        3350.00           6867          38.00       143.42
  232.44        3350.25           6870          34.00       125.98
  232.46        3350.50           6874          32.00       117.26
  232.49        3350.75           6878          42.00       160.86
  232.52        3351.00           6882          40.00       152.14
HL scan finished at 03:53:09
end
