************************************************************
  HL Scan of (1) Internal mercury lamp
************************************************************
Integration time is 0.2294 seconds per sample
dh010918Tamanrasset 22.79-5.529 4.974364pr865
************************************************************
Dead Time -------------------------  2.8E-08 
Number of Cycles Used -------------  4 
Starting Wavelength (Angstroms) ---  3331 
Final Wavelength (Angstoms) -------  3351 
Wavelength Increment (Angstroms) --  .25 
Filter Wheel #1 Position ---------- (1) Ground quartz diffuser (ND=2.32)
Filter Wheel #2 Position ---------- (0) Clear Aperture



************************************************************
HL scan start time = 03:49:00
Dark Count =  5.5 


Time (GMT)  Wavelength (Ang)  Step Number  Raw Counts  Counts/Second

  229.52        3331.00           6581          32.00       115.52
  229.73        3331.25           6585          36.00       132.96
  229.76        3331.50           6589          34.00       124.24
  229.79        3331.75           6593          32.00       115.52
  229.82        3332.00           6596          35.00       128.60
  229.84        3332.25           6600          34.00       124.24
  229.87        3332.50           6604          34.00       124.24
  229.90        3332.75           6608          35.00       128.60
  229.92        3333.00           6611          36.00       132.96
  229.95        3333.25           6615          35.00       128.60
  229.98        3333.50           6619          32.00       115.52
  230.00        3333.75           6623          29.00       102.44
  230.03        3334.00           6626          39.00       146.03
  230.06        3334.25           6630          35.00       128.60
  230.09        3334.50           6634          31.00       111.16
  230.11        3334.75           6638          30.00       106.80
  230.14        3335.00           6641          36.00       132.96
  230.17        3335.25           6645          37.00       137.32
  230.20        3335.50           6649          40.00       150.39
  230.22        3335.75           6653          53.00       207.06
  230.25        3336.00           6656         118.00       490.42
  230.28        3336.25           6660         396.00      1702.35
  230.30        3336.50           6664        1111.00      4819.74
  230.33        3336.75           6668        2044.00      8888.44
  230.36        3337.00           6671        2370.00     10310.30
  230.39        3337.25           6675        4138.00     18023.48
  230.41        3337.50           6679        6063.00     26425.39
  230.44        3337.75           6683        8135.00     35473.32
  230.47        3338.00           6686        9659.00     42131.19
  230.50        3338.25           6690       11933.00     52070.20
  230.52        3338.50           6694       14032.00     61249.25
  230.55        3338.75           6698       16155.00     70538.05
  230.58        3339.00           6701       17623.00     76963.85
  230.60        3339.25           6705       20020.00     87461.09
  230.63        3339.50           6709       22114.00     96636.46
  230.66        3339.75           6713       24403.00    106671.70
  230.69        3340.00           6716       26039.00    113847.50
  230.71        3340.25           6720       28133.00    123036.50
  230.74        3340.50           6724       30453.00    133222.70
  230.77        3340.75           6728       32477.00    142114.10
  230.80        3341.00           6731       33575.00    146939.40
  230.82        3341.25           6735       35601.00    155846.40
  230.85        3341.50           6739       36768.00    160979.00
  230.88        3341.75           6743       37535.00    164353.10
  230.90        3342.00           6746       37566.00    164489.50
  230.93        3342.25           6750       36974.00    161885.10
  230.96        3342.50           6754       35245.00    154281.00
  230.99        3342.75           6758       32996.00    144394.70
  231.01        3343.00           6761       31492.00    137786.50
  231.04        3343.25           6765       29407.00    128629.40
  231.07        3343.50           6769       27826.00    121689.00
  231.10        3343.75           6773       25529.00    111610.20
  231.12        3344.00           6776       23949.00    104680.80
  231.15        3344.25           6780       21923.00     95799.35
  231.18        3344.50           6784       19678.00     85962.98
  231.21        3344.75           6788       17564.00     76705.55
  231.23        3345.00           6791       15554.00     67907.99
  231.26        3345.25           6795       13072.00     57050.53
  231.29        3345.50           6799        9881.00     43101.25
  231.32        3345.75           6803        7756.00     33817.97
  231.34        3346.00           6806        6203.00     27036.59
  231.37        3346.25           6810        4180.00     18206.75
  231.40        3346.50           6814        2718.00     11828.24
  231.43        3346.75           6818        1811.00      7872.27
  231.45        3347.00           6821        1213.00      5264.51
  231.48        3347.25           6825         384.00      1650.03
  231.51        3347.50           6829          78.00       316.04
  231.53        3347.75           6833          43.00       163.47
  231.56        3348.00           6836          37.00       137.32
  231.59        3348.25           6840          37.00       137.32
  231.62        3348.50           6844          32.00       115.52
  231.64        3348.75           6848          35.00       128.60
  231.67        3349.00           6851          35.00       128.60
  231.70        3349.25           6855          44.00       167.83
  231.72        3349.50           6859          32.00       115.52
  231.75        3349.75           6863          37.00       137.32
  231.78        3350.00           6867          40.00       150.39
  231.81        3350.25           6870          38.00       141.67
  231.83        3350.50           6874          36.00       132.96
  231.86        3350.75           6878          35.00       128.60
  231.89        3351.00           6882          36.00       132.96
HL scan finished at 03:52:31
end
