************************************************************
  HL Scan of (1) Internal mercury lamp
************************************************************
Integration time is 0.2294 seconds per sample
dh310818Tamanrasset 22.79-5.529 4.974364pr865
************************************************************
Dead Time -------------------------  2.8E-08 
Number of Cycles Used -------------  4 
Starting Wavelength (Angstroms) ---  3331 
Final Wavelength (Angstoms) -------  3351 
Wavelength Increment (Angstroms) --  .25 
Filter Wheel #1 Position ---------- (1) Ground quartz diffuser (ND=2.32)
Filter Wheel #2 Position ---------- (0) Clear Aperture



************************************************************
HL scan start time = 03:49:02
Dark Count =  5.8 


Time (GMT)  Wavelength (Ang)  Step Number  Raw Counts  Counts/Second

  229.55        3331.00           6581          34.00       122.93
  229.76        3331.25           6585          33.00       118.57
  229.79        3331.50           6589          33.00       118.57
  229.82        3331.75           6593          32.00       114.21
  229.85        3332.00           6596          33.00       118.57
  229.87        3332.25           6600          30.00       105.49
  229.90        3332.50           6604          35.00       127.29
  229.93        3332.75           6608          30.00       105.49
  229.96        3333.00           6611          34.00       122.93
  229.98        3333.25           6615          34.00       122.93
  230.01        3333.50           6619          28.00        96.77
  230.04        3333.75           6623          33.00       118.57
  230.06        3334.00           6626          32.00       114.21
  230.09        3334.25           6630          31.00       109.85
  230.12        3334.50           6634          34.00       122.93
  230.15        3334.75           6638          34.00       122.93
  230.17        3335.00           6641          34.00       122.93
  230.20        3335.25           6645          38.00       140.37
  230.23        3335.50           6649          36.00       131.65
  230.25        3335.75           6653          63.00       249.35
  230.28        3336.00           6656         140.00       585.01
  230.31        3336.25           6660         439.00      1888.50
  230.34        3336.50           6664        1163.00      5045.18
  230.36        3336.75           6668        2153.00      9362.52
  230.39        3337.00           6671        2601.00     11316.58
  230.42        3337.25           6675        4166.00     18144.35
  230.45        3337.50           6679        6065.00     26432.81
  230.47        3337.75           6683        8080.00     35231.78
  230.50        3338.00           6686        9757.00     42558.10
  230.53        3338.25           6690       11898.00     51915.87
  230.56        3338.50           6694       14073.00     61427.28
  230.58        3338.75           6698       16199.00     70729.30
  230.61        3339.00           6701       17763.00     77575.47
  230.64        3339.25           6705       19830.00     86627.48
  230.67        3339.50           6709       22151.00     96797.31
  230.69        3339.75           6713       24381.00    106573.90
  230.72        3340.00           6716       25957.00    113486.50
  230.75        3340.25           6720       28224.00    123434.60
  230.78        3340.50           6724       29952.00    131021.20
  230.80        3340.75           6728       32218.00    140974.70
  230.83        3341.00           6731       33576.00    146942.50
  230.86        3341.25           6735       35253.00    154314.90
  230.89        3341.50           6739       36655.00    160480.60
  230.91        3341.75           6743       37365.00    163603.90
  230.94        3342.00           6746       37398.00    163749.10
  230.97        3342.25           6750       36830.00    161250.40
  231.00        3342.50           6754       35443.00    155150.30
  231.02        3342.75           6758       33028.00    144534.10
  231.05        3343.00           6761       31656.00    138505.60
  231.08        3343.25           6765       29670.00    129782.90
  231.10        3343.50           6769       27893.00    121981.70
  231.13        3343.75           6773       26036.00    113833.00
  231.16        3344.00           6776       24268.00    106078.40
  231.19        3344.25           6780       22223.00     97112.88
  231.21        3344.50           6784       19928.00     87056.77
  231.24        3344.75           6788       17774.00     77623.63
  231.27        3345.00           6791       15739.00     68716.22
  231.30        3345.25           6795       13501.00     58925.39
  231.32        3345.50           6799       10394.00     45341.75
  231.35        3345.75           6803        7999.00     34877.99
  231.38        3346.00           6806        6278.00     27362.72
  231.41        3346.25           6810        4394.00     19139.29
  231.43        3346.50           6814        2953.00     12852.05
  231.46        3346.75           6818        1772.00      7700.88
  231.49        3347.00           6821        1142.00      4953.61
  231.52        3347.25           6825         438.00      1884.14
  231.54        3347.50           6829         102.00       419.36
  231.57        3347.75           6833          48.00       183.96
  231.60        3348.00           6836          37.00       136.01
  231.62        3348.25           6840          37.00       136.01
  231.65        3348.50           6844          34.00       122.93
  231.68        3348.75           6848          35.00       127.29
  231.71        3349.00           6851          31.00       109.85
  231.73        3349.25           6855          40.00       149.09
  231.76        3349.50           6859          39.00       144.73
  231.79        3349.75           6863          38.00       140.37
  231.82        3350.00           6867          37.00       136.01
  231.84        3350.25           6870          40.00       149.09
  231.87        3350.50           6874          34.00       122.93
  231.90        3350.75           6878          38.00       140.37
  231.92        3351.00           6882          32.00       114.21
HL scan finished at 03:52:33
end
