************************************************************
  HL Scan of (1) Internal mercury lamp
************************************************************
Integration time is 0.2294 seconds per sample
dh140918Tamanrasset 22.79-5.529 4.974364pr865
************************************************************
Dead Time -------------------------  2.8E-08 
Number of Cycles Used -------------  4 
Starting Wavelength (Angstroms) ---  3331 
Final Wavelength (Angstoms) -------  3351 
Wavelength Increment (Angstroms) --  .25 
Filter Wheel #1 Position ---------- (1) Ground quartz diffuser (ND=2.32)
Filter Wheel #2 Position ---------- (0) Clear Aperture



************************************************************
HL scan start time = 03:53:27
Dark Count =  4.8 


Time (GMT)  Wavelength (Ang)  Step Number  Raw Counts  Counts/Second

  233.97        3331.00           6581          27.00        96.77
  234.19        3331.25           6585          31.00       114.21
  234.22        3331.50           6589          33.00       122.93
  234.24        3331.75           6593          27.00        96.77
  234.27        3332.00           6596          36.00       136.01
  234.30        3332.25           6600          35.00       131.65
  234.33        3332.50           6604          36.00       136.01
  234.35        3332.75           6608          33.00       122.93
  234.38        3333.00           6611          29.00       105.49
  234.41        3333.25           6615          35.00       131.65
  234.43        3333.50           6619          32.00       118.57
  234.46        3333.75           6623          32.00       118.57
  234.49        3334.00           6626          35.00       131.65
  234.52        3334.25           6630          33.00       122.93
  234.54        3334.50           6634          33.00       122.93
  234.57        3334.75           6638          36.00       136.01
  234.60        3335.00           6641          33.00       122.93
  234.62        3335.25           6645          45.00       175.24
  234.65        3335.50           6649          40.00       153.44
  234.68        3335.75           6653          59.00       236.27
  234.71        3336.00           6656         172.00       728.87
  234.73        3336.25           6660         491.00      2119.57
  234.76        3336.50           6664        1156.00      5019.01
  234.79        3336.75           6668        2226.00      9685.28
  234.81        3337.00           6671        2890.00     12581.59
  234.84        3337.25           6675        4576.00     19937.90
  234.87        3337.50           6679        6554.00     28572.11
  234.90        3337.75           6683        8610.00     37551.24
  234.92        3338.00           6686       10397.00     45359.24
  234.95        3338.25           6690       12496.00     54534.83
  234.98        3338.50           6694       14628.00     63859.51
  235.01        3338.75           6698       16887.00     73744.97
  235.03        3339.00           6701       18569.00     81109.03
  235.06        3339.25           6705       20673.00     90324.92
  235.09        3339.50           6709       22936.00    100242.60
  235.11        3339.75           6713       25134.00    109880.70
  235.14        3340.00           6716       26745.00    116948.20
  235.17        3340.25           6720       28839.00    126138.70
  235.20        3340.50           6724       31170.00    136375.00
  235.22        3340.75           6728       33180.00    145206.50
  235.25        3341.00           6731       34617.00    151522.90
  235.28        3341.25           6735       36341.00    159103.90
  235.31        3341.50           6739       37339.00    163493.90
  235.33        3341.75           6743       38018.00    166481.30
  235.36        3342.00           6746       37839.00    165693.70
  235.39        3342.25           6750       37358.00    163577.50
  235.42        3342.50           6754       35622.00    155941.90
  235.44        3342.75           6758       33522.00    146709.50
  235.47        3343.00           6761       31883.00    139507.30
  235.50        3343.25           6765       30100.00    131675.50
  235.52        3343.50           6769       27989.00    122407.50
  235.55        3343.75           6773       25810.00    112846.00
  235.58        3344.00           6776       24247.00    105990.60
  235.61        3344.25           6780       22104.00     96595.69
  235.63        3344.50           6784       19997.00     87363.40
  235.66        3344.75           6788       17663.00     77142.03
  235.69        3345.00           6791       15828.00     69110.06
  235.72        3345.25           6795       13257.00     57862.64
  235.74        3345.50           6799        9950.00     43405.82
  235.77        3345.75           6803        7697.00     33563.35
  235.80        3346.00           6806        6113.00     26646.73
  235.82        3346.25           6810        4199.00     18292.72
  235.85        3346.50           6814        2959.00     12882.59
  235.88        3346.75           6818        1843.00      8014.88
  235.91        3347.00           6821        1126.00      4888.20
  235.93        3347.25           6825         357.00      1535.38
  235.96        3347.50           6829          85.00       349.61
  235.99        3347.75           6833          46.00       179.60
  236.02        3348.00           6836          41.00       157.80
  236.04        3348.25           6840          40.00       153.44
  236.07        3348.50           6844          33.00       122.93
  236.10        3348.75           6848          37.00       140.37
  236.12        3349.00           6851          34.00       127.29
  236.15        3349.25           6855          38.00       144.73
  236.18        3349.50           6859          34.00       127.29
  236.21        3349.75           6863          34.00       127.29
  236.23        3350.00           6867          30.00       109.85
  236.26        3350.25           6870          37.00       140.37
  236.29        3350.50           6874          35.00       131.65
  236.31        3350.75           6878          37.00       140.37
  236.34        3351.00           6882          32.00       118.57
HL scan finished at 03:56:58
end
