************************************************************
  HL Scan of (1) Internal mercury lamp
************************************************************
Integration time is 0.2294 seconds per sample
dh070918Tamanrasset 22.79-5.529 4.974364pr865
************************************************************
Dead Time -------------------------  2.8E-08 
Number of Cycles Used -------------  4 
Starting Wavelength (Angstroms) ---  3331 
Final Wavelength (Angstoms) -------  3351 
Wavelength Increment (Angstroms) --  .25 
Filter Wheel #1 Position ---------- (1) Ground quartz diffuser (ND=2.32)
Filter Wheel #2 Position ---------- (0) Clear Aperture



************************************************************
HL scan start time = 03:51:02
Dark Count =  5.5 


Time (GMT)  Wavelength (Ang)  Step Number  Raw Counts  Counts/Second

  231.54        3331.00           6581          31.00       111.16
  231.76        3331.25           6585          33.00       119.88
  231.79        3331.50           6589          34.00       124.24
  231.81        3331.75           6593          26.00        89.36
  231.84        3332.00           6596          33.00       119.88
  231.87        3332.25           6600          35.00       128.60
  231.89        3332.50           6604          29.00       102.44
  231.92        3332.75           6608          31.00       111.16
  231.95        3333.00           6611          33.00       119.88
  231.98        3333.25           6615          39.00       146.03
  232.00        3333.50           6619          35.00       128.60
  232.03        3333.75           6623          29.00       102.44
  232.06        3334.00           6626          34.00       124.24
  232.08        3334.25           6630          34.00       124.24
  232.11        3334.50           6634          31.00       111.16
  232.14        3334.75           6638          33.00       119.88
  232.17        3335.00           6641          38.00       141.67
  232.19        3335.25           6645          39.00       146.03
  232.22        3335.50           6649          42.00       159.11
  232.25        3335.75           6653          64.00       255.01
  232.27        3336.00           6656         142.00       595.04
  232.30        3336.25           6660         466.00      2007.52
  232.33        3336.50           6664        1109.00      4811.02
  232.36        3336.75           6668        2141.00      9311.49
  232.38        3337.00           6671        2662.00     11583.97
  232.41        3337.25           6675        4396.00     19149.32
  232.44        3337.50           6679        6477.00     28232.86
  232.47        3337.75           6683        8414.00     36692.00
  232.49        3338.00           6686       10080.00     43970.85
  232.52        3338.25           6690       12297.00     53661.65
  232.55        3338.50           6694       14339.00     62592.17
  232.57        3338.75           6698       16668.00     72783.32
  232.60        3339.00           6701       18196.00     79472.65
  232.63        3339.25           6705       20622.00     90098.41
  232.66        3339.50           6709       23016.00    100590.20
  232.68        3339.75           6713       24804.00    108430.30
  232.71        3340.00           6716       26555.00    116111.40
  232.74        3340.25           6720       28892.00    126368.30
  232.77        3340.50           6724       30949.00    135401.20
  232.79        3340.75           6728       33145.00    145049.60
  232.82        3341.00           6731       34609.00    151484.70
  232.85        3341.25           6735       36203.00    158493.90
  232.88        3341.50           6739       37600.00    164639.10
  232.90        3341.75           6743       38395.00    168137.10
  232.93        3342.00           6746       38294.00    167692.70
  232.96        3342.25           6750       37850.00    165739.00
  232.98        3342.50           6754       36201.00    158485.10
  233.01        3342.75           6758       34058.00    149062.40
  233.04        3343.00           6761       32471.00    142087.70
  233.07        3343.25           6765       30763.00    134584.20
  233.09        3343.50           6769       28526.00    124761.60
  233.12        3343.75           6773       26231.00    114689.90
  233.15        3344.00           6776       24539.00    107268.10
  233.18        3344.25           6780       22428.00     98012.74
  233.20        3344.50           6784       20356.00     88933.04
  233.23        3344.75           6788       17884.00     78106.56
  233.26        3345.00           6791       15912.00     69474.60
  233.29        3345.25           6795       13122.00     57269.18
  233.31        3345.50           6799       10134.00     44206.83
  233.34        3345.75           6803        7872.00     34324.61
  233.37        3346.00           6806        6351.00     27682.74
  233.39        3346.25           6810        4227.00     18411.84
  233.42        3346.50           6814        2907.00     12652.69
  233.45        3346.75           6818        1948.00      8469.75
  233.48        3347.00           6821        1243.00      5395.32
  233.50        3347.25           6825         410.00      1763.38
  233.53        3347.50           6829          81.00       329.12
  233.56        3347.75           6833          40.00       150.39
  233.59        3348.00           6836          39.00       146.03
  233.61        3348.25           6840          33.00       119.88
  233.64        3348.50           6844          31.00       111.16
  233.67        3348.75           6848          36.00       132.96
  233.69        3349.00           6851          35.00       128.60
  233.72        3349.25           6855          33.00       119.88
  233.75        3349.50           6859          36.00       132.96
  233.78        3349.75           6863          28.00        98.08
  233.80        3350.00           6867          33.00       119.88
  233.83        3350.25           6870          34.00       124.24
  233.86        3350.50           6874          39.00       146.03
  233.89        3350.75           6878          37.00       137.32
  233.91        3351.00           6882          37.00       137.32
HL scan finished at 03:54:32
end
