************************************************************
  HL Scan of (1) Internal mercury lamp
************************************************************
Integration time is 0.2294 seconds per sample
dh160917Tamanrasset 22.79-5.529 3.20525pr865
************************************************************
Dead Time -------------------------  2.8E-08 
Number of Cycles Used -------------  4 
Starting Wavelength (Angstroms) ---  3331 
Final Wavelength (Angstoms) -------  3351 
Wavelength Increment (Angstroms) --  .25 
Filter Wheel #1 Position ---------- (1) Ground quartz diffuser (ND=2.32)
Filter Wheel #2 Position ---------- (0) Clear Aperture



************************************************************
HL scan start time = 03:54:40
Dark Count =  4.7 


Time (GMT)  Wavelength (Ang)  Step Number  Raw Counts  Counts/Second

  235.19        3331.00           6581          33.00       123.37
  235.40        3331.25           6585          29.00       105.93
  235.43        3331.50           6589          39.00       149.52
  235.46        3331.75           6593          31.00       114.65
  235.49        3332.00           6596          29.00       105.93
  235.51        3332.25           6600          30.00       110.29
  235.54        3332.50           6604          29.00       105.93
  235.57        3332.75           6608          26.00        92.85
  235.59        3333.00           6611          30.00       110.29
  235.62        3333.25           6615          34.00       127.72
  235.65        3333.50           6619          29.00       105.93
  235.68        3333.75           6623          33.00       123.37
  235.70        3334.00           6626          27.00        97.21
  235.73        3334.25           6630          33.00       123.37
  235.76        3334.50           6634          31.00       114.65
  235.78        3334.75           6638          33.00       123.37
  235.81        3335.00           6641          32.00       119.01
  235.84        3335.25           6645          39.00       149.52
  235.87        3335.50           6649          37.00       140.80
  235.89        3335.75           6653          41.00       158.24
  235.92        3336.00           6656          64.00       258.50
  235.95        3336.25           6660         238.00      1017.03
  235.97        3336.50           6664         705.00      3053.01
  236.00        3336.75           6668        1259.00      5468.58
  236.03        3337.00           6671        1615.00      7021.00
  236.06        3337.25           6675        3058.00     13314.90
  236.08        3337.50           6679        5012.00     21841.17
  236.11        3337.75           6683        6997.00     30506.87
  236.14        3338.00           6686        8434.00     36782.85
  236.17        3338.25           6690       10556.00     46054.56
  236.19        3338.50           6694       12501.00     54557.12
  236.22        3338.75           6698       14608.00     63772.45
  236.25        3339.00           6701       16142.00     70484.66
  236.27        3339.25           6705       18046.00     78819.36
  236.30        3339.50           6709       20013.00     87433.94
  236.33        3339.75           6713       22249.00     97231.66
  236.36        3340.00           6716       23768.00    103890.70
  236.38        3340.25           6720       25615.00    111991.00
  236.41        3340.50           6724       27792.00    121543.30
  236.44        3340.75           6728       29819.00    130442.00
  236.47        3341.00           6731       31150.00    136287.60
  236.49        3341.25           6735       32786.00    143475.40
  236.52        3341.50           6739       34198.00    149681.40
  236.55        3341.75           6743       34957.00    153018.20
  236.58        3342.00           6746       35302.00    154535.10
  236.60        3342.25           6750       35169.00    153950.40
  236.63        3342.50           6754       33887.00    148314.30
  236.66        3342.75           6758       31935.00    139736.20
  236.68        3343.00           6761       30623.00    133972.90
  236.71        3343.25           6765       28795.00    125946.00
  236.74        3343.50           6769       27067.00    118361.60
  236.77        3343.75           6773       24911.00    108903.10
  236.79        3344.00           6776       23498.00    102706.90
  236.82        3344.25           6780       21587.00     94330.34
  236.85        3344.50           6784       19542.00     85370.79
  236.88        3344.75           6788       17274.00     75439.49
  236.90        3345.00           6791       15768.00     68847.94
  236.93        3345.25           6795       13588.00     59310.71
  236.96        3345.50           6799       10505.00     45831.67
  236.99        3345.75           6803        8284.00     36127.63
  237.01        3346.00           6806        6701.00     29214.39
  237.04        3346.25           6810        4824.00     21020.65
  237.07        3346.50           6814        3655.00     15919.48
  237.09        3346.75           6818        2509.00     10920.08
  237.12        3347.00           6821        1720.00      7478.90
  237.15        3347.25           6825         634.00      2743.45
  237.18        3347.50           6829         146.00       615.97
  237.20        3347.75           6833          51.00       201.83
  237.23        3348.00           6836          40.00       153.88
  237.26        3348.25           6840          30.00       110.29
  237.28        3348.50           6844          33.00       123.37
  237.31        3348.75           6848          30.00       110.29
  237.34        3349.00           6851          38.00       145.16
  237.37        3349.25           6855          36.00       136.44
  237.39        3349.50           6859          37.00       140.80
  237.42        3349.75           6863          33.00       123.37
  237.45        3350.00           6867          31.00       114.65
  237.47        3350.25           6870          30.00       110.29
  237.50        3350.50           6874          34.00       127.72
  237.53        3350.75           6878          37.00       140.80
  237.56        3351.00           6882          35.00       132.08
HL scan finished at 03:58:11
end
