************************************************************
  HL Scan of (1) Internal mercury lamp
************************************************************
Integration time is 0.2294 seconds per sample
dh090918Tamanrasset 22.79-5.529 4.974364pr865
************************************************************
Dead Time -------------------------  2.8E-08 
Number of Cycles Used -------------  4 
Starting Wavelength (Angstroms) ---  3331 
Final Wavelength (Angstoms) -------  3351 
Wavelength Increment (Angstroms) --  .25 
Filter Wheel #1 Position ---------- (1) Ground quartz diffuser (ND=2.32)
Filter Wheel #2 Position ---------- (0) Clear Aperture



************************************************************
HL scan start time = 03:52:06
Dark Count =  6.1 


Time (GMT)  Wavelength (Ang)  Step Number  Raw Counts  Counts/Second

  232.62        3331.00           6581          32.00       112.90
  232.83        3331.25           6585          32.00       112.90
  232.86        3331.50           6589          30.00       104.19
  232.89        3331.75           6593          31.00       108.54
  232.92        3332.00           6596          29.00        99.83
  232.94        3332.25           6600          34.00       121.62
  232.97        3332.50           6604          35.00       125.98
  233.00        3332.75           6608          38.00       139.06
  233.02        3333.00           6611          30.00       104.19
  233.05        3333.25           6615          34.00       121.62
  233.08        3333.50           6619          37.00       134.70
  233.11        3333.75           6623          29.00        99.83
  233.13        3334.00           6626          26.00        86.75
  233.16        3334.25           6630          40.00       147.78
  233.19        3334.50           6634          31.00       108.54
  233.21        3334.75           6638          30.00       104.19
  233.24        3335.00           6641          37.00       134.70
  233.27        3335.25           6645          41.00       152.14
  233.30        3335.50           6649          42.00       156.50
  233.32        3335.75           6653          71.00       282.91
  233.35        3336.00           6656         153.00       640.38
  233.38        3336.25           6660         527.00      2270.85
  233.40        3336.50           6664        1229.00      5331.66
  233.43        3336.75           6668        2136.00      9287.07
  233.46        3337.00           6671        2686.00     11686.04
  233.49        3337.25           6675        4547.00     19805.66
  233.51        3337.50           6679        6685.00     29138.41
  233.54        3337.75           6683        8848.00     38585.26
  233.57        3338.00           6686       10558.00     46057.18
  233.60        3338.25           6690       12795.00     55836.58
  233.62        3338.50           6694       14983.00     65406.95
  233.65        3338.75           6698       17171.00     74982.46
  233.68        3339.00           6701       18870.00     82421.47
  233.71        3339.25           6705       21338.00     93233.05
  233.73        3339.50           6709       23629.00    103275.10
  233.76        3339.75           6713       25898.00    113226.30
  233.79        3340.00           6716       27482.00    120176.60
  233.82        3340.25           6720       29733.00    130058.20
  233.84        3340.50           6724       32028.00    140138.60
  233.87        3340.75           6728       34273.00    150004.90
  233.90        3341.00           6731       35748.00    156490.20
  233.92        3341.25           6735       37528.00    164319.70
  233.95        3341.50           6739       38885.00    170290.90
  233.98        3341.75           6743       39678.00    173781.20
  234.01        3342.00           6746       39492.00    172962.50
  234.03        3342.25           6750       38795.00    169894.80
  234.06        3342.50           6754       37177.00    162775.50
  234.09        3342.75           6758       34888.00    152708.70
  234.12        3343.00           6761       33280.00    145640.20
  234.14        3343.25           6765       31216.00    136571.40
  234.17        3343.50           6769       29164.00    127559.90
  234.20        3343.75           6773       26986.00    118000.00
  234.23        3344.00           6776       25235.00    110318.00
  234.25        3344.25           6780       23049.00    100732.30
  234.28        3344.50           6784       20651.00     90222.84
  234.31        3344.75           6788       18263.00     79763.40
  234.34        3345.00           6791       15838.00     69148.15
  234.36        3345.25           6795       13232.00     57747.62
  234.39        3345.50           6799       10199.00     44488.26
  234.42        3345.75           6803        7938.00     34610.25
  234.44        3346.00           6806        6213.00     27077.63
  234.47        3346.25           6810        4114.00     17916.13
  234.50        3346.50           6814        2861.00     12449.41
  234.53        3346.75           6818        1808.00      7856.57
  234.55        3347.00           6821        1075.00      4660.16
  234.58        3347.25           6825         332.00      1420.72
  234.61        3347.50           6829          74.00       295.99
  234.63        3347.75           6833          41.00       152.14
  234.66        3348.00           6836          38.00       139.06
  234.69        3348.25           6840          38.00       139.06
  234.72        3348.50           6844          35.00       125.98
  234.74        3348.75           6848          36.00       130.34
  234.77        3349.00           6851          45.00       169.57
  234.80        3349.25           6855          37.00       134.70
  234.83        3349.50           6859          36.00       130.34
  234.85        3349.75           6863          35.00       125.98
  234.88        3350.00           6867          39.00       143.42
  234.91        3350.25           6870          41.00       152.14
  234.93        3350.50           6874          39.00       143.42
  234.96        3350.75           6878          35.00       125.98
  234.99        3351.00           6882          35.00       125.98
HL scan finished at 03:55:37
end
