************************************************************
  HL Scan of (1) Internal mercury lamp
************************************************************
Integration time is 0.2294 seconds per sample
dh070917Tamanrasset 22.79-5.529 3.098185pr865
************************************************************
Dead Time -------------------------  2.8E-08 
Number of Cycles Used -------------  4 
Starting Wavelength (Angstroms) ---  3331 
Final Wavelength (Angstoms) -------  3351 
Wavelength Increment (Angstroms) --  .25 
Filter Wheel #1 Position ---------- (1) Ground quartz diffuser (ND=2.32)
Filter Wheel #2 Position ---------- (0) Clear Aperture



************************************************************
HL scan start time = 03:51:39
Dark Count =  3.9 


Time (GMT)  Wavelength (Ang)  Step Number  Raw Counts  Counts/Second

  232.17        3331.00           6581          30.00       113.78
  232.38        3331.25           6585          31.00       118.13
  232.41        3331.50           6589          32.00       122.49
  232.44        3331.75           6593          33.00       126.85
  232.47        3332.00           6596          30.00       113.78
  232.49        3332.25           6600          33.00       126.85
  232.52        3332.50           6604          33.00       126.85
  232.55        3332.75           6608          31.00       118.13
  232.58        3333.00           6611          28.00       105.06
  232.60        3333.25           6615          31.00       118.13
  232.63        3333.50           6619          26.00        96.34
  232.66        3333.75           6623          28.00       105.06
  232.68        3334.00           6626          24.00        87.62
  232.71        3334.25           6630          30.00       113.78
  232.74        3334.50           6634          28.00       105.06
  232.76        3334.75           6638          33.00       126.85
  232.79        3335.00           6641          35.00       135.57
  232.82        3335.25           6645          27.00       100.70
  232.85        3335.50           6649          37.00       144.29
  232.87        3335.75           6653          43.00       170.45
  232.90        3336.00           6656          87.00       362.25
  232.93        3336.25           6660         342.00      1473.91
  232.96        3336.50           6664         689.00      2986.74
  232.98        3336.75           6668        1245.00      5411.02
  233.01        3337.00           6671        1876.00      8162.72
  233.04        3337.25           6675        3422.00     14906.40
  233.06        3337.50           6679        5130.00     22359.68
  233.09        3337.75           6683        7038.00     30689.40
  233.12        3338.00           6686        8284.00     36131.13
  233.15        3338.25           6690       10090.00     44021.53
  233.17        3338.50           6694       12105.00     52829.18
  233.20        3338.75           6698       13900.00     60678.86
  233.23        3339.00           6701       15310.00     66847.32
  233.26        3339.25           6705       17281.00     75473.63
  233.28        3339.50           6709       19093.00     83407.74
  233.31        3339.75           6713       21147.00     92405.74
  233.34        3340.00           6716       22423.00     97997.82
  233.36        3340.25           6720       24186.00    105727.10
  233.39        3340.50           6724       26240.00    114736.40
  233.42        3340.75           6728       27676.00    121037.70
  233.45        3341.00           6731       28990.00    126805.60
  233.47        3341.25           6735       30701.00    134318.90
  233.50        3341.50           6739       31687.00    138650.10
  233.53        3341.75           6743       32450.00    142002.50
  233.56        3342.00           6746       32562.00    142494.60
  233.58        3342.25           6750       32278.00    141246.70
  233.61        3342.50           6754       30932.00    135333.60
  233.64        3342.75           6758       29220.00    127815.40
  233.66        3343.00           6761       27808.00    121617.00
  233.69        3343.25           6765       26403.00    115451.50
  233.72        3343.50           6769       24453.00    106898.00
  233.75        3343.75           6773       22580.00     98686.01
  233.77        3344.00           6776       21211.00     92686.18
  233.80        3344.25           6780       19477.00     85089.58
  233.83        3344.50           6784       17547.00     76638.13
  233.86        3344.75           6788       15524.00     67783.71
  233.88        3345.00           6791       13873.00     60560.76
  233.91        3345.25           6795       11702.00     51067.30
  233.94        3345.50           6799        9516.00     41513.35
  233.96        3345.75           6803        7245.00     31593.33
  233.99        3346.00           6806        5791.00     25244.96
  234.02        3346.25           6810        4086.00     17803.56
  234.05        3346.50           6814        3111.00     13549.61
  234.07        3346.75           6818        2215.00      9641.23
  234.10        3347.00           6821        1323.00      5751.14
  234.13        3347.25           6825         472.00      2040.66
  234.16        3347.50           6829         101.00       423.28
  234.18        3347.75           6833          38.00       148.65
  234.21        3348.00           6836          35.00       135.57
  234.24        3348.25           6840          37.00       144.29
  234.26        3348.50           6844          36.00       139.93
  234.29        3348.75           6848          33.00       126.85
  234.32        3349.00           6851          32.00       122.49
  234.35        3349.25           6855          38.00       148.65
  234.37        3349.50           6859          33.00       126.85
  234.40        3349.75           6863          33.00       126.85
  234.43        3350.00           6867          36.00       139.93
  234.45        3350.25           6870          32.00       122.49
  234.48        3350.50           6874          34.00       131.21
  234.51        3350.75           6878          33.00       126.85
  234.54        3351.00           6882          33.00       126.85
HL scan finished at 03:55:10
end
