************************************************************
  HL Scan of (1) Internal mercury lamp
************************************************************
Integration time is 0.2294 seconds per sample
dh130918Tamanrasset 22.79-5.529 4.974364pr865
************************************************************
Dead Time -------------------------  2.8E-08 
Number of Cycles Used -------------  4 
Starting Wavelength (Angstroms) ---  3331 
Final Wavelength (Angstoms) -------  3351 
Wavelength Increment (Angstroms) --  .25 
Filter Wheel #1 Position ---------- (1) Ground quartz diffuser (ND=2.32)
Filter Wheel #2 Position ---------- (0) Clear Aperture



************************************************************
HL scan start time = 03:53:43
Dark Count =  6.2 


Time (GMT)  Wavelength (Ang)  Step Number  Raw Counts  Counts/Second

  234.23        3331.00           6581          34.00       121.19
  234.44        3331.25           6585          29.00        99.39
  234.47        3331.50           6589          32.00       112.47
  234.50        3331.75           6593          29.00        99.39
  234.53        3332.00           6596          30.00       103.75
  234.55        3332.25           6600          30.00       103.75
  234.58        3332.50           6604          36.00       129.90
  234.61        3332.75           6608          36.00       129.90
  234.63        3333.00           6611          31.00       108.11
  234.66        3333.25           6615          30.00       103.75
  234.69        3333.50           6619          33.00       116.83
  234.72        3333.75           6623          31.00       108.11
  234.74        3334.00           6626          31.00       108.11
  234.77        3334.25           6630          32.00       112.47
  234.80        3334.50           6634          36.00       129.90
  234.83        3334.75           6638          33.00       116.83
  234.85        3335.00           6641          37.00       134.26
  234.88        3335.25           6645          36.00       129.90
  234.91        3335.50           6649          40.00       147.34
  234.94        3335.75           6653          43.00       160.42
  234.96        3336.00           6656          83.00       334.79
  234.99        3336.25           6660         284.00      1211.03
  235.02        3336.50           6664         794.00      3434.51
  235.04        3336.75           6668        1510.00      6556.57
  235.07        3337.00           6671        1808.00      7856.13
  235.10        3337.25           6675        3382.00     14721.85
  235.13        3337.50           6679        5331.00     23226.96
  235.15        3337.75           6683        7142.00     31133.50
  235.18        3338.00           6686        8755.00     38178.54
  235.21        3338.25           6690       10797.00     47101.32
  235.24        3338.50           6694       12701.00     55425.09
  235.26        3338.75           6698       14778.00     64509.62
  235.29        3339.00           6701       16267.00     71025.16
  235.32        3339.25           6705       18544.00     80993.41
  235.35        3339.50           6709       20552.00     89788.66
  235.37        3339.75           6713       22684.00     99131.81
  235.40        3340.00           6716       24258.00    106032.70
  235.43        3340.25           6720       26110.00    114155.90
  235.45        3340.50           6724       28362.00    124038.60
  235.48        3340.75           6728       30329.00    132675.10
  235.51        3341.00           6731       31753.00    138930.00
  235.54        3341.25           6735       33317.00    145802.40
  235.56        3341.50           6739       34610.00    151486.00
  235.59        3341.75           6743       35652.00    156067.60
  235.62        3342.00           6746       35811.00    156766.80
  235.65        3342.25           6750       35542.00    155583.90
  235.67        3342.50           6754       34477.00    150901.30
  235.70        3342.75           6758       32417.00    141847.40
  235.73        3343.00           6761       30986.00    135560.70
  235.75        3343.25           6765       28749.00    125737.50
  235.78        3343.50           6769       27338.00    119544.20
  235.81        3343.75           6773       25324.00    110708.00
  235.84        3344.00           6776       23545.00    102906.40
  235.86        3344.25           6780       21637.00     94542.89
  235.89        3344.50           6784       19698.00     86047.52
  235.92        3344.75           6788       17557.00     76671.84
  235.95        3345.00           6791       15789.00     68933.28
  235.97        3345.25           6795       13520.00     59006.74
  236.00        3345.50           6799       10731.00     46812.85
  236.03        3345.75           6803        8272.00     36068.67
  236.06        3346.00           6806        6764.00     29482.92
  236.08        3346.25           6810        4872.00     21223.60
  236.11        3346.50           6814        3655.00     15912.93
  236.14        3346.75           6818        2465.00     10721.62
  236.17        3347.00           6821        1652.00      7175.81
  236.19        3347.25           6825         597.00      2575.60
  236.22        3347.50           6829         147.00       613.79
  236.25        3347.75           6833          42.00       156.06
  236.27        3348.00           6836          35.00       125.55
  236.30        3348.25           6840          37.00       134.26
  236.33        3348.50           6844          36.00       129.90
  236.36        3348.75           6848          37.00       134.26
  236.38        3349.00           6851          36.00       129.90
  236.41        3349.25           6855          35.00       125.55
  236.44        3349.50           6859          36.00       129.90
  236.46        3349.75           6863          41.00       151.70
  236.49        3350.00           6867          35.00       125.55
  236.52        3350.25           6870          36.00       129.90
  236.55        3350.50           6874          34.00       121.19
  236.57        3350.75           6878          33.00       116.83
  236.60        3351.00           6882          35.00       125.55
HL scan finished at 03:57:13
end
