************************************************************
  HL Scan of (1) Internal mercury lamp
************************************************************
Integration time is 0.2294 seconds per sample
dh120917Tamanrasset 22.79-5.529 3.189955pr865
************************************************************
Dead Time -------------------------  2.8E-08 
Number of Cycles Used -------------  4 
Starting Wavelength (Angstroms) ---  3331 
Final Wavelength (Angstoms) -------  3351 
Wavelength Increment (Angstroms) --  .25 
Filter Wheel #1 Position ---------- (1) Ground quartz diffuser (ND=2.32)
Filter Wheel #2 Position ---------- (0) Clear Aperture



************************************************************
HL scan start time = 03:52:36
Dark Count =  4.9 


Time (GMT)  Wavelength (Ang)  Step Number  Raw Counts  Counts/Second

  233.11        3331.00           6581          26.00        91.98
  233.32        3331.25           6585          32.00       118.13
  233.35        3331.50           6589          33.00       122.49
  233.38        3331.75           6593          28.00       100.70
  233.41        3332.00           6596          33.00       122.49
  233.43        3332.25           6600          31.00       113.78
  233.46        3332.50           6604          31.00       113.78
  233.49        3332.75           6608          35.00       131.21
  233.51        3333.00           6611          26.00        91.98
  233.54        3333.25           6615          33.00       122.49
  233.57        3333.50           6619          31.00       113.78
  233.60        3333.75           6623          28.00       100.70
  233.62        3334.00           6626          26.00        91.98
  233.65        3334.25           6630          28.00       100.70
  233.68        3334.50           6634          31.00       113.78
  233.70        3334.75           6638          28.00       100.70
  233.73        3335.00           6641          35.00       131.21
  233.76        3335.25           6645          34.00       126.85
  233.79        3335.50           6649          41.00       157.37
  233.81        3335.75           6653          42.00       161.73
  233.84        3336.00           6656          82.00       336.10
  233.87        3336.25           6660         299.00      1282.09
  233.89        3336.50           6664         910.00      3945.95
  233.92        3336.75           6668        1563.00      6793.36
  233.95        3337.00           6671        1927.00      8380.78
  233.98        3337.25           6675        3373.00     14688.26
  234.00        3337.50           6679        5119.00     22307.30
  234.03        3337.75           6683        7139.00     31126.07
  234.06        3338.00           6686        8562.00     37341.11
  234.09        3338.25           6690       10575.00     46136.72
  234.11        3338.50           6694       12548.00     54761.76
  234.14        3338.75           6698       14572.00     63614.08
  234.17        3339.00           6701       16060.00     70124.91
  234.19        3339.25           6705       17980.00     78529.50
  234.22        3339.50           6709       20190.00     88208.44
  234.25        3339.75           6713       22102.00     96586.49
  234.28        3340.00           6716       23793.00    103999.40
  234.30        3340.25           6720       25531.00    111621.60
  234.33        3340.50           6724       27524.00    120366.20
  234.36        3340.75           6728       29518.00    129119.40
  234.39        3341.00           6731       30898.00    135179.80
  234.41        3341.25           6735       32333.00    141484.00
  234.44        3341.50           6739       33933.00    148515.60
  234.47        3341.75           6743       34712.00    151940.20
  234.50        3342.00           6746       34766.00    152177.60
  234.52        3342.25           6750       34393.00    150537.70
  234.55        3342.50           6754       33171.00    145166.50
  234.58        3342.75           6758       31197.00    136493.20
  234.61        3343.00           6761       29757.00    130168.90
  234.63        3343.25           6765       27805.00    121599.50
  234.66        3343.50           6769       26403.00    115447.10
  234.69        3343.75           6773       24389.00    106612.90
  234.71        3344.00           6776       22922.00    100180.80
  234.74        3344.25           6780       20890.00     91275.25
  234.77        3344.50           6784       18849.00     82334.76
  234.80        3344.75           6788       16864.00     73643.85
  234.82        3345.00           6791       15132.00     66064.12
  234.85        3345.25           6795       12894.00     56274.74
  234.88        3345.50           6799       10027.00     43741.86
  234.91        3345.75           6803        7700.00     33576.02
  234.93        3346.00           6806        6258.00     27279.33
  234.96        3346.25           6810        4369.00     19034.12
  234.99        3346.50           6814        3241.00     14112.38
  235.01        3346.75           6818        2012.00      8751.49
  235.04        3347.00           6821        1411.00      6130.52
  235.07        3347.25           6825         512.00      2210.69
  235.10        3347.50           6829         120.00       501.75
  235.12        3347.75           6833          50.00       196.60
  235.15        3348.00           6836          39.00       148.65
  235.18        3348.25           6840          40.00       153.01
  235.21        3348.50           6844          32.00       118.13
  235.23        3348.75           6848          41.00       157.37
  235.26        3349.00           6851          30.00       109.42
  235.29        3349.25           6855          31.00       113.78
  235.31        3349.50           6859          30.00       109.42
  235.34        3349.75           6863          35.00       131.21
  235.37        3350.00           6867          33.00       122.49
  235.40        3350.25           6870          33.00       122.49
  235.42        3350.50           6874          35.00       131.21
  235.45        3350.75           6878          35.00       131.21
  235.48        3351.00           6882          31.00       113.78
HL scan finished at 03:56:06
end
