************************************************************
  HL Scan of (1) Internal mercury lamp
************************************************************
Integration time is 0.2294 seconds per sample
dh080917Tamanrasset 22.79-5.529 3.138972pr865
************************************************************
Dead Time -------------------------  2.8E-08 
Number of Cycles Used -------------  4 
Starting Wavelength (Angstroms) ---  3331 
Final Wavelength (Angstoms) -------  3351 
Wavelength Increment (Angstroms) --  .25 
Filter Wheel #1 Position ---------- (1) Ground quartz diffuser (ND=2.32)
Filter Wheel #2 Position ---------- (0) Clear Aperture



************************************************************
HL scan start time = 03:51:39
Dark Count =  5.7 


Time (GMT)  Wavelength (Ang)  Step Number  Raw Counts  Counts/Second

  232.17        3331.00           6581          28.00        97.21
  232.38        3331.25           6585          31.00       110.29
  232.41        3331.50           6589          31.00       110.29
  232.44        3331.75           6593          27.00        92.85
  232.47        3332.00           6596          33.00       119.01
  232.49        3332.25           6600          33.00       119.01
  232.52        3332.50           6604          32.00       114.65
  232.55        3332.75           6608          35.00       127.72
  232.57        3333.00           6611          34.00       123.37
  232.60        3333.25           6615          35.00       127.72
  232.63        3333.50           6619          32.00       114.65
  232.66        3333.75           6623          37.00       136.44
  232.68        3334.00           6626          28.00        97.21
  232.71        3334.25           6630          31.00       110.29
  232.74        3334.50           6634          33.00       119.01
  232.76        3334.75           6638          28.00        97.21
  232.79        3335.00           6641          34.00       123.37
  232.82        3335.25           6645          40.00       149.52
  232.85        3335.50           6649          44.00       166.96
  232.87        3335.75           6653          52.00       201.83
  232.90        3336.00           6656         132.00       550.58
  232.93        3336.25           6660         423.00      1819.19
  232.96        3336.50           6664         879.00      3807.29
  232.98        3336.75           6668        1531.00      6650.32
  233.01        3337.00           6671        2150.00      9349.88
  233.04        3337.25           6675        3863.00     16822.66
  233.06        3337.50           6679        5589.00     24355.31
  233.09        3337.75           6683        7493.00     32668.49
  233.12        3338.00           6686        8950.00     39032.61
  233.15        3338.25           6690       10797.00     47103.50
  233.17        3338.50           6694       12864.00     56140.06
  233.20        3338.75           6698       14807.00     64638.68
  233.23        3339.00           6701       16195.00     70712.24
  233.26        3339.25           6705       18120.00     79139.00
  233.28        3339.50           6709       20361.00     88954.08
  233.31        3339.75           6713       22239.00     97183.46
  233.34        3340.00           6716       23693.00    103557.50
  233.37        3340.25           6720       25406.00    111069.80
  233.39        3340.50           6724       27290.00    119335.80
  233.42        3340.75           6728       29102.00    127289.40
  233.45        3341.00           6731       30413.00    133046.20
  233.47        3341.25           6735       31941.00    139758.10
  233.50        3341.50           6739       33138.00    145017.90
  233.53        3341.75           6743       33533.00    146753.90
  233.56        3342.00           6746       33514.00    146670.40
  233.58        3342.25           6750       32969.00    144275.20
  233.61        3342.50           6754       31481.00    137737.20
  233.64        3342.75           6758       29747.00    130121.50
  233.67        3343.00           6761       28331.00    123904.70
  233.69        3343.25           6765       26721.00    116838.90
  233.72        3343.50           6769       24699.00    107968.90
  233.75        3343.75           6773       23075.00    100848.00
  233.77        3344.00           6776       21266.00     92919.29
  233.80        3344.25           6780       19590.00     85576.65
  233.83        3344.50           6784       17691.00     77260.69
  233.86        3344.75           6788       15638.00     68274.69
  233.88        3345.00           6791       13753.00     60028.01
  233.91        3345.25           6795       11584.00     50543.58
  233.94        3345.50           6799        9120.00     39775.31
  233.97        3345.75           6803        6916.00     30148.81
  233.99        3346.00           6806        5442.00     23713.65
  234.02        3346.25           6810        3736.00     16268.53
  234.05        3346.50           6814        2750.00     11966.96
  234.07        3346.75           6818        1895.00      8237.73
  234.10        3347.00           6821        1092.00      4736.02
  234.13        3347.25           6825         338.00      1448.62
  234.16        3347.50           6829          65.00       258.50
  234.18        3347.75           6833          45.00       171.32
  234.21        3348.00           6836          43.00       162.60
  234.24        3348.25           6840          34.00       123.37
  234.26        3348.50           6844          36.00       132.08
  234.29        3348.75           6848          30.00       105.93
  234.32        3349.00           6851          38.00       140.80
  234.35        3349.25           6855          29.00       101.57
  234.37        3349.50           6859          34.00       123.37
  234.40        3349.75           6863          34.00       123.37
  234.43        3350.00           6867          38.00       140.80
  234.45        3350.25           6870          29.00       101.57
  234.48        3350.50           6874          37.00       136.44
  234.51        3350.75           6878          36.00       132.08
  234.54        3351.00           6882          34.00       123.37
HL scan finished at 03:55:10
end
