************************************************************
  HL Scan of (1) Internal mercury lamp
************************************************************
Integration time is 0.2294 seconds per sample
dh140917Tamanrasset 22.79-5.529 3.291921pr865
************************************************************
Dead Time -------------------------  2.8E-08 
Number of Cycles Used -------------  4 
Starting Wavelength (Angstroms) ---  3331 
Final Wavelength (Angstoms) -------  3351 
Wavelength Increment (Angstroms) --  .25 
Filter Wheel #1 Position ---------- (1) Ground quartz diffuser (ND=2.32)
Filter Wheel #2 Position ---------- (0) Clear Aperture



************************************************************
HL scan start time = 03:53:40
Dark Count =  5.1 


Time (GMT)  Wavelength (Ang)  Step Number  Raw Counts  Counts/Second

  234.17        3331.00           6581          33.00       121.62
  234.39        3331.25           6585          36.00       134.70
  234.42        3331.50           6589          37.00       139.06
  234.44        3331.75           6593          33.00       121.62
  234.47        3332.00           6596          33.00       121.62
  234.50        3332.25           6600          31.00       112.90
  234.53        3332.50           6604          32.00       117.26
  234.55        3332.75           6608          33.00       121.62
  234.58        3333.00           6611          32.00       117.26
  234.61        3333.25           6615          33.00       121.62
  234.63        3333.50           6619          32.00       117.26
  234.66        3333.75           6623          30.00       108.54
  234.69        3334.00           6626          34.00       125.98
  234.72        3334.25           6630          36.00       134.70
  234.74        3334.50           6634          30.00       108.54
  234.77        3334.75           6638          29.00       104.19
  234.80        3335.00           6641          29.00       104.19
  234.83        3335.25           6645          34.00       125.98
  234.85        3335.50           6649          42.00       160.86
  234.88        3335.75           6653          55.00       217.53
  234.91        3336.00           6656         113.00       470.36
  234.93        3336.25           6660         406.00      1747.69
  234.96        3336.50           6664        1049.00      4551.15
  234.99        3336.75           6668        1579.00      6862.26
  235.02        3337.00           6671        2343.00     10194.28
  235.04        3337.25           6675        4027.00     17540.87
  235.07        3337.50           6679        6142.00     26772.02
  235.10        3337.75           6683        8273.00     36077.84
  235.13        3338.00           6686        9862.00     43019.97
  235.15        3338.25           6690       11896.00     51910.19
  235.18        3338.50           6694       14107.00     61579.06
  235.21        3338.75           6698       16283.00     71100.00
  235.24        3339.00           6701       17855.00     77981.33
  235.26        3339.25           6705       19904.00     86954.71
  235.29        3339.50           6709       22404.00     97909.30
  235.32        3339.75           6713       24388.00    106607.70
  235.34        3340.00           6716       25949.00    113454.50
  235.37        3340.25           6720       28244.00    123525.50
  235.40        3340.50           6724       30147.00    131880.60
  235.43        3340.75           6728       32156.00    140705.40
  235.45        3341.00           6731       33672.00    147367.50
  235.48        3341.25           6735       35258.00    154339.90
  235.51        3341.50           6739       36873.00    161442.60
  235.54        3341.75           6743       37534.00    164350.50
  235.56        3342.00           6746       37503.00    164214.10
  235.59        3342.25           6750       37068.00    162300.40
  235.62        3342.50           6754       35477.00    155302.90
  235.65        3342.75           6758       33343.00    145921.50
  235.67        3343.00           6761       32176.00    140793.30
  235.70        3343.25           6765       30034.00    131384.40
  235.73        3343.50           6769       28013.00    122511.50
  235.75        3343.75           6773       25911.00    113287.70
  235.78        3344.00           6776       24328.00    106344.50
  235.81        3344.25           6780       22313.00     97510.43
  235.84        3344.50           6784       20247.00     88457.28
  235.86        3344.75           6788       17918.00     78257.18
  235.89        3345.00           6791       16060.00     70124.05
  235.92        3345.25           6795       13644.00     59553.90
  235.95        3345.50           6799       10607.00     46275.71
  235.97        3345.75           6803        8113.00     35378.97
  236.00        3346.00           6806        6559.00     28592.63
  236.03        3346.25           6810        4507.00     19635.47
  236.06        3346.50           6814        3560.00     15503.24
  236.08        3346.75           6818        2267.00      9862.79
  236.11        3347.00           6821        1441.00      6260.47
  236.14        3347.25           6825         484.00      2087.74
  236.16        3347.50           6829         112.00       466.00
  236.19        3347.75           6833          46.00       178.29
  236.22        3348.00           6836          33.00       121.62
  236.25        3348.25           6840          40.00       152.14
  236.27        3348.50           6844          34.00       125.98
  236.30        3348.75           6848          35.00       130.34
  236.33        3349.00           6851          35.00       130.34
  236.35        3349.25           6855          34.00       125.98
  236.38        3349.50           6859          33.00       121.62
  236.41        3349.75           6863          35.00       130.34
  236.44        3350.00           6867          37.00       139.06
  236.46        3350.25           6870          32.00       117.26
  236.49        3350.50           6874          40.00       152.14
  236.52        3350.75           6878          38.00       143.42
  236.54        3351.00           6882          33.00       121.62
HL scan finished at 03:57:10
end
