************************************************************
  HL Scan of (1) Internal mercury lamp
************************************************************
Integration time is 0.2294 seconds per sample
dh110918Tamanrasset 22.79-5.529 4.974364pr865
************************************************************
Dead Time -------------------------  2.8E-08 
Number of Cycles Used -------------  4 
Starting Wavelength (Angstroms) ---  3331 
Final Wavelength (Angstoms) -------  3351 
Wavelength Increment (Angstroms) --  .25 
Filter Wheel #1 Position ---------- (1) Ground quartz diffuser (ND=2.32)
Filter Wheel #2 Position ---------- (0) Clear Aperture



************************************************************
HL scan start time = 03:52:04
Dark Count =  5 


Time (GMT)  Wavelength (Ang)  Step Number  Raw Counts  Counts/Second

  232.57        3331.00           6581          34.00       126.42
  232.79        3331.25           6585          29.00       104.62
  232.82        3331.50           6589          29.00       104.62
  232.85        3331.75           6593          33.00       122.06
  232.87        3332.00           6596          29.00       104.62
  232.90        3332.25           6600          28.00       100.26
  232.93        3332.50           6604          33.00       122.06
  232.95        3332.75           6608          36.00       135.14
  232.98        3333.00           6611          33.00       122.06
  233.01        3333.25           6615          37.00       139.49
  233.04        3333.50           6619          35.00       130.78
  233.06        3333.75           6623          31.00       113.34
  233.09        3334.00           6626          33.00       122.06
  233.12        3334.25           6630          37.00       139.49
  233.14        3334.50           6634          34.00       126.42
  233.17        3334.75           6638          32.00       117.70
  233.20        3335.00           6641          30.00       108.98
  233.23        3335.25           6645          45.00       174.37
  233.25        3335.50           6649          45.00       174.37
  233.28        3335.75           6653          62.00       248.48
  233.31        3336.00           6656         155.00       653.89
  233.33        3336.25           6660         525.00      2266.93
  233.36        3336.50           6664        1168.00      5070.47
  233.39        3336.75           6668        2142.00      9318.04
  233.42        3337.00           6671        2790.00     12144.50
  233.44        3337.25           6675        4604.00     20059.22
  233.47        3337.50           6679        6663.00     29047.16
  233.50        3337.75           6683        8785.00     38314.84
  233.52        3338.00           6686       10341.00     45113.62
  233.55        3338.25           6690       12492.00     54516.46
  233.58        3338.50           6694       14659.00     63994.26
  233.61        3338.75           6698       16824.00     73468.33
  233.63        3339.00           6701       18419.00     80451.30
  233.66        3339.25           6705       20910.00     91362.46
  233.69        3339.50           6709       23117.00    101035.20
  233.72        3339.75           6713       25169.00    110033.40
  233.74        3340.00           6716       26830.00    117320.30
  233.77        3340.25           6720       29027.00    126963.20
  233.80        3340.50           6724       31038.00    135794.40
  233.83        3340.75           6728       33029.00    144542.00
  233.85        3341.00           6731       34650.00    151667.10
  233.88        3341.25           6735       36242.00    158667.60
  233.91        3341.50           6739       37574.00    164526.90
  233.93        3341.75           6743       38221.00    167373.70
  233.96        3342.00           6746       38209.00    167320.90
  233.99        3342.25           6750       37548.00    164412.50
  234.02        3342.50           6754       35772.00    156600.60
  234.04        3342.75           6758       33409.00    146212.00
  234.07        3343.00           6761       31936.00    139739.20
  234.10        3343.25           6765       30210.00    132157.70
  234.13        3343.50           6769       28096.00    122876.30
  234.15        3343.75           6773       25964.00    113520.70
  234.18        3344.00           6776       24132.00    105485.50
  234.21        3344.25           6780       22028.00     96261.72
  234.23        3344.50           6784       19853.00     86731.72
  234.26        3344.75           6788       17707.00     77333.80
  234.29        3345.00           6791       15676.00     68444.04
  234.32        3345.25           6795       12895.00     56278.68
  234.34        3345.50           6799        9810.00     42793.18
  234.37        3345.75           6803        7662.00     33409.62
  234.40        3346.00           6806        6084.00     26519.25
  234.43        3346.25           6810        4084.00     17790.03
  234.45        3346.50           6814        2858.00     12441.13
  234.48        3346.75           6818        1988.00      8646.38
  234.51        3347.00           6821        1223.00      5310.29
  234.54        3347.25           6825         367.00      1578.10
  234.56        3347.50           6829          77.00       313.87
  234.59        3347.75           6833          36.00       135.14
  234.62        3348.00           6836          45.00       174.37
  234.64        3348.25           6840          35.00       130.78
  234.67        3348.50           6844          38.00       143.85
  234.70        3348.75           6848          35.00       130.78
  234.73        3349.00           6851          30.00       108.98
  234.75        3349.25           6855          38.00       143.85
  234.78        3349.50           6859          35.00       130.78
  234.81        3349.75           6863          35.00       130.78
  234.83        3350.00           6867          43.00       165.65
  234.86        3350.25           6870          32.00       117.70
  234.89        3350.50           6874          37.00       139.49
  234.92        3350.75           6878          35.00       130.78
  234.94        3351.00           6882          37.00       139.49
HL scan finished at 03:55:34
end
