************************************************************
  HL Scan of (1) Internal mercury lamp
************************************************************
Integration time is 0.2294 seconds per sample
dh080918Tamanrasset 22.79-5.529 4.974364pr865
************************************************************
Dead Time -------------------------  2.8E-08 
Number of Cycles Used -------------  4 
Starting Wavelength (Angstroms) ---  3331 
Final Wavelength (Angstoms) -------  3351 
Wavelength Increment (Angstroms) --  .25 
Filter Wheel #1 Position ---------- (1) Ground quartz diffuser (ND=2.32)
Filter Wheel #2 Position ---------- (0) Clear Aperture



************************************************************
HL scan start time = 03:51:01
Dark Count =  6.4 


Time (GMT)  Wavelength (Ang)  Step Number  Raw Counts  Counts/Second

  231.54        3331.00           6581          30.00       102.88
  231.75        3331.25           6585          35.00       124.67
  231.78        3331.50           6589          34.00       120.31
  231.81        3331.75           6593          30.00       102.88
  231.84        3332.00           6596          32.00       111.60
  231.86        3332.25           6600          30.00       102.88
  231.89        3332.50           6604          32.00       111.60
  231.92        3332.75           6608          29.00        98.52
  231.94        3333.00           6611          34.00       120.31
  231.97        3333.25           6615          34.00       120.31
  232.00        3333.50           6619          32.00       111.60
  232.03        3333.75           6623          33.00       115.96
  232.05        3334.00           6626          29.00        98.52
  232.08        3334.25           6630          34.00       120.31
  232.11        3334.50           6634          30.00       102.88
  232.13        3334.75           6638          30.00       102.88
  232.16        3335.00           6641          40.00       146.47
  232.19        3335.25           6645          34.00       120.31
  232.22        3335.50           6649          43.00       159.55
  232.24        3335.75           6653          62.00       242.37
  232.27        3336.00           6656         135.00       560.60
  232.30        3336.25           6660         458.00      1968.72
  232.32        3336.50           6664        1102.00      4776.58
  232.35        3336.75           6668        1924.00      8361.16
  232.38        3337.00           6671        2402.00     10445.95
  232.41        3337.25           6675        4237.00     18451.56
  232.43        3337.50           6679        6190.00     26975.91
  232.46        3337.75           6683        8262.00     36024.11
  232.49        3338.00           6686        9885.00     43114.79
  232.51        3338.25           6690       12123.00     52896.95
  232.54        3338.50           6694       14267.00     62273.27
  232.57        3338.75           6698       16472.00     71921.50
  232.60        3339.00           6701       18159.00     79306.68
  232.62        3339.25           6705       20178.00     88149.30
  232.65        3339.50           6709       22409.00     97925.50
  232.68        3339.75           6713       24633.00    107676.40
  232.71        3340.00           6716       26219.00    114633.30
  232.73        3340.25           6720       28393.00    124173.80
  232.76        3340.50           6724       30517.00    133499.90
  232.79        3340.75           6728       32541.00    142391.40
  232.82        3341.00           6731       34215.00    149748.60
  232.84        3341.25           6735       35684.00    156207.50
  232.87        3341.50           6739       36919.00    161639.30
  232.90        3341.75           6743       37723.00    165176.30
  232.92        3342.00           6746       37703.00    165088.30
  232.95        3342.25           6750       37235.00    163029.40
  232.98        3342.50           6754       35269.00    154382.60
  233.01        3342.75           6758       33321.00    145819.10
  233.03        3343.00           6761       31854.00    139372.80
  233.06        3343.25           6765       30103.00    131681.70
  233.09        3343.50           6769       27918.00    122088.80
  233.12        3343.75           6773       25818.00    112874.10
  233.14        3344.00           6776       24022.00    104997.00
  233.17        3344.25           6780       22075.00     96461.59
  233.20        3344.50           6784       19727.00     86173.68
  233.23        3344.75           6788       17180.00     75020.54
  233.25        3345.00           6791       15147.00     66123.18
  233.28        3345.25           6795       12769.00     55721.57
  233.31        3345.50           6799       10008.00     43652.28
  233.33        3345.75           6803        7751.00     33792.20
  233.36        3346.00           6806        6138.00     26748.89
  233.39        3346.25           6810        4084.00     17783.92
  233.42        3346.50           6814        2740.00     11920.28
  233.44        3346.75           6818        1821.00      7911.95
  233.47        3347.00           6821        1138.00      4933.55
  233.50        3347.25           6825         321.00      1371.46
  233.53        3347.50           6829          62.00       242.37
  233.55        3347.75           6833          48.00       181.34
  233.58        3348.00           6836          34.00       120.31
  233.61        3348.25           6840          37.00       133.39
  233.63        3348.50           6844          31.00       107.24
  233.66        3348.75           6848          34.00       120.31
  233.69        3349.00           6851          37.00       133.39
  233.71        3349.25           6855          36.00       129.03
  233.74        3349.50           6859          38.00       137.75
  233.77        3349.75           6863          37.00       133.39
  233.80        3350.00           6867          29.00        98.52
  233.82        3350.25           6870          43.00       159.55
  233.85        3350.50           6874          42.00       155.19
  233.88        3350.75           6878          36.00       129.03
  233.90        3351.00           6882          35.00       124.67
HL scan finished at 03:54:32
end
