************************************************************
  HL Scan of (1) Internal mercury lamp
************************************************************
Integration time is 0.2294 seconds per sample
dh120918Tamanrasset 22.79-5.529 4.974364pr865
************************************************************
Dead Time -------------------------  2.8E-08 
Number of Cycles Used -------------  4 
Starting Wavelength (Angstroms) ---  3331 
Final Wavelength (Angstoms) -------  3351 
Wavelength Increment (Angstroms) --  .25 
Filter Wheel #1 Position ---------- (1) Ground quartz diffuser (ND=2.32)
Filter Wheel #2 Position ---------- (0) Clear Aperture



************************************************************
HL scan start time = 03:54:03
Dark Count =  4.5 


Time (GMT)  Wavelength (Ang)  Step Number  Raw Counts  Counts/Second

  234.56        3331.00           6581          32.00       119.88
  234.78        3331.25           6585          33.00       124.24
  234.81        3331.50           6589          29.00       106.80
  234.83        3331.75           6593          29.00       106.80
  234.86        3332.00           6596          26.00        93.72
  234.89        3332.25           6600          27.00        98.08
  234.92        3332.50           6604          30.00       111.16
  234.94        3332.75           6608          30.00       111.16
  234.97        3333.00           6611          32.00       119.88
  235.00        3333.25           6615          32.00       119.88
  235.02        3333.50           6619          32.00       119.88
  235.05        3333.75           6623          30.00       111.16
  235.08        3334.00           6626          32.00       119.88
  235.11        3334.25           6630          24.00        85.00
  235.13        3334.50           6634          32.00       119.88
  235.16        3334.75           6638          41.00       159.11
  235.19        3335.00           6641          30.00       111.16
  235.21        3335.25           6645          33.00       124.24
  235.24        3335.50           6649          44.00       172.19
  235.27        3335.75           6653          42.00       163.47
  235.30        3336.00           6656          61.00       246.30
  235.32        3336.25           6660         195.00       830.45
  235.35        3336.50           6664         624.00      2700.73
  235.38        3336.75           6668        1050.00      4558.12
  235.41        3337.00           6671        1419.00      6167.15
  235.43        3337.25           6675        2742.00     11937.29
  235.46        3337.50           6679        4443.00     19358.79
  235.49        3337.75           6683        6285.00     27398.96
  235.51        3338.00           6686        7728.00     33700.05
  235.54        3338.25           6690        9729.00     42441.43
  235.57        3338.50           6694       11633.00     50763.04
  235.60        3338.75           6698       13420.00     58576.82
  235.62        3339.00           6701       14928.00     65173.32
  235.65        3339.25           6705       16992.00     74205.90
  235.68        3339.50           6709       18882.00     82481.03
  235.70        3339.75           6713       20805.00     90904.59
  235.73        3340.00           6716       22358.00     97710.30
  235.76        3340.25           6720       24245.00    105983.20
  235.79        3340.50           6724       26281.00    114913.60
  235.81        3340.75           6728       27994.00    122430.80
  235.84        3341.00           6731       29510.00    129086.10
  235.87        3341.25           6735       31015.00    135695.50
  235.90        3341.50           6739       32320.00    141428.60
  235.92        3341.75           6743       33212.00    145348.40
  235.95        3342.00           6746       33536.00    146772.40
  235.98        3342.25           6750       33482.00    146535.10
  236.01        3342.50           6754       32618.00    142738.10
  236.03        3342.75           6758       30865.00    135036.70
  236.06        3343.00           6761       29805.00    130381.40
  236.09        3343.25           6765       27819.00    121662.70
  236.12        3343.50           6769       26143.00    114308.20
  236.14        3343.75           6773       24309.00    106263.80
  236.17        3344.00           6776       22781.00     99564.44
  236.20        3344.25           6780       20884.00     91250.72
  236.22        3344.50           6784       19019.00     83081.02
  236.25        3344.75           6788       17076.00     74573.60
  236.28        3345.00           6791       15124.00     66030.86
  236.31        3345.25           6795       13047.00     56945.57
  236.33        3345.50           6799       10292.00     44901.67
  236.36        3345.75           6803        8180.00     35674.24
  236.39        3346.00           6806        6676.00     29106.10
  236.42        3346.25           6810        4871.00     21226.65
  236.44        3346.50           6814        3717.00     16190.86
  236.47        3346.75           6818        2594.00     11291.71
  236.50        3347.00           6821        1810.00      7872.27
  236.53        3347.25           6825         739.00      3202.12
  236.55        3347.50           6829         216.00       921.99
  236.58        3347.75           6833          47.00       185.27
  236.61        3348.00           6836          37.00       141.67
  236.63        3348.25           6840          31.00       115.52
  236.66        3348.50           6844          41.00       159.11
  236.69        3348.75           6848          38.00       146.03
  236.72        3349.00           6851          31.00       115.52
  236.74        3349.25           6855          34.00       128.60
  236.77        3349.50           6859          36.00       137.32
  236.80        3349.75           6863          35.00       132.96
  236.82        3350.00           6867          30.00       111.16
  236.85        3350.25           6870          36.00       137.32
  236.88        3350.50           6874          35.00       132.96
  236.91        3350.75           6878          35.00       132.96
  236.93        3351.00           6882          37.00       141.67
HL scan finished at 03:57:33
end
