************************************************************
  HL Scan of (1) Internal mercury lamp
************************************************************
Integration time is 0.2294 seconds per sample
dh160918Tamanrasset 22.79-5.529 4.974364pr865
************************************************************
Dead Time -------------------------  2.8E-08 
Number of Cycles Used -------------  4 
Starting Wavelength (Angstroms) ---  3331 
Final Wavelength (Angstoms) -------  3351 
Wavelength Increment (Angstroms) --  .25 
Filter Wheel #1 Position ---------- (1) Ground quartz diffuser (ND=2.32)
Filter Wheel #2 Position ---------- (0) Clear Aperture



************************************************************
HL scan start time = 03:53:09
Dark Count =  5.3 


Time (GMT)  Wavelength (Ang)  Step Number  Raw Counts  Counts/Second

  233.66        3331.00           6581          32.00       116.39
  233.88        3331.25           6585          36.00       133.83
  233.91        3331.50           6589          36.00       133.83
  233.93        3331.75           6593          27.00        94.59
  233.96        3332.00           6596          31.00       112.03
  233.99        3332.25           6600          31.00       112.03
  234.01        3332.50           6604          23.00        77.16
  234.04        3332.75           6608          36.00       133.83
  234.07        3333.00           6611          30.00       107.67
  234.10        3333.25           6615          35.00       129.47
  234.12        3333.50           6619          37.00       138.19
  234.15        3333.75           6623          30.00       107.67
  234.18        3334.00           6626          29.00       103.31
  234.20        3334.25           6630          34.00       125.11
  234.23        3334.50           6634          32.00       116.39
  234.26        3334.75           6638          36.00       133.83
  234.29        3335.00           6641          31.00       112.03
  234.31        3335.25           6645          35.00       129.47
  234.34        3335.50           6649          41.00       155.62
  234.37        3335.75           6653          57.00       225.37
  234.39        3336.00           6656         130.00       543.60
  234.42        3336.25           6660         402.00      1729.38
  234.45        3336.50           6664         944.00      4092.45
  234.48        3336.75           6668        1676.00      7284.40
  234.50        3337.00           6671        2253.00      9800.86
  234.53        3337.25           6675        4001.00     17426.55
  234.56        3337.50           6679        5864.00     25557.52
  234.58        3337.75           6683        7805.00     34032.85
  234.61        3338.00           6686        9387.00     40943.60
  234.64        3338.25           6690       11474.00     50064.47
  234.67        3338.50           6694       13488.00     58870.73
  234.69        3338.75           6698       15520.00     67760.09
  234.72        3339.00           6701       17107.00     74705.80
  234.75        3339.25           6705       19329.00     84435.22
  234.78        3339.50           6709       21536.00     94104.21
  234.80        3339.75           6713       23419.00    102357.90
  234.83        3340.00           6716       25015.00    109356.60
  234.86        3340.25           6720       27097.00    118490.50
  234.89        3340.50           6724       28956.00    126650.20
  234.91        3340.75           6728       31250.00    136724.20
  234.94        3341.00           6731       32376.00    141671.20
  234.97        3341.25           6735       34040.00    148984.20
  234.99        3341.50           6739       35249.00    154299.50
  235.02        3341.75           6743       35998.00    157593.20
  235.05        3342.00           6746       36261.00    158749.90
  235.08        3342.25           6750       35483.00    155328.40
  235.11        3342.50           6754       34197.00    149674.40
  235.13        3342.75           6758       31893.00    139549.00
  235.16        3343.00           6761       30569.00    133733.10
  235.19        3343.25           6765       28937.00    126566.80
  235.21        3343.50           6769       26939.00    117797.20
  235.24        3343.75           6773       24967.00    109146.10
  235.27        3344.00           6776       23281.00    101752.90
  235.30        3344.25           6780       21276.00     92964.86
  235.32        3344.50           6784       19175.00     83760.74
  235.35        3344.75           6788       16965.00     74084.21
  235.38        3345.00           6791       15052.00     65712.35
  235.41        3345.25           6795       12553.00     54781.88
  235.43        3345.50           6799        9677.00     42210.71
  235.46        3345.75           6803        7571.00     33010.88
  235.49        3346.00           6806        6103.00     26600.89
  235.52        3346.25           6810        4128.00     17980.72
  235.54        3346.50           6814        3030.00     13190.14
  235.57        3346.75           6818        2049.00      8911.12
  235.60        3347.00           6821        1223.00      5308.98
  235.62        3347.25           6825         414.00      1781.69
  235.65        3347.50           6829          86.00       351.79
  235.68        3347.75           6833          40.00       151.26
  235.71        3348.00           6836          39.00       146.91
  235.73        3348.25           6840          38.00       142.55
  235.76        3348.50           6844          36.00       133.83
  235.79        3348.75           6848          36.00       133.83
  235.81        3349.00           6851          38.00       142.55
  235.84        3349.25           6855          30.00       107.67
  235.87        3349.50           6859          35.00       129.47
  235.90        3349.75           6863          38.00       142.55
  235.92        3350.00           6867          42.00       159.98
  235.95        3350.25           6870          40.00       151.26
  235.98        3350.50           6874          34.00       125.11
  236.00        3350.75           6878          35.00       129.47
  236.03        3351.00           6882          38.00       142.55
HL scan finished at 03:56:39
end
