************************************************************
  HL Scan of (1) Internal mercury lamp
************************************************************
Integration time is 0.2294 seconds per sample
dh130917Tamanrasset 22.79-5.529 3.246036pr865
************************************************************
Dead Time -------------------------  2.8E-08 
Number of Cycles Used -------------  4 
Starting Wavelength (Angstroms) ---  3331 
Final Wavelength (Angstoms) -------  3351 
Wavelength Increment (Angstroms) --  .25 
Filter Wheel #1 Position ---------- (1) Ground quartz diffuser (ND=2.32)
Filter Wheel #2 Position ---------- (0) Clear Aperture



************************************************************
HL scan start time = 03:53:40
Dark Count =  5.2 


Time (GMT)  Wavelength (Ang)  Step Number  Raw Counts  Counts/Second

  234.17        3331.00           6581          33.00       121.19
  234.39        3331.25           6585          34.00       125.55
  234.42        3331.50           6589          27.00        95.03
  234.45        3331.75           6593          28.00        99.39
  234.47        3332.00           6596          30.00       108.11
  234.50        3332.25           6600          33.00       121.19
  234.53        3332.50           6604          31.00       112.47
  234.56        3332.75           6608          35.00       129.90
  234.58        3333.00           6611          36.00       134.26
  234.61        3333.25           6615          38.00       142.98
  234.64        3333.50           6619          31.00       112.47
  234.67        3333.75           6623          28.00        99.39
  234.69        3334.00           6626          29.00       103.75
  234.72        3334.25           6630          33.00       121.19
  234.75        3334.50           6634          36.00       134.26
  234.77        3334.75           6638          35.00       129.90
  234.80        3335.00           6641          38.00       142.98
  234.83        3335.25           6645          38.00       142.98
  234.86        3335.50           6649          43.00       164.78
  234.88        3335.75           6653          51.00       199.65
  234.91        3336.00           6656         115.00       478.65
  234.94        3336.25           6660         403.00      1734.17
  234.97        3336.50           6664         996.00      4319.62
  234.99        3336.75           6668        1591.00      6914.16
  235.02        3337.00           6671        2092.00      9099.09
  235.05        3337.25           6675        3753.00     16344.88
  235.08        3337.50           6679        5708.00     24876.96
  235.10        3337.75           6683        7840.00     34186.16
  235.13        3338.00           6686        9277.00     40463.43
  235.16        3338.25           6690       11310.00     49348.00
  235.18        3338.50           6694       13469.00     58788.07
  235.21        3338.75           6698       15485.00     67607.38
  235.24        3339.00           6701       16987.00     74180.96
  235.27        3339.25           6705       18941.00     82736.36
  235.29        3339.50           6709       21246.00     92833.85
  235.32        3339.75           6713       23164.00    101240.40
  235.35        3340.00           6716       24819.00    108497.40
  235.38        3340.25           6720       26849.00    117402.80
  235.40        3340.50           6724       29143.00    127471.60
  235.43        3340.75           6728       31017.00    135701.20
  235.46        3341.00           6731       32524.00    142321.90
  235.49        3341.25           6735       34050.00    149028.60
  235.51        3341.50           6739       35243.00    154273.50
  235.54        3341.75           6743       36114.00    158103.80
  235.57        3342.00           6746       35876.00    157057.10
  235.59        3342.25           6750       35718.00    156362.30
  235.62        3342.50           6754       34310.00    150171.60
  235.65        3342.75           6758       31908.00    139615.40
  235.68        3343.00           6761       30590.00    133825.70
  235.70        3343.25           6765       28669.00    125390.70
  235.73        3343.50           6769       27142.00    118688.50
  235.76        3343.75           6773       25028.00    109414.00
  235.79        3344.00           6776       23390.00    102231.20
  235.81        3344.25           6780       21235.00     92785.65
  235.84        3344.50           6784       19212.00     83923.22
  235.87        3344.75           6788       17093.00     74644.96
  235.90        3345.00           6791       15361.00     67064.78
  235.92        3345.25           6795       13283.00     57974.59
  235.95        3345.50           6799       10149.00     44273.68
  235.98        3345.75           6803        7788.00     33959.04
  236.00        3346.00           6806        6244.00     27216.90
  236.03        3346.25           6810        4349.00     18945.53
  236.06        3346.50           6814        3213.00     13988.91
  236.09        3346.75           6818        2026.00      8811.24
  236.11        3347.00           6821        1287.00      5588.49
  236.14        3347.25           6825         401.00      1725.45
  236.17        3347.50           6829          87.00       356.59
  236.20        3347.75           6833          41.00       156.06
  236.22        3348.00           6836          35.00       129.90
  236.25        3348.25           6840          41.00       156.06
  236.28        3348.50           6844          36.00       134.26
  236.30        3348.75           6848          39.00       147.34
  236.33        3349.00           6851          31.00       112.47
  236.36        3349.25           6855          36.00       134.26
  236.39        3349.50           6859          35.00       129.90
  236.41        3349.75           6863          35.00       129.90
  236.44        3350.00           6867          37.00       138.62
  236.47        3350.25           6870          36.00       134.26
  236.49        3350.50           6874          37.00       138.62
  236.52        3350.75           6878          37.00       138.62
  236.55        3351.00           6882          37.00       138.62
HL scan finished at 03:57:10
end
