************************************************************
  HL Scan of (1) Internal mercury lamp
************************************************************
Integration time is 0.2294 seconds per sample
dh100917Tamanrasset 22.79-5.529 3.281725pr865
************************************************************
Dead Time -------------------------  2.8E-08 
Number of Cycles Used -------------  4 
Starting Wavelength (Angstroms) ---  3331 
Final Wavelength (Angstoms) -------  3351 
Wavelength Increment (Angstroms) --  .25 
Filter Wheel #1 Position ---------- (1) Ground quartz diffuser (ND=2.32)
Filter Wheel #2 Position ---------- (0) Clear Aperture



************************************************************
HL scan start time = 03:51:36
Dark Count =  6.3 


Time (GMT)  Wavelength (Ang)  Step Number  Raw Counts  Counts/Second

  232.11        3331.00           6581          26.00        85.88
  232.33        3331.25           6585          37.00       133.83
  232.35        3331.50           6589          37.00       133.83
  232.38        3331.75           6593          35.00       125.11
  232.41        3332.00           6596          26.00        85.88
  232.44        3332.25           6600          32.00       112.03
  232.46        3332.50           6604          36.00       129.47
  232.49        3332.75           6608          32.00       112.03
  232.52        3333.00           6611          28.00        94.59
  232.54        3333.25           6615          35.00       125.11
  232.57        3333.50           6619          33.00       116.39
  232.60        3333.75           6623          30.00       103.31
  232.63        3334.00           6626          36.00       129.47
  232.65        3334.25           6630          29.00        98.95
  232.68        3334.50           6634          38.00       138.19
  232.71        3334.75           6638          30.00       103.31
  232.73        3335.00           6641          34.00       120.75
  232.76        3335.25           6645          29.00        98.95
  232.79        3335.50           6649          43.00       159.98
  232.81        3335.75           6653          47.00       177.42
  232.84        3336.00           6656         105.00       430.26
  232.87        3336.25           6660         359.00      1537.56
  232.90        3336.50           6664        1073.00      4650.56
  232.92        3336.75           6668        1841.00      7999.61
  232.95        3337.00           6671        2235.00      9717.99
  232.98        3337.25           6675        3945.00     17177.83
  233.01        3337.50           6679        5921.00     25801.99
  233.03        3337.75           6683        8032.00     35019.94
  233.06        3338.00           6686        9594.00     41843.68
  233.09        3338.25           6690       11641.00     50790.14
  233.12        3338.50           6694       13773.00     60112.87
  233.14        3338.75           6698       15836.00     69138.51
  233.17        3339.00           6701       17492.00     76386.83
  233.20        3339.25           6705       19599.00     85613.44
  233.22        3339.50           6709       21798.00     95248.02
  233.25        3339.75           6713       23906.00    104488.80
  233.28        3340.00           6716       25415.00    111106.70
  233.31        3340.25           6720       27659.00    120952.50
  233.33        3340.50           6724       29748.00    130123.20
  233.36        3340.75           6728       31728.00    138819.70
  233.39        3341.00           6731       33347.00    145933.80
  233.42        3341.25           6735       34930.00    152892.50
  233.44        3341.50           6739       36331.00    159053.30
  233.47        3341.75           6743       37051.00    162220.30
  233.50        3342.00           6746       37022.00    162092.80
  233.52        3342.25           6750       36483.00    159721.90
  233.55        3342.50           6754       35276.00    154413.80
  233.58        3342.75           6758       32878.00    143872.70
  233.61        3343.00           6761       31274.00    136825.30
  233.64        3343.25           6765       29389.00    128546.90
  233.66        3343.50           6769       27619.00    120777.00
  233.69        3343.75           6773       25546.00    111681.30
  233.72        3344.00           6776       23848.00    104234.50
  233.74        3344.25           6780       21768.00     95116.54
  233.77        3344.50           6784       19572.00     85495.18
  233.80        3344.75           6788       17451.00     76207.34
  233.83        3345.00           6791       15623.00     68206.43
  233.85        3345.25           6795       13323.00     58144.72
  233.88        3345.50           6799       10232.00     44631.60
  233.91        3345.75           6803        7770.00     33875.63
  233.94        3346.00           6806        6272.00     27334.34
  233.96        3346.25           6810        4287.00     18670.18
  233.99        3346.50           6814        2984.00     12985.11
  234.02        3346.75           6818        2021.00      8784.64
  234.04        3347.00           6821        1267.00      5496.49
  234.07        3347.25           6825         407.00      1746.82
  234.10        3347.50           6829          87.00       351.79
  234.13        3347.75           6833          39.00       142.55
  234.15        3348.00           6836          41.00       151.26
  234.18        3348.25           6840          43.00       159.98
  234.21        3348.50           6844          39.00       142.55
  234.23        3348.75           6848          38.00       138.19
  234.26        3349.00           6851          37.00       133.83
  234.29        3349.25           6855          43.00       159.98
  234.32        3349.50           6859          36.00       129.47
  234.34        3349.75           6863          37.00       133.83
  234.37        3350.00           6867          32.00       112.03
  234.40        3350.25           6870          35.00       125.11
  234.42        3350.50           6874          37.00       133.83
  234.45        3350.75           6878          39.00       142.55
  234.48        3351.00           6882          34.00       120.75
HL scan finished at 03:55:06
end
