************************************************************
  HL Scan of (1) Internal mercury lamp
************************************************************
Integration time is 0.2294 seconds per sample
dh150918Tamanrasset 22.79-5.529 4.974364pr865
************************************************************
Dead Time -------------------------  2.8E-08 
Number of Cycles Used -------------  4 
Starting Wavelength (Angstroms) ---  3331 
Final Wavelength (Angstoms) -------  3351 
Wavelength Increment (Angstroms) --  .25 
Filter Wheel #1 Position ---------- (1) Ground quartz diffuser (ND=2.32)
Filter Wheel #2 Position ---------- (0) Clear Aperture



************************************************************
HL scan start time = 03:54:16
Dark Count =  6.2 


Time (GMT)  Wavelength (Ang)  Step Number  Raw Counts  Counts/Second

  234.77        3331.00           6581          29.00        99.39
  234.99        3331.25           6585          35.00       125.55
  235.02        3331.50           6589          31.00       108.11
  235.05        3331.75           6593          30.00       103.75
  235.07        3332.00           6596          33.00       116.83
  235.10        3332.25           6600          30.00       103.75
  235.13        3332.50           6604          32.00       112.47
  235.15        3332.75           6608          34.00       121.19
  235.18        3333.00           6611          40.00       147.34
  235.21        3333.25           6615          33.00       116.83
  235.24        3333.50           6619          27.00        90.67
  235.26        3333.75           6623          28.00        95.03
  235.29        3334.00           6626          38.00       138.62
  235.32        3334.25           6630          32.00       112.47
  235.35        3334.50           6634          35.00       125.55
  235.37        3334.75           6638          28.00        95.03
  235.40        3335.00           6641          33.00       116.83
  235.43        3335.25           6645          39.00       142.98
  235.45        3335.50           6649          48.00       182.22
  235.48        3335.75           6653          41.00       151.70
  235.51        3336.00           6656         127.00       526.60
  235.54        3336.25           6660         373.00      1599.03
  235.56        3336.50           6664        1001.00      4337.06
  235.59        3336.75           6668        1919.00      8340.22
  235.62        3337.00           6671        2240.00      9740.23
  235.64        3337.25           6675        3818.00     16624.13
  235.67        3337.50           6679        5888.00     25658.36
  235.70        3337.75           6683        7822.00     34103.17
  235.73        3338.00           6686        9428.00     41118.81
  235.75        3338.25           6690       11415.00     49802.62
  235.78        3338.50           6694       13547.00     59124.83
  235.81        3338.75           6698       15545.00     67865.54
  235.83        3339.00           6701       17191.00     75069.58
  235.86        3339.25           6705       19273.00     84186.01
  235.89        3339.50           6709       21372.00     93381.60
  235.92        3339.75           6713       23628.00    103270.30
  235.94        3340.00           6716       25237.00    110326.40
  235.97        3340.25           6720       27307.00    119408.20
  236.00        3340.50           6724       29464.00    128876.60
  236.03        3340.75           6728       31279.00    136847.70
  236.05        3341.00           6731       32822.00    143627.00
  236.08        3341.25           6735       34627.00    151560.70
  236.11        3341.50           6739       35984.00    157527.70
  236.14        3341.75           6743       36883.00    161481.80
  236.16        3342.00           6746       36963.00    161833.70
  236.19        3342.25           6750       36658.00    160492.10
  236.22        3342.50           6754       35314.00    154581.30
  236.24        3342.75           6758       33189.00    145239.90
  236.27        3343.00           6761       31599.00    138253.40
  236.30        3343.25           6765       29647.00    129680.10
  236.33        3343.50           6769       27915.00    122076.60
  236.35        3343.75           6773       25912.00    113287.30
  236.38        3344.00           6776       24299.00    106212.50
  236.41        3344.25           6780       22068.00     96431.78
  236.44        3344.50           6784       19985.00     87304.71
  236.46        3344.75           6788       17981.00     78528.20
  236.49        3345.00           6791       16057.00     70106.10
  236.52        3345.25           6795       13628.00     59479.10
  236.55        3345.50           6799       10516.00     45873.19
  236.57        3345.75           6803        8287.00     36134.19
  236.60        3346.00           6806        6749.00     29417.42
  236.63        3346.25           6810        4760.00     20734.79
  236.65        3346.50           6814        3157.00     13740.25
  236.68        3346.75           6818        2097.00      9116.54
  236.71        3347.00           6821        1534.00      6661.23
  236.74        3347.25           6825         577.00      2488.40
  236.76        3347.50           6829         121.00       500.44
  236.79        3347.75           6833          41.00       151.70
  236.82        3348.00           6836          38.00       138.62
  236.84        3348.25           6840          40.00       147.34
  236.87        3348.50           6844          31.00       108.11
  236.90        3348.75           6848          36.00       129.90
  236.93        3349.00           6851          32.00       112.47
  236.95        3349.25           6855          38.00       138.62
  236.98        3349.50           6859          31.00       108.11
  237.01        3349.75           6863          35.00       125.55
  237.03        3350.00           6867          39.00       142.98
  237.06        3350.25           6870          36.00       129.90
  237.09        3350.50           6874          34.00       121.19
  237.12        3350.75           6878          37.00       134.26
  237.14        3351.00           6882          40.00       147.34
HL scan finished at 03:57:46
end
