************************************************************
  HL Scan of (1) Internal mercury lamp
************************************************************
Integration time is 0.2294 seconds per sample
dh090917Tamanrasset 22.79-5.529 3.154266pr865
************************************************************
Dead Time -------------------------  2.8E-08 
Number of Cycles Used -------------  4 
Starting Wavelength (Angstroms) ---  3331 
Final Wavelength (Angstoms) -------  3351 
Wavelength Increment (Angstroms) --  .25 
Filter Wheel #1 Position ---------- (1) Ground quartz diffuser (ND=2.32)
Filter Wheel #2 Position ---------- (0) Clear Aperture



************************************************************
HL scan start time = 03:52:11
Dark Count =  4.5 


Time (GMT)  Wavelength (Ang)  Step Number  Raw Counts  Counts/Second

  232.70        3331.00           6581          21.00        71.93
  232.91        3331.25           6585          34.00       128.60
  232.94        3331.50           6589          32.00       119.88
  232.97        3331.75           6593          26.00        93.72
  233.00        3332.00           6596          31.00       115.52
  233.02        3332.25           6600          31.00       115.52
  233.05        3332.50           6604          32.00       119.88
  233.08        3332.75           6608          31.00       115.52
  233.10        3333.00           6611          28.00       102.44
  233.13        3333.25           6615          30.00       111.16
  233.16        3333.50           6619          29.00       106.80
  233.19        3333.75           6623          26.00        93.72
  233.21        3334.00           6626          30.00       111.16
  233.24        3334.25           6630          30.00       111.16
  233.27        3334.50           6634          31.00       115.52
  233.29        3334.75           6638          29.00       106.80
  233.32        3335.00           6641          37.00       141.67
  233.35        3335.25           6645          33.00       124.24
  233.38        3335.50           6649          41.00       159.11
  233.40        3335.75           6653          55.00       220.14
  233.43        3336.00           6656         123.00       516.57
  233.46        3336.25           6660         383.00      1650.03
  233.49        3336.50           6664         777.00      3367.80
  233.51        3336.75           6668        1525.00      6629.39
  233.54        3337.00           6671        2127.00      9254.80
  233.57        3337.25           6675        3696.00     16099.24
  233.59        3337.50           6679        5580.00     24321.27
  233.62        3337.75           6683        7470.00     32573.29
  233.65        3338.00           6686        8884.00     38749.52
  233.68        3338.25           6690       10867.00     47414.70
  233.70        3338.50           6694       12769.00     55729.88
  233.73        3338.75           6698       14861.00     64880.19
  233.76        3339.00           6701       16235.00     70892.55
  233.78        3339.25           6705       18410.00     80414.08
  233.81        3339.50           6709       20405.00     89152.09
  233.84        3339.75           6713       22078.00     96483.06
  233.87        3340.00           6716       23566.00    103005.90
  233.89        3340.25           6720       25590.00    111882.20
  233.92        3340.50           6724       27554.00    120499.60
  233.95        3340.75           6728       29162.00    127558.10
  233.98        3341.00           6731       30605.00    133894.70
  234.00        3341.25           6735       32389.00    141731.80
  234.03        3341.50           6739       33324.00    145840.60
  234.06        3341.75           6743       34073.00    149132.80
  234.09        3342.00           6746       33954.00    148609.70
  234.11        3342.25           6750       33404.00    146192.20
  234.14        3342.50           6754       32046.00    140224.70
  234.17        3342.75           6758       30251.00    132340.00
  234.20        3343.00           6761       28796.00    125951.30
  234.22        3343.25           6765       26938.00    117796.40
  234.25        3343.50           6769       25045.00    109491.70
  234.28        3343.75           6773       23126.00    101076.90
  234.30        3344.00           6776       21688.00     94773.84
  234.33        3344.25           6780       19635.00     85779.01
  234.36        3344.50           6784       17923.00     78281.69
  234.39        3344.75           6788       15748.00     68761.29
  234.41        3345.00           6791       14049.00     61327.98
  234.44        3345.25           6795       11629.00     50745.55
  234.47        3345.50           6799        9053.00     39487.84
  234.50        3345.75           6803        7029.00     30647.48
  234.52        3346.00           6806        5609.00     24447.85
  234.55        3346.25           6810        4023.00     17526.04
  234.58        3346.50           6814        2849.00     12404.05
  234.61        3346.75           6818        1849.00      8042.35
  234.63        3347.00           6821        1173.00      5094.45
  234.66        3347.25           6825         362.00      1558.48
  234.69        3347.50           6829          73.00       298.61
  234.71        3347.75           6833          43.00       167.83
  234.74        3348.00           6836          32.00       119.88
  234.77        3348.25           6840          32.00       119.88
  234.79        3348.50           6844          33.00       124.24
  234.82        3348.75           6848          39.00       150.39
  234.85        3349.00           6851          34.00       128.60
  234.88        3349.25           6855          30.00       111.16
  234.90        3349.50           6859          36.00       137.32
  234.93        3349.75           6863          36.00       137.32
  234.96        3350.00           6867          41.00       159.11
  234.98        3350.25           6870          34.00       128.60
  235.01        3350.50           6874          30.00       111.16
  235.04        3350.75           6878          37.00       141.67
  235.07        3351.00           6882          31.00       115.52
HL scan finished at 03:55:41
end
