************************************************************
  HL Scan of (1) Internal mercury lamp
************************************************************
Integration time is 0.2294 seconds per sample
dh100918Tamanrasset 22.79-5.529 4.974364pr865
************************************************************
Dead Time -------------------------  2.8E-08 
Number of Cycles Used -------------  4 
Starting Wavelength (Angstroms) ---  3331 
Final Wavelength (Angstoms) -------  3351 
Wavelength Increment (Angstroms) --  .25 
Filter Wheel #1 Position ---------- (1) Ground quartz diffuser (ND=2.32)
Filter Wheel #2 Position ---------- (0) Clear Aperture



************************************************************
HL scan start time = 03:51:27
Dark Count =  5.1 


Time (GMT)  Wavelength (Ang)  Step Number  Raw Counts  Counts/Second

  231.96        3331.00           6581          29.00       104.19
  232.18        3331.25           6585          28.00        99.83
  232.20        3331.50           6589          31.00       112.90
  232.23        3331.75           6593          33.00       121.62
  232.26        3332.00           6596          34.00       125.98
  232.29        3332.25           6600          31.00       112.90
  232.31        3332.50           6604          34.00       125.98
  232.34        3332.75           6608          29.00       104.19
  232.37        3333.00           6611          29.00       104.19
  232.40        3333.25           6615          31.00       112.90
  232.42        3333.50           6619          31.00       112.90
  232.45        3333.75           6623          27.00        95.47
  232.48        3334.00           6626          32.00       117.26
  232.50        3334.25           6630          30.00       108.54
  232.53        3334.50           6634          38.00       143.42
  232.56        3334.75           6638          29.00       104.19
  232.59        3335.00           6641          31.00       112.90
  232.61        3335.25           6645          32.00       117.26
  232.64        3335.50           6649          43.00       165.21
  232.67        3335.75           6653          65.00       261.12
  232.69        3336.00           6656         145.00       609.86
  232.72        3336.25           6660         448.00      1930.79
  232.75        3336.50           6664        1052.00      4564.23
  232.78        3336.75           6668        1895.00      8240.35
  232.80        3337.00           6671        2477.00     10778.75
  232.83        3337.25           6675        4131.00     17994.68
  232.86        3337.50           6679        6002.00     26160.83
  232.88        3337.75           6683        7932.00     34588.41
  232.91        3338.00           6686        9486.00     41377.03
  232.94        3338.25           6690       11461.00     50008.51
  232.97        3338.50           6694       13249.00     57826.34
  232.99        3338.75           6698       15361.00     67065.24
  233.02        3339.00           6701       16759.00     73183.38
  233.05        3339.25           6705       18981.00     82911.97
  233.08        3339.50           6709       21085.00     92128.81
  233.10        3339.75           6713       22857.00     99894.98
  233.13        3340.00           6716       24395.00    106638.40
  233.16        3340.25           6720       26439.00    115604.20
  233.18        3340.50           6724       28395.00    124188.30
  233.21        3340.75           6728       30364.00    132833.60
  233.24        3341.00           6731       31674.00    138587.80
  233.27        3341.25           6735       33058.00    144669.00
  233.29        3341.50           6739       34119.00    149332.40
  233.32        3341.75           6743       34808.00    152361.30
  233.35        3342.00           6746       34885.00    152699.90
  233.38        3342.25           6750       34149.00    149464.20
  233.40        3342.50           6754       32572.00    142533.30
  233.43        3342.75           6758       30415.00    133057.60
  233.46        3343.00           6761       28847.00    126172.50
  233.49        3343.25           6765       27251.00    119167.20
  233.51        3343.50           6769       25513.00    111541.80
  233.54        3343.75           6773       23557.00    102963.80
  233.57        3344.00           6776       21908.00     95735.37
  233.59        3344.25           6780       20115.00     87879.02
  233.62        3344.50           6784       18060.00     78878.91
  233.65        3344.75           6788       15977.00     69760.81
  233.68        3345.00           6791       14213.00     62042.74
  233.70        3345.25           6795       11790.00     51446.78
  233.73        3345.50           6799        9089.00     39642.50
  233.76        3345.75           6803        6884.00     30011.70
  233.79        3346.00           6806        5408.00     23567.86
  233.81        3346.25           6810        3681.00     16031.17
  233.84        3346.50           6814        2461.00     10708.97
  233.87        3346.75           6818        1582.00      6875.34
  233.89        3347.00           6821         955.00      4141.28
  233.92        3347.25           6825         266.00      1137.35
  233.95        3347.50           6829          49.00       191.37
  233.98        3347.75           6833          46.00       178.29
  234.00        3348.00           6836          40.00       152.14
  234.03        3348.25           6840          38.00       143.42
  234.06        3348.50           6844          35.00       130.34
  234.08        3348.75           6848          33.00       121.62
  234.11        3349.00           6851          29.00       104.19
  234.14        3349.25           6855          38.00       143.42
  234.17        3349.50           6859          33.00       121.62
  234.19        3349.75           6863          40.00       152.14
  234.22        3350.00           6867          30.00       108.54
  234.25        3350.25           6870          34.00       125.98
  234.27        3350.50           6874          31.00       112.90
  234.30        3350.75           6878          37.00       139.06
  234.33        3351.00           6882          32.00       117.26
HL scan finished at 03:54:57
end
