************************************************************
  HL Scan of (1) Internal mercury lamp
************************************************************
Integration time is 0.2294 seconds per sample
dh190918Tamanrasset 22.79-5.529 4.974364pr865
************************************************************
Dead Time -------------------------  2.8E-08 
Number of Cycles Used -------------  4 
Starting Wavelength (Angstroms) ---  3331 
Final Wavelength (Angstoms) -------  3351 
Wavelength Increment (Angstroms) --  .25 
Filter Wheel #1 Position ---------- (1) Ground quartz diffuser (ND=2.32)
Filter Wheel #2 Position ---------- (0) Clear Aperture



************************************************************
HL scan start time = 03:55:04
Dark Count =  5.3 


Time (GMT)  Wavelength (Ang)  Step Number  Raw Counts  Counts/Second

  235.58        3331.00           6581          35.00       129.47
  235.80        3331.25           6585          30.00       107.67
  235.82        3331.50           6589          30.00       107.67
  235.85        3331.75           6593          30.00       107.67
  235.88        3332.00           6596          35.00       129.47
  235.90        3332.25           6600          29.00       103.31
  235.93        3332.50           6604          36.00       133.83
  235.96        3332.75           6608          34.00       125.11
  235.99        3333.00           6611          39.00       146.91
  236.01        3333.25           6615          31.00       112.03
  236.04        3333.50           6619          30.00       107.67
  236.07        3333.75           6623          30.00       107.67
  236.09        3334.00           6626          30.00       107.67
  236.12        3334.25           6630          38.00       142.55
  236.15        3334.50           6634          39.00       146.91
  236.18        3334.75           6638          33.00       120.75
  236.20        3335.00           6641          33.00       120.75
  236.23        3335.25           6645          43.00       164.34
  236.26        3335.50           6649          43.00       164.34
  236.28        3335.75           6653          65.00       260.25
  236.31        3336.00           6656         164.00       691.82
  236.34        3336.25           6660         503.00      2169.70
  236.37        3336.50           6664        1118.00      4851.14
  236.39        3336.75           6668        2051.00      8919.84
  236.42        3337.00           6671        2675.00     11641.55
  236.45        3337.25           6675        4486.00     19542.95
  236.48        3337.50           6679        6452.00     28124.59
  236.50        3337.75           6683        8475.00     36959.33
  236.53        3338.00           6686       10106.00     44085.34
  236.56        3338.25           6690       12359.00     53933.62
  236.58        3338.50           6694       14380.00     62772.40
  236.61        3338.75           6698       16398.00     71602.44
  236.64        3339.00           6701       17994.00     78589.05
  236.67        3339.25           6705       20060.00     87637.19
  236.69        3339.50           6709       22348.00     97662.96
  236.72        3339.75           6713       24511.00    107146.20
  236.75        3340.00           6716       25965.00    113523.80
  236.78        3340.25           6720       28256.00    123577.20
  236.80        3340.50           6724       30416.00    133061.10
  236.83        3340.75           6728       32293.00    141306.50
  236.86        3341.00           6731       33828.00    148052.30
  236.88        3341.25           6735       35445.00    155161.30
  236.91        3341.50           6739       36632.00    160381.60
  236.94        3341.75           6743       37138.00    162607.40
  236.97        3342.00           6746       36933.00    161705.70
  236.99        3342.25           6750       36222.00    158578.30
  237.02        3342.50           6754       34513.00    151063.50
  237.05        3342.75           6758       32334.00    141486.60
  237.08        3343.00           6761       30638.00    134036.10
  237.10        3343.25           6765       28733.00    125671.20
  237.13        3343.50           6769       26707.00    116779.20
  237.16        3343.75           6773       24727.00    108093.50
  237.19        3344.00           6776       23121.00    101051.40
  237.21        3344.25           6780       21103.00     92206.81
  237.24        3344.50           6784       19022.00     83090.65
  237.27        3344.75           6788       16667.00     72779.81
  237.30        3345.00           6791       14675.00     64062.94
  237.32        3345.25           6795       12141.00     52980.46
  237.35        3345.50           6799        9255.00     40366.88
  237.38        3345.75           6803        7094.00     30927.82
  237.40        3346.00           6806        5539.00     24138.81
  237.43        3346.25           6810        3695.00     16091.38
  237.46        3346.50           6814        2513.00     10934.91
  237.49        3346.75           6818        1547.00      6721.84
  237.51        3347.00           6821         854.00      3700.03
  237.54        3347.25           6825         256.00      1092.88
  237.57        3347.50           6829          57.00       225.37
  237.60        3347.75           6833          44.00       168.70
  237.62        3348.00           6836          41.00       155.62
  237.65        3348.25           6840          31.00       112.03
  237.68        3348.50           6844          35.00       129.47
  237.70        3348.75           6848          32.00       116.39
  237.73        3349.00           6851          38.00       142.55
  237.76        3349.25           6855          35.00       129.47
  237.78        3349.50           6859          40.00       151.26
  237.81        3349.75           6863          34.00       125.11
  237.84        3350.00           6867          34.00       125.11
  237.87        3350.25           6870          33.00       120.75
  237.89        3350.50           6874          38.00       142.55
  237.92        3350.75           6878          32.00       116.39
  237.95        3351.00           6882          36.00       133.83
HL scan finished at 03:58:34
end
