************************************************************
  HL Scan of (1) Internal mercury lamp
************************************************************
Integration time is 0.2294 seconds per sample
dh210917Tamanrasset 22.79-5.529 3.159365pr865
************************************************************
Dead Time -------------------------  2.8E-08 
Number of Cycles Used -------------  4 
Starting Wavelength (Angstroms) ---  3331 
Final Wavelength (Angstoms) -------  3351 
Wavelength Increment (Angstroms) --  .25 
Filter Wheel #1 Position ---------- (1) Ground quartz diffuser (ND=2.32)
Filter Wheel #2 Position ---------- (0) Clear Aperture



************************************************************
HL scan start time = 03:55:42
Dark Count =  5.9 


Time (GMT)  Wavelength (Ang)  Step Number  Raw Counts  Counts/Second

  236.22        3331.00           6581          29.00       100.70
  236.44        3331.25           6585          32.00       113.78
  236.46        3331.50           6589          35.00       126.85
  236.49        3331.75           6593          31.00       109.42
  236.52        3332.00           6596          33.00       118.13
  236.55        3332.25           6600          33.00       118.13
  236.57        3332.50           6604          29.00       100.70
  236.60        3332.75           6608          34.00       122.49
  236.63        3333.00           6611          33.00       118.13
  236.65        3333.25           6615          28.00        96.34
  236.68        3333.50           6619          27.00        91.98
  236.71        3333.75           6623          29.00       100.70
  236.74        3334.00           6626          23.00        74.54
  236.76        3334.25           6630          30.00       105.06
  236.79        3334.50           6634          33.00       118.13
  236.82        3334.75           6638          30.00       105.06
  236.85        3335.00           6641          34.00       122.49
  236.87        3335.25           6645          34.00       122.49
  236.90        3335.50           6649          40.00       148.65
  236.93        3335.75           6653          49.00       187.88
  236.95        3336.00           6656          95.00       388.41
  236.98        3336.25           6660         342.00      1465.19
  237.01        3336.50           6664         940.00      4072.39
  237.04        3336.75           6668        1633.00      7094.26
  237.06        3337.00           6671        2165.00      9414.43
  237.09        3337.25           6675        3760.00     16372.37
  237.12        3337.50           6679        5441.00     23708.41
  237.15        3337.75           6683        7349.00     32038.76
  237.17        3338.00           6686        8822.00     38472.55
  237.20        3338.25           6690       10825.00     47225.01
  237.23        3338.50           6694       12645.00     55181.53
  237.26        3338.75           6698       14586.00     63670.95
  237.28        3339.00           6701       16053.00     70089.91
  237.31        3339.25           6705       17996.00     78595.18
  237.34        3339.50           6709       20003.00     87384.87
  237.37        3339.75           6713       21907.00     95727.47
  237.39        3340.00           6716       23492.00    102675.30
  237.42        3340.25           6720       25328.00    110726.80
  237.45        3340.50           6724       27311.00    119427.00
  237.48        3340.75           6728       29235.00    127872.50
  237.50        3341.00           6731       30367.00    132843.30
  237.53        3341.25           6735       31814.00    139199.30
  237.56        3341.50           6739       33163.00    145126.90
  237.59        3341.75           6743       33862.00    148199.10
  237.61        3342.00           6746       33783.00    147851.90
  237.64        3342.25           6750       33344.00    145922.40
  237.67        3342.50           6754       32154.00    140693.10
  237.70        3342.75           6758       30062.00    131503.80
  237.72        3343.00           6761       28806.00    125989.00
  237.75        3343.25           6765       26778.00    117088.10
  237.78        3343.50           6769       25340.00    110779.40
  237.81        3343.75           6773       23447.00    102478.00
  237.83        3344.00           6776       21890.00     95652.97
  237.86        3344.25           6780       20139.00     87980.64
  237.89        3344.50           6784       18276.00     79821.18
  237.92        3344.75           6788       16213.00     70790.13
  237.94        3345.00           6791       14692.00     64134.69
  237.97        3345.25           6795       12693.00     55391.42
  238.00        3345.50           6799        9718.00     42387.24
  238.03        3345.75           6803        7493.00     32667.62
  238.05        3346.00           6806        5934.00     25860.48
  238.08        3346.25           6810        4195.00     18270.46
  238.11        3346.50           6814        3243.00     14116.74
  238.13        3346.75           6818        1968.00      8555.23
  238.16        3347.00           6821        1264.00      5485.15
  238.19        3347.25           6825         460.00      1979.62
  238.22        3347.50           6829         101.00       414.56
  238.24        3347.75           6833          42.00       157.37
  238.27        3348.00           6836          32.00       113.78
  238.30        3348.25           6840          39.00       144.29
  238.33        3348.50           6844          41.00       153.01
  238.35        3348.75           6848          38.00       139.93
  238.38        3349.00           6851          29.00       100.70
  238.41        3349.25           6855          32.00       113.78
  238.43        3349.50           6859          37.00       135.57
  238.46        3349.75           6863          35.00       126.85
  238.49        3350.00           6867          32.00       113.78
  238.52        3350.25           6870          34.00       122.49
  238.54        3350.50           6874          35.00       126.85
  238.57        3350.75           6878          41.00       153.01
  238.60        3351.00           6882          40.00       148.65
HL scan finished at 03:59:13
end
