************************************************************
  HL Scan of (1) Internal mercury lamp
************************************************************
Integration time is 0.2294 seconds per sample
dh240917Tamanrasset 22.79-5.529 3.138972pr865
************************************************************
Dead Time -------------------------  2.8E-08 
Number of Cycles Used -------------  4 
Starting Wavelength (Angstroms) ---  3331 
Final Wavelength (Angstoms) -------  3351 
Wavelength Increment (Angstroms) --  .25 
Filter Wheel #1 Position ---------- (1) Ground quartz diffuser (ND=2.32)
Filter Wheel #2 Position ---------- (0) Clear Aperture



************************************************************
HL scan start time = 03:56:43
Dark Count =  5.5 


Time (GMT)  Wavelength (Ang)  Step Number  Raw Counts  Counts/Second

  237.23        3331.00           6581          29.00       102.44
  237.45        3331.25           6585          35.00       128.60
  237.47        3331.50           6589          29.00       102.44
  237.50        3331.75           6593          27.00        93.72
  237.53        3332.00           6596          31.00       111.16
  237.56        3332.25           6600          31.00       111.16
  237.58        3332.50           6604          31.00       111.16
  237.61        3332.75           6608          34.00       124.24
  237.64        3333.00           6611          31.00       111.16
  237.66        3333.25           6615          32.00       115.52
  237.69        3333.50           6619          26.00        89.36
  237.72        3333.75           6623          37.00       137.32
  237.75        3334.00           6626          31.00       111.16
  237.77        3334.25           6630          31.00       111.16
  237.80        3334.50           6634          27.00        93.72
  237.83        3334.75           6638          37.00       137.32
  237.86        3335.00           6641          34.00       124.24
  237.88        3335.25           6645          33.00       119.88
  237.91        3335.50           6649          37.00       137.32
  237.94        3335.75           6653          52.00       202.70
  237.97        3336.00           6656         105.00       433.75
  237.99        3336.25           6660         353.00      1514.89
  238.02        3336.50           6664         784.00      3393.96
  238.05        3336.75           6668        1515.00      6581.42
  238.07        3337.00           6671        2040.00      8870.99
  238.10        3337.25           6675        3647.00     15881.08
  238.13        3337.50           6679        5398.00     23522.46
  238.16        3337.75           6683        7242.00     31573.24
  238.18        3338.00           6686        8676.00     37836.49
  238.21        3338.25           6690       10570.00     46112.25
  238.24        3338.50           6694       12441.00     54291.28
  238.27        3338.75           6698       14587.00     63677.08
  238.29        3339.00           6701       15884.00     69352.06
  238.32        3339.25           6705       17868.00     78036.50
  238.35        3339.50           6709       19708.00     86094.39
  238.38        3339.75           6713       21457.00     93757.15
  238.40        3340.00           6716       22992.00    100485.00
  238.43        3340.25           6720       25133.00    109873.30
  238.46        3340.50           6724       26845.00    117383.90
  238.49        3340.75           6728       28665.00    125371.80
  238.51        3341.00           6731       30022.00    131329.90
  238.54        3341.25           6735       31653.00    138493.70
  238.57        3341.50           6739       32767.00    143388.40
  238.60        3341.75           6743       33392.00    146135.10
  238.62        3342.00           6746       33620.00    147137.20
  238.65        3342.25           6750       33169.00    145155.00
  238.68        3342.50           6754       32069.00    140321.40
  238.71        3342.75           6758       29905.00    130816.10
  238.74        3343.00           6761       28696.00    125507.90
  238.76        3343.25           6765       26896.00    117607.70
  238.79        3343.50           6769       24993.00    109259.20
  238.82        3343.75           6773       23168.00    101256.60
  238.85        3344.00           6776       21748.00     95032.39
  238.87        3344.25           6780       19850.00     86716.40
  238.90        3344.50           6784       17978.00     78518.13
  238.93        3344.75           6788       16145.00     70494.28
  238.96        3345.00           6791       14144.00     61739.16
  238.98        3345.25           6795       11854.00     51724.82
  239.01        3345.50           6799        9250.00     40344.15
  239.04        3345.75           6803        7359.00     32084.17
  239.07        3346.00           6806        5748.00     25050.26
  239.09        3346.25           6810        4022.00     17517.31
  239.12        3346.50           6814        2894.00     12595.99
  239.15        3346.75           6818        2017.00      8770.68
  239.17        3347.00           6821        1264.00      5486.89
  239.20        3347.25           6825         436.00      1876.73
  239.23        3347.50           6829          94.00       385.79
  239.26        3347.75           6833          32.00       115.52
  239.28        3348.00           6836          36.00       132.96
  239.31        3348.25           6840          33.00       119.88
  239.34        3348.50           6844          33.00       119.88
  239.37        3348.75           6848          30.00       106.80
  239.39        3349.00           6851          32.00       115.52
  239.42        3349.25           6855          34.00       124.24
  239.45        3349.50           6859          29.00       102.44
  239.48        3349.75           6863          37.00       137.32
  239.50        3350.00           6867          28.00        98.08
  239.53        3350.25           6870          35.00       128.60
  239.56        3350.50           6874          38.00       141.67
  239.58        3350.75           6878          33.00       119.88
  239.61        3351.00           6882          33.00       119.88
HL scan finished at 04:00:14
end
