************************************************************
  HL Scan of (1) Internal mercury lamp
************************************************************
Integration time is 0.2294 seconds per sample
dh240918Tamanrasset 22.79-5.529 4.974364pr865
************************************************************
Dead Time -------------------------  2.8E-08 
Number of Cycles Used -------------  4 
Starting Wavelength (Angstroms) ---  3331 
Final Wavelength (Angstoms) -------  3351 
Wavelength Increment (Angstroms) --  .25 
Filter Wheel #1 Position ---------- (1) Ground quartz diffuser (ND=2.32)
Filter Wheel #2 Position ---------- (0) Clear Aperture



************************************************************
HL scan start time = 03:56:39
Dark Count =  5.5 


Time (GMT)  Wavelength (Ang)  Step Number  Raw Counts  Counts/Second

  237.17        3331.00           6581          27.00        93.72
  237.39        3331.25           6585          35.00       128.60
  237.41        3331.50           6589          32.00       115.52
  237.44        3331.75           6593          35.00       128.60
  237.47        3332.00           6596          28.00        98.08
  237.49        3332.25           6600          31.00       111.16
  237.52        3332.50           6604          33.00       119.88
  237.55        3332.75           6608          33.00       119.88
  237.58        3333.00           6611          26.00        89.36
  237.60        3333.25           6615          33.00       119.88
  237.63        3333.50           6619          33.00       119.88
  237.66        3333.75           6623          31.00       111.16
  237.69        3334.00           6626          31.00       111.16
  237.71        3334.25           6630          32.00       115.52
  237.74        3334.50           6634          33.00       119.88
  237.77        3334.75           6638          29.00       102.44
  237.79        3335.00           6641          31.00       111.16
  237.82        3335.25           6645          35.00       128.60
  237.85        3335.50           6649          40.00       150.39
  237.88        3335.75           6653          64.00       255.01
  237.90        3336.00           6656         172.00       725.82
  237.93        3336.25           6660         513.00      2212.43
  237.96        3336.50           6664        1162.00      5042.12
  237.98        3336.75           6668        2024.00      8801.21
  238.01        3337.00           6671        2499.00     10872.97
  238.04        3337.25           6675        4272.00     18608.21
  238.07        3337.50           6679        6171.00     26896.88
  238.09        3337.75           6683        8244.00     35949.42
  238.12        3338.00           6686        9635.00     42026.33
  238.15        3338.25           6690       11701.00     51055.94
  238.18        3338.50           6694       13801.00     60238.84
  238.20        3338.75           6698       15658.00     68363.08
  238.23        3339.00           6701       17301.00     75554.18
  238.26        3339.25           6705       19204.00     83886.88
  238.28        3339.50           6709       21461.00     93774.68
  238.31        3339.75           6713       23544.00    102905.10
  238.34        3340.00           6716       25181.00    110083.80
  238.37        3340.25           6720       27102.00    118511.60
  238.39        3340.50           6724       29014.00    126903.90
  238.42        3340.75           6728       30972.00    135502.20
  238.45        3341.00           6731       32368.00    141635.10
  238.48        3341.25           6735       33818.00    148007.50
  238.50        3341.50           6739       35013.00    153260.90
  238.53        3341.75           6743       35519.00    155485.80
  238.56        3342.00           6746       35489.00    155353.90
  238.59        3342.25           6750       34745.00    152082.60
  238.61        3342.50           6754       33199.00    145286.90
  238.64        3342.75           6758       31218.00    136582.80
  238.67        3343.00           6761       29556.00    129283.60
  238.70        3343.25           6765       27507.00    120289.00
  238.72        3343.50           6769       25930.00    113369.30
  238.75        3343.75           6773       23998.00    104895.70
  238.78        3344.00           6776       22307.00     97482.38
  238.80        3344.25           6780       20365.00     88972.47
  238.83        3344.50           6784       18338.00     80094.43
  238.86        3344.75           6788       16221.00     70826.90
  238.89        3345.00           6791       14114.00     61607.93
  238.91        3345.25           6795       11751.00     51274.53
  238.94        3345.50           6799        9351.00     40785.44
  238.97        3345.75           6803        7018.00     30595.08
  239.00        3346.00           6806        5483.00     23893.49
  239.02        3346.25           6810        3571.00     15549.49
  239.05        3346.50           6814        2300.00     10004.98
  239.08        3346.75           6818        1405.00      6101.74
  239.11        3347.00           6821         818.00      3542.20
  239.13        3347.25           6825         261.00      1113.81
  239.16        3347.50           6829          51.00       198.34
  239.19        3347.75           6833          38.00       141.67
  239.21        3348.00           6836          37.00       137.32
  239.24        3348.25           6840          35.00       128.60
  239.27        3348.50           6844          38.00       141.67
  239.30        3348.75           6848          37.00       137.32
  239.32        3349.00           6851          38.00       141.67
  239.35        3349.25           6855          30.00       106.80
  239.38        3349.50           6859          37.00       137.32
  239.40        3349.75           6863          38.00       141.67
  239.43        3350.00           6867          31.00       111.16
  239.46        3350.25           6870          37.00       137.32
  239.49        3350.50           6874          37.00       137.32
  239.51        3350.75           6878          29.00       102.44
  239.54        3351.00           6882          38.00       141.67
HL scan finished at 04:00:10
end
