************************************************************
  HL Scan of (1) Internal mercury lamp
************************************************************
Integration time is 0.2294 seconds per sample
dh200918Tamanrasset 22.79-5.529 4.974364pr865
************************************************************
Dead Time -------------------------  2.8E-08 
Number of Cycles Used -------------  4 
Starting Wavelength (Angstroms) ---  3331 
Final Wavelength (Angstoms) -------  3351 
Wavelength Increment (Angstroms) --  .25 
Filter Wheel #1 Position ---------- (1) Ground quartz diffuser (ND=2.32)
Filter Wheel #2 Position ---------- (0) Clear Aperture



************************************************************
HL scan start time = 03:55:04
Dark Count =  5.4 


Time (GMT)  Wavelength (Ang)  Step Number  Raw Counts  Counts/Second

  235.58        3331.00           6581          32.00       115.96
  235.80        3331.25           6585          31.00       111.60
  235.83        3331.50           6589          31.00       111.60
  235.85        3331.75           6593          32.00       115.96
  235.88        3332.00           6596          31.00       111.60
  235.91        3332.25           6600          30.00       107.24
  235.94        3332.50           6604          33.00       120.31
  235.96        3332.75           6608          32.00       115.96
  235.99        3333.00           6611          33.00       120.31
  236.02        3333.25           6615          35.00       129.03
  236.05        3333.50           6619          25.00        85.44
  236.07        3333.75           6623          31.00       111.60
  236.10        3334.00           6626          34.00       124.67
  236.13        3334.25           6630          34.00       124.67
  236.15        3334.50           6634          36.00       133.39
  236.18        3334.75           6638          33.00       120.31
  236.21        3335.00           6641          34.00       124.67
  236.23        3335.25           6645          31.00       111.60
  236.26        3335.50           6649          44.00       168.27
  236.29        3335.75           6653          48.00       185.70
  236.32        3336.00           6656         127.00       530.09
  236.34        3336.25           6660         451.00      1942.56
  236.37        3336.50           6664        1192.00      5173.37
  236.40        3336.75           6668        2024.00      8801.65
  236.43        3337.00           6671        2364.00     10284.57
  236.45        3337.25           6675        4192.00     18259.55
  236.48        3337.50           6679        6202.00     27032.66
  236.51        3337.75           6683        8255.00     35997.90
  236.53        3338.00           6686        9943.00     43372.61
  236.56        3338.25           6690       12139.00     52971.27
  236.59        3338.50           6694       14222.00     62080.79
  236.62        3338.75           6698       16409.00     71650.15
  236.64        3339.00           6701       18010.00     78658.68
  236.67        3339.25           6705       20175.00     88140.54
  236.70        3339.50           6709       22498.00     98319.99
  236.73        3339.75           6713       24758.00    108229.00
  236.75        3340.00           6716       26451.00    115655.50
  236.78        3340.25           6720       28636.00    125244.90
  236.81        3340.50           6724       30739.00    134479.30
  236.84        3340.75           6728       32573.00    142536.40
  236.86        3341.00           6731       34297.00    150113.50
  236.89        3341.25           6735       35881.00    157078.20
  236.92        3341.50           6739       37343.00    163508.90
  236.94        3341.75           6743       38174.00    167165.10
  236.97        3342.00           6746       38309.00    167759.10
  237.00        3342.25           6750       37603.00    164652.70
  237.03        3342.50           6754       36230.00    158613.10
  237.05        3342.75           6758       33956.00    148614.50
  237.08        3343.00           6761       32425.00    141886.00
  237.11        3343.25           6765       30347.00    132757.60
  237.14        3343.50           6769       28532.00    124788.40
  237.16        3343.75           6773       26579.00    116217.20
  237.19        3344.00           6776       24821.00    108505.30
  237.22        3344.25           6780       22854.00     99880.52
  237.25        3344.50           6784       20567.00     89857.88
  237.27        3344.75           6788       18312.00     79981.01
  237.30        3345.00           6791       16134.00     70446.58
  237.33        3345.25           6795       13829.00     60361.74
  237.35        3345.50           6799       10809.00     47157.26
  237.38        3345.75           6803        8351.00     36417.24
  237.41        3346.00           6806        6683.00     29132.74
  237.44        3346.25           6810        4694.00     20450.24
  237.46        3346.50           6814        3064.00     13338.02
  237.49        3346.75           6818        2105.00      9154.92
  237.52        3347.00           6821        1477.00      6416.15
  237.54        3347.25           6825         502.00      2164.91
  237.57        3347.50           6829         104.00       429.82
  237.60        3347.75           6833          44.00       168.27
  237.63        3348.00           6836          36.00       133.39
  237.65        3348.25           6840          35.00       129.03
  237.68        3348.50           6844          32.00       115.96
  237.71        3348.75           6848          38.00       142.11
  237.73        3349.00           6851          39.00       146.47
  237.76        3349.25           6855          26.00        89.80
  237.79        3349.50           6859          37.00       137.75
  237.82        3349.75           6863          40.00       150.83
  237.84        3350.00           6867          36.00       133.39
  237.87        3350.25           6870          38.00       142.11
  237.90        3350.50           6874          34.00       124.67
  237.92        3350.75           6878          39.00       146.47
  237.95        3351.00           6882          34.00       124.67
HL scan finished at 03:58:34
end
