************************************************************
  HL Scan of (1) Internal mercury lamp
************************************************************
Integration time is 0.2294 seconds per sample
dh220918Tamanrasset 22.79-5.529 4.974364pr865
************************************************************
Dead Time -------------------------  2.8E-08 
Number of Cycles Used -------------  4 
Starting Wavelength (Angstroms) ---  3331 
Final Wavelength (Angstoms) -------  3351 
Wavelength Increment (Angstroms) --  .25 
Filter Wheel #1 Position ---------- (1) Ground quartz diffuser (ND=2.32)
Filter Wheel #2 Position ---------- (0) Clear Aperture



************************************************************
HL scan start time = 03:56:05
Dark Count =  5.1 


Time (GMT)  Wavelength (Ang)  Step Number  Raw Counts  Counts/Second

  236.59        3331.00           6581          36.00       134.70
  236.81        3331.25           6585          34.00       125.98
  236.84        3331.50           6589          30.00       108.54
  236.87        3331.75           6593          34.00       125.98
  236.89        3332.00           6596          30.00       108.54
  236.92        3332.25           6600          30.00       108.54
  236.95        3332.50           6604          23.00        78.03
  236.98        3332.75           6608          34.00       125.98
  237.00        3333.00           6611          34.00       125.98
  237.03        3333.25           6615          36.00       134.70
  237.06        3333.50           6619          27.00        95.47
  237.08        3333.75           6623          25.00        86.75
  237.11        3334.00           6626          27.00        95.47
  237.14        3334.25           6630          31.00       112.90
  237.17        3334.50           6634          33.00       121.62
  237.19        3334.75           6638          34.00       125.98
  237.22        3335.00           6641          36.00       134.70
  237.25        3335.25           6645          39.00       147.78
  237.27        3335.50           6649          39.00       147.78
  237.30        3335.75           6653          61.00       243.68
  237.33        3336.00           6656         125.00       522.68
  237.36        3336.25           6660         402.00      1730.25
  237.38        3336.50           6664         918.00      3979.96
  237.41        3336.75           6668        1577.00      6853.54
  237.44        3337.00           6671        2188.00      9518.23
  237.46        3337.25           6675        3766.00     16402.04
  237.49        3337.50           6679        5574.00     24292.46
  237.52        3337.75           6683        7419.00     32347.94
  237.55        3338.00           6686        8793.00     38349.36
  237.57        3338.25           6690       10540.00     45982.89
  237.60        3338.50           6694       12552.00     54778.38
  237.63        3338.75           6698       14367.00     62716.41
  237.66        3339.00           6701       15758.00     68802.44
  237.68        3339.25           6705       17801.00     77744.91
  237.71        3339.50           6709       19690.00     86017.30
  237.74        3339.75           6713       21580.00     94297.91
  237.77        3340.00           6716       23132.00    101100.50
  237.79        3340.25           6720       24901.00    108857.50
  237.82        3340.50           6724       26749.00    116964.40
  237.85        3340.75           6728       28661.00    125356.00
  237.87        3341.00           6731       29787.00    130299.70
  237.90        3341.25           6735       31182.00    136426.40
  237.93        3341.50           6739       32562.00    142489.30
  237.96        3341.75           6743       32995.00    144392.10
  237.98        3342.00           6746       32924.00    144080.10
  238.01        3342.25           6750       32487.00    142159.80
  238.04        3342.50           6754       31019.00    135710.40
  238.07        3342.75           6758       28940.00    126580.80
  238.09        3343.00           6761       27561.00    120527.70
  238.12        3343.25           6765       26254.00    114792.50
  238.15        3343.50           6769       24385.00    106594.50
  238.18        3343.75           6773       22517.00     98404.59
  238.20        3344.00           6776       20910.00     91362.02
  238.23        3344.25           6780       19234.00     84020.02
  238.26        3344.50           6784       17193.00     75083.15
  238.28        3344.75           6788       15164.00     66203.25
  238.31        3345.00           6791       13482.00     58845.36
  238.34        3345.25           6795       11080.00     48343.08
  238.37        3345.50           6799        8645.00     37702.81
  238.39        3345.75           6803        6793.00     29614.35
  238.42        3346.00           6806        5264.00     22939.32
  238.45        3346.25           6810        3682.00     16035.53
  238.48        3346.50           6814        2571.00     11188.77
  238.50        3346.75           6818        1784.00      7756.26
  238.53        3347.00           6821        1031.00      4472.66
  238.56        3347.25           6825         331.00      1420.72
  238.58        3347.50           6829          63.00       252.40
  238.61        3347.75           6833          40.00       152.14
  238.64        3348.00           6836          34.00       125.98
  238.67        3348.25           6840          38.00       143.42
  238.69        3348.50           6844          38.00       143.42
  238.72        3348.75           6848          32.00       117.26
  238.75        3349.00           6851          36.00       134.70
  238.77        3349.25           6855          32.00       117.26
  238.80        3349.50           6859          39.00       147.78
  238.83        3349.75           6863          33.00       121.62
  238.86        3350.00           6867          31.00       112.90
  238.88        3350.25           6870          33.00       121.62
  238.91        3350.50           6874          33.00       121.62
  238.94        3350.75           6878          35.00       130.34
  238.96        3351.00           6882          31.00       112.90
HL scan finished at 03:59:35
end
