************************************************************
  HL Scan of (1) Internal mercury lamp
************************************************************
Integration time is 0.2294 seconds per sample
dh250917Tamanrasset 22.79-5.529 3.261331pr865
************************************************************
Dead Time -------------------------  2.8E-08 
Number of Cycles Used -------------  4 
Starting Wavelength (Angstroms) ---  3331 
Final Wavelength (Angstoms) -------  3351 
Wavelength Increment (Angstroms) --  .25 
Filter Wheel #1 Position ---------- (1) Ground quartz diffuser (ND=2.32)
Filter Wheel #2 Position ---------- (0) Clear Aperture



************************************************************
HL scan start time = 03:57:16
Dark Count =  6.4 


Time (GMT)  Wavelength (Ang)  Step Number  Raw Counts  Counts/Second

  237.78        3331.00           6581          35.00       124.67
  238.00        3331.25           6585          34.00       120.31
  238.02        3331.50           6589          33.00       115.96
  238.05        3331.75           6593          37.00       133.39
  238.08        3332.00           6596          34.00       120.31
  238.11        3332.25           6600          30.00       102.88
  238.13        3332.50           6604          38.00       137.75
  238.16        3332.75           6608          31.00       107.24
  238.19        3333.00           6611          36.00       129.03
  238.22        3333.25           6615          30.00       102.88
  238.24        3333.50           6619          30.00       102.88
  238.27        3333.75           6623          34.00       120.31
  238.30        3334.00           6626          30.00       102.88
  238.32        3334.25           6630          36.00       129.03
  238.35        3334.50           6634          25.00        81.08
  238.38        3334.75           6638          32.00       111.60
  238.41        3335.00           6641          34.00       120.31
  238.43        3335.25           6645          41.00       150.83
  238.46        3335.50           6649          39.00       142.11
  238.49        3335.75           6653          51.00       194.42
  238.52        3336.00           6656         153.00       639.07
  238.54        3336.25           6660         451.00      1938.20
  238.57        3336.50           6664        1233.00      5347.79
  238.60        3336.75           6668        2106.00      9154.92
  238.63        3337.00           6671        2491.00     10834.15
  238.65        3337.25           6675        4142.00     18037.01
  238.68        3337.50           6679        6006.00     26172.62
  238.71        3337.75           6683        7890.00     34399.29
  238.74        3338.00           6686        9485.00     41366.98
  238.76        3338.25           6690       11623.00     50711.02
  238.79        3338.50           6694       13711.00     59841.24
  238.82        3338.75           6698       15675.00     68433.53
  238.85        3339.00           6701       17341.00     75725.35
  238.87        3339.25           6705       19349.00     84517.99
  238.90        3339.50           6709       21539.00     94112.54
  238.93        3339.75           6713       23474.00    102594.20
  238.96        3340.00           6716       25093.00    109693.90
  238.98        3340.25           6720       27226.00    119051.80
  239.01        3340.50           6724       29123.00    127378.50
  239.04        3340.75           6728       31199.00    136495.40
  239.07        3341.00           6731       32610.00    142694.50
  239.09        3341.25           6735       34155.00    149484.90
  239.12        3341.50           6739       35541.00    155578.60
  239.15        3341.75           6743       36064.00    157878.60
  239.18        3342.00           6746       36098.00    158028.10
  239.20        3342.25           6750       35675.00    156167.90
  239.23        3342.50           6754       34429.00    150689.40
  239.26        3342.75           6758       32123.00    140554.70
  239.29        3343.00           6761       30550.00    133644.80
  239.31        3343.25           6765       28680.00    125433.70
  239.34        3343.50           6769       27096.00    118481.30
  239.37        3343.75           6773       24954.00    109084.20
  239.39        3344.00           6776       23294.00    101805.00
  239.42        3344.25           6780       21377.00     93402.62
  239.45        3344.50           6784       19227.00     83983.66
  239.48        3344.75           6788       17199.00     75103.72
  239.51        3345.00           6791       15435.00     67383.34
  239.53        3345.25           6795       13395.00     58459.17
  239.56        3345.50           6799        9890.00     43136.64
  239.59        3345.75           6803        7647.00     33338.00
  239.62        3346.00           6806        6102.00     26591.72
  239.64        3346.25           6810        4232.00     18429.74
  239.67        3346.50           6814        3039.00     13224.60
  239.70        3346.75           6818        1847.00      8025.34
  239.73        3347.00           6821        1202.00      5212.62
  239.75        3347.25           6825         403.00      1728.94
  239.78        3347.50           6829          80.00       320.84
  239.81        3347.75           6833           0.00         2.00
  239.83        3348.00           6836          36.00       129.03
  239.86        3348.25           6840          34.00       120.31
  239.89        3348.50           6844          37.00       133.39
  239.92        3348.75           6848          37.00       133.39
  239.94        3349.00           6851          34.00       120.31
  239.97        3349.25           6855          38.00       137.75
  240.00        3349.50           6859          39.00       142.11
  240.03        3349.75           6863          41.00       150.83
  240.05        3350.00           6867          37.00       133.39
  240.08        3350.25           6870          33.00       115.96
  240.11        3350.50           6874          42.00       155.19
  240.14        3350.75           6878          33.00       115.96
  240.16        3351.00           6882          42.00       155.19
HL scan finished at 04:00:47
end
