************************************************************
  HL Scan of (1) Internal mercury lamp
************************************************************
Integration time is 0.2294 seconds per sample
dh170918Tamanrasset 22.79-5.529 4.974364pr865
************************************************************
Dead Time -------------------------  2.8E-08 
Number of Cycles Used -------------  4 
Starting Wavelength (Angstroms) ---  3331 
Final Wavelength (Angstoms) -------  3351 
Wavelength Increment (Angstroms) --  .25 
Filter Wheel #1 Position ---------- (1) Ground quartz diffuser (ND=2.32)
Filter Wheel #2 Position ---------- (0) Clear Aperture



************************************************************
HL scan start time = 03:54:34
Dark Count =  6.8 


Time (GMT)  Wavelength (Ang)  Step Number  Raw Counts  Counts/Second

  235.08        3331.00           6581          29.00        96.77
  235.30        3331.25           6585          28.00        92.42
  235.32        3331.50           6589          32.00       109.85
  235.35        3331.75           6593          32.00       109.85
  235.38        3332.00           6596          29.00        96.77
  235.41        3332.25           6600          33.00       114.21
  235.43        3332.50           6604          27.00        88.06
  235.46        3332.75           6608          32.00       109.85
  235.49        3333.00           6611          33.00       114.21
  235.51        3333.25           6615          31.00       105.49
  235.54        3333.50           6619          33.00       114.21
  235.57        3333.75           6623          30.00       101.13
  235.60        3334.00           6626          32.00       109.85
  235.62        3334.25           6630          31.00       105.49
  235.65        3334.50           6634          32.00       109.85
  235.68        3334.75           6638          34.00       118.57
  235.71        3335.00           6641          35.00       122.93
  235.73        3335.25           6645          38.00       136.01
  235.76        3335.50           6649          40.00       144.73
  235.79        3335.75           6653          48.00       179.60
  235.81        3336.00           6656          95.00       384.49
  235.84        3336.25           6660         347.00      1483.06
  235.87        3336.50           6664         976.00      4225.43
  235.90        3336.75           6668        1670.00      7251.69
  235.92        3337.00           6671        2315.00     10064.74
  235.95        3337.25           6675        3836.00     16700.05
  235.98        3337.50           6679        5714.00     24896.17
  236.01        3337.75           6683        7812.00     34056.88
  236.03        3338.00           6686        9307.00     40587.52
  236.06        3338.25           6690       11366.00     49585.80
  236.09        3338.50           6694       13461.00     58746.08
  236.12        3338.75           6698       15498.00     67657.26
  236.14        3339.00           6701       17213.00     75163.25
  236.17        3339.25           6705       19322.00     84397.99
  236.20        3339.50           6709       21424.00     93606.83
  236.23        3339.75           6713       23442.00    102452.20
  236.25        3340.00           6716       24969.00    109148.20
  236.28        3340.25           6720       27115.00    118563.00
  236.31        3340.50           6724       29073.00    127157.20
  236.34        3340.75           6728       31062.00    135891.90
  236.36        3341.00           6731       32438.00    141937.00
  236.39        3341.25           6735       34083.00    149166.60
  236.42        3341.50           6739       35606.00    155862.70
  236.45        3341.75           6743       36110.00    158079.10
  236.47        3342.00           6746       36385.00    159288.60
  236.50        3342.25           6750       35870.00    157023.60
  236.53        3342.50           6754       34699.00    151874.60
  236.56        3342.75           6758       32633.00    142793.90
  236.58        3343.00           6761       31207.00    136528.80
  236.61        3343.25           6765       29193.00    127684.10
  236.64        3343.50           6769       27413.00    119870.70
  236.67        3343.75           6773       25355.00    110841.30
  236.69        3344.00           6776       23656.00    103390.40
  236.72        3344.25           6780       21736.00     94974.11
  236.75        3344.50           6784       19556.00     85422.90
  236.78        3344.75           6788       17436.00     76139.48
  236.80        3345.00           6791       15625.00     68212.99
  236.83        3345.25           6795       13391.00     58439.93
  236.86        3345.50           6799       10279.00     44834.80
  236.89        3345.75           6803        7953.00     34672.70
  236.91        3346.00           6806        6501.00     28331.97
  236.94        3346.25           6810        4649.00     20247.74
  236.97        3346.50           6814        3403.00     14810.85
  237.00        3346.75           6818        2241.00      9741.98
  237.02        3347.00           6821        1440.00      6248.70
  237.05        3347.25           6825         511.00      2198.04
  237.08        3347.50           6829         118.00       484.75
  237.10        3347.75           6833          37.00       131.65
  237.13        3348.00           6836          34.00       118.57
  237.16        3348.25           6840          35.00       122.93
  237.19        3348.50           6844          36.00       127.29
  237.21        3348.75           6848          38.00       136.01
  237.24        3349.00           6851          36.00       127.29
  237.27        3349.25           6855          33.00       114.21
  237.30        3349.50           6859          38.00       136.01
  237.32        3349.75           6863          35.00       122.93
  237.35        3350.00           6867          33.00       114.21
  237.38        3350.25           6870          38.00       136.01
  237.41        3350.50           6874          36.00       127.29
  237.43        3350.75           6878          31.00       105.49
  237.46        3351.00           6882          32.00       109.85
HL scan finished at 03:58:05
end
