************************************************************
  HL Scan of (1) Internal mercury lamp
************************************************************
Integration time is 0.2294 seconds per sample
dh260918Tamanrasset 22.79-5.529 4.974364pr865
************************************************************
Dead Time -------------------------  2.8E-08 
Number of Cycles Used -------------  4 
Starting Wavelength (Angstroms) ---  3331 
Final Wavelength (Angstoms) -------  3351 
Wavelength Increment (Angstroms) --  .25 
Filter Wheel #1 Position ---------- (1) Ground quartz diffuser (ND=2.32)
Filter Wheel #2 Position ---------- (0) Clear Aperture



************************************************************
HL scan start time = 03:57:16
Dark Count =  6 


Time (GMT)  Wavelength (Ang)  Step Number  Raw Counts  Counts/Second

  237.79        3331.00           6581          31.00       108.98
  238.00        3331.25           6585          35.00       126.42
  238.03        3331.50           6589          34.00       122.06
  238.06        3331.75           6593          35.00       126.42
  238.09        3332.00           6596          33.00       117.70
  238.11        3332.25           6600          29.00       100.26
  238.14        3332.50           6604          34.00       122.06
  238.17        3332.75           6608          31.00       108.98
  238.19        3333.00           6611          34.00       122.06
  238.22        3333.25           6615          31.00       108.98
  238.25        3333.50           6619          28.00        95.90
  238.28        3333.75           6623          33.00       117.70
  238.30        3334.00           6626          32.00       113.34
  238.33        3334.25           6630          35.00       126.42
  238.36        3334.50           6634          32.00       113.34
  238.39        3334.75           6638          31.00       108.98
  238.41        3335.00           6641          38.00       139.49
  238.44        3335.25           6645          35.00       126.42
  238.47        3335.50           6649          41.00       152.57
  238.49        3335.75           6653          52.00       200.52
  238.52        3336.00           6656         105.00       431.57
  238.55        3336.25           6660         347.00      1486.55
  238.58        3336.50           6664         991.00      4294.33
  238.60        3336.75           6668        1743.00      7573.53
  238.63        3337.00           6671        2156.00      9374.74
  238.66        3337.25           6675        3820.00     16633.73
  238.69        3337.50           6679        5747.00     25043.71
  238.71        3337.75           6683        7719.00     33654.19
  238.74        3338.00           6686        9274.00     40446.83
  238.77        3338.25           6690       11319.00     49383.84
  238.79        3338.50           6694       13378.00     58386.57
  238.82        3338.75           6698       15367.00     67087.54
  238.85        3339.00           6701       16947.00     74002.35
  238.88        3339.25           6705       19081.00     83345.98
  238.90        3339.50           6709       21110.00     92234.41
  238.93        3339.75           6713       23013.00    100574.90
  238.96        3340.00           6716       24735.00    108125.50
  238.99        3340.25           6720       26814.00    117245.70
  239.01        3340.50           6724       28766.00    125813.00
  239.04        3340.75           6728       30939.00    135355.10
  239.07        3341.00           6731       32352.00    141562.60
  239.10        3341.25           6735       33954.00    148603.10
  239.12        3341.50           6739       35320.00    154608.60
  239.15        3341.75           6743       35820.00    156807.30
  239.18        3342.00           6746       36007.00    157629.70
  239.20        3342.25           6750       35573.00    155721.10
  239.23        3342.50           6754       34167.00    149539.40
  239.26        3342.75           6758       32111.00    140503.70
  239.29        3343.00           6761       30579.00    133773.90
  239.31        3343.25           6765       28674.00    125409.10
  239.34        3343.50           6769       26855.00    117425.60
  239.37        3343.75           6773       24755.00    108213.20
  239.40        3344.00           6776       23168.00    101254.40
  239.42        3344.25           6780       21146.00     92392.15
  239.45        3344.50           6784       19156.00     83674.46
  239.48        3344.75           6788       16946.00     73997.98
  239.51        3345.00           6791       15272.00     66671.87
  239.53        3345.25           6795       12870.00     56164.98
  239.56        3345.50           6799        9719.00     42391.18
  239.59        3345.75           6803        7614.00     33195.62
  239.61        3346.00           6806        6095.00     26562.91
  239.64        3346.25           6810        4181.00     18208.93
  239.67        3346.50           6814        2925.00     12729.03
  239.70        3346.75           6818        1827.00      7939.86
  239.72        3347.00           6821        1240.00      5380.06
  239.75        3347.25           6825         424.00      1822.24
  239.78        3347.50           6829          85.00       344.38
  239.81        3347.75           6833          45.00       170.01
  239.83        3348.00           6836          39.00       143.85
  239.86        3348.25           6840          40.00       148.21
  239.89        3348.50           6844          33.00       117.70
  239.91        3348.75           6848          38.00       139.49
  239.94        3349.00           6851          39.00       143.85
  239.97        3349.25           6855          35.00       126.42
  240.00        3349.50           6859          38.00       139.49
  240.02        3349.75           6863          34.00       122.06
  240.05        3350.00           6867          32.00       113.34
  240.08        3350.25           6870          30.00       104.62
  240.10        3350.50           6874          36.00       130.78
  240.13        3350.75           6878          38.00       139.49
  240.16        3351.00           6882          30.00       104.62
HL scan finished at 04:00:47
end
