************************************************************
  HL Scan of (1) Internal mercury lamp
************************************************************
Integration time is 0.2294 seconds per sample
dh260917Tamanrasset 22.79-5.529 3.098185pr865
************************************************************
Dead Time -------------------------  2.8E-08 
Number of Cycles Used -------------  4 
Starting Wavelength (Angstroms) ---  3331 
Final Wavelength (Angstoms) -------  3351 
Wavelength Increment (Angstroms) --  .25 
Filter Wheel #1 Position ---------- (1) Ground quartz diffuser (ND=2.32)
Filter Wheel #2 Position ---------- (0) Clear Aperture



************************************************************
HL scan start time = 03:57:43
Dark Count =  4.4 


Time (GMT)  Wavelength (Ang)  Step Number  Raw Counts  Counts/Second

  238.24        3331.00           6581          33.00       124.67
  238.46        3331.25           6585          29.00       107.24
  238.48        3331.50           6589          31.00       115.96
  238.51        3331.75           6593          35.00       133.39
  238.54        3332.00           6596          28.00       102.88
  238.57        3332.25           6600          36.00       137.75
  238.59        3332.50           6604          32.00       120.31
  238.62        3332.75           6608          31.00       115.96
  238.65        3333.00           6611          26.00        94.16
  238.67        3333.25           6615          29.00       107.24
  238.70        3333.50           6619          29.00       107.24
  238.73        3333.75           6623          31.00       115.96
  238.76        3334.00           6626          30.00       111.60
  238.78        3334.25           6630          31.00       115.96
  238.81        3334.50           6634          29.00       107.24
  238.84        3334.75           6638          31.00       115.96
  238.87        3335.00           6641          28.00       102.88
  238.89        3335.25           6645          35.00       133.39
  238.92        3335.50           6649          32.00       120.31
  238.95        3335.75           6653          37.00       142.11
  238.98        3336.00           6656          93.00       386.23
  239.00        3336.25           6660         316.00      1358.38
  239.03        3336.50           6664         701.00      3036.88
  239.06        3336.75           6668        1324.00      5753.32
  239.09        3337.00           6671        1825.00      7938.12
  239.11        3337.25           6675        3407.00     14838.77
  239.14        3337.50           6679        5115.00     22292.03
  239.17        3337.75           6683        6841.00     29827.00
  239.19        3338.00           6686        8311.00     36246.88
  239.22        3338.25           6690       10099.00     44058.68
  239.25        3338.50           6694       11908.00     51965.71
  239.28        3338.75           6698       13877.00     60576.07
  239.30        3339.00           6701       15204.00     66381.33
  239.33        3339.25           6705       17158.00     74933.00
  239.36        3339.50           6709       19034.00     83147.13
  239.39        3339.75           6713       20775.00     90773.58
  239.41        3340.00           6716       22228.00     97140.94
  239.44        3340.25           6720       24235.00    105939.80
  239.47        3340.50           6724       25874.00    113128.50
  239.50        3340.75           6728       27736.00    121298.80
  239.52        3341.00           6731       28946.00    126610.20
  239.55        3341.25           6735       30601.00    133877.60
  239.58        3341.50           6739       31507.00    137857.20
  239.61        3341.75           6743       32302.00    141350.00
  239.63        3342.00           6746       32127.00    140581.10
  239.66        3342.25           6750       31865.00    139429.90
  239.69        3342.50           6754       30350.00    132775.20
  239.72        3342.75           6758       28691.00    125490.70
  239.74        3343.00           6761       27486.00    120201.60
  239.77        3343.25           6765       25825.00    112913.50
  239.80        3343.50           6769       23912.00    104523.40
  239.83        3343.75           6773       22224.00     97123.39
  239.85        3344.00           6776       20773.00     90764.81
  239.88        3344.25           6780       18974.00     82884.38
  239.91        3344.50           6784       17027.00     74359.55
  239.94        3344.75           6788       14997.00     65475.64
  239.96        3345.00           6791       13345.00     58249.24
  239.99        3345.25           6795       11284.00     49237.85
  240.02        3345.50           6799        9055.00     39497.01
  240.05        3345.75           6803        6822.00     29744.03
  240.07        3346.00           6806        5446.00     23736.78
  240.10        3346.25           6810        3744.00     16309.10
  240.13        3346.50           6814        2662.00     11588.76
  240.16        3346.75           6818        1889.00      8217.23
  240.18        3347.00           6821        1143.00      4964.07
  240.21        3347.25           6825         381.00      1641.75
  240.24        3347.50           6829          79.00       325.20
  240.27        3347.75           6833          36.00       137.75
  240.29        3348.00           6836          38.00       146.47
  240.32        3348.25           6840          33.00       124.67
  240.35        3348.50           6844          33.00       124.67
  240.37        3348.75           6848          33.00       124.67
  240.40        3349.00           6851          30.00       111.60
  240.43        3349.25           6855          33.00       124.67
  240.46        3349.50           6859          29.00       107.24
  240.48        3349.75           6863          36.00       137.75
  240.51        3350.00           6867          35.00       133.39
  240.54        3350.25           6870          31.00       115.96
  240.56        3350.50           6874          37.00       142.11
  240.59        3350.75           6878          34.00       129.03
  240.62        3351.00           6882          34.00       129.03
HL scan finished at 04:01:15
end
