************************************************************
  HL Scan of (1) Internal mercury lamp
************************************************************
Integration time is 0.2294 seconds per sample
dh190917Tamanrasset 22.79-5.529 3.14407pr865
************************************************************
Dead Time -------------------------  2.8E-08 
Number of Cycles Used -------------  4 
Starting Wavelength (Angstroms) ---  3331 
Final Wavelength (Angstoms) -------  3351 
Wavelength Increment (Angstroms) --  .25 
Filter Wheel #1 Position ---------- (1) Ground quartz diffuser (ND=2.32)
Filter Wheel #2 Position ---------- (0) Clear Aperture



************************************************************
HL scan start time = 03:55:40
Dark Count =  5.2 


Time (GMT)  Wavelength (Ang)  Step Number  Raw Counts  Counts/Second

  236.17        3331.00           6581          30.00       108.11
  236.39        3331.25           6585          33.00       121.19
  236.42        3331.50           6589          31.00       112.47
  236.45        3331.75           6593          31.00       112.47
  236.47        3332.00           6596          28.00        99.39
  236.50        3332.25           6600          33.00       121.19
  236.53        3332.50           6604          28.00        99.39
  236.56        3332.75           6608          30.00       108.11
  236.58        3333.00           6611          30.00       108.11
  236.61        3333.25           6615          30.00       108.11
  236.64        3333.50           6619          30.00       108.11
  236.66        3333.75           6623          31.00       112.47
  236.69        3334.00           6626          31.00       112.47
  236.72        3334.25           6630          35.00       129.90
  236.75        3334.50           6634          28.00        99.39
  236.77        3334.75           6638          30.00       108.11
  236.80        3335.00           6641          33.00       121.19
  236.83        3335.25           6645          36.00       134.26
  236.85        3335.50           6649          35.00       129.90
  236.88        3335.75           6653          45.00       173.50
  236.91        3336.00           6656         101.00       417.62
  236.94        3336.25           6660         293.00      1254.62
  236.96        3336.50           6664         635.00      2745.63
  236.99        3336.75           6668        1227.00      5326.86
  237.02        3337.00           6671        1858.00      8078.55
  237.04        3337.25           6675        3453.00     15035.97
  237.07        3337.50           6679        5332.00     23235.69
  237.10        3337.75           6683        7283.00     31753.59
  237.13        3338.00           6686        8773.00     38261.54
  237.15        3338.25           6690       10605.00     46266.53
  237.18        3338.50           6694       12562.00     54821.67
  237.21        3338.75           6698       14445.00     63057.18
  237.24        3339.00           6701       16005.00     69882.91
  237.26        3339.25           6705       18037.00     78777.77
  237.29        3339.50           6709       20028.00     87497.46
  237.32        3339.75           6713       21949.00     95914.62
  237.34        3340.00           6716       23420.00    102362.70
  237.37        3340.25           6720       25518.00    111563.30
  237.40        3340.50           6724       27620.00    120786.20
  237.43        3340.75           6728       29249.00    127937.00
  237.45        3341.00           6731       30669.00    134172.70
  237.48        3341.25           6735       32150.00    140678.60
  237.51        3341.50           6739       33565.00    146896.80
  237.54        3341.75           6743       34266.00    149978.10
  237.56        3342.00           6746       34039.00    148980.30
  237.59        3342.25           6750       33856.00    148175.90
  237.62        3342.50           6754       32419.00    141860.60
  237.65        3342.75           6758       30317.00    132626.70
  237.67        3343.00           6761       29380.00    128512.20
  237.70        3343.25           6765       27393.00    119790.00
  237.73        3343.50           6769       25535.00    111637.90
  237.75        3343.75           6773       23505.00    102735.40
  237.78        3344.00           6776       22099.00     96572.03
  237.81        3344.25           6780       20018.00     87453.64
  237.84        3344.50           6784       18137.00     79215.62
  237.86        3344.75           6788       16228.00     70858.85
  237.89        3345.00           6791       14463.00     63135.93
  237.92        3345.25           6795       11985.00     52298.85
  237.95        3345.50           6799        9609.00     41914.03
  237.97        3345.75           6803        7431.00     32399.91
  238.00        3346.00           6806        5873.00     25597.24
  238.03        3346.25           6810        4186.00     18234.24
  238.06        3346.50           6814        3143.00     13683.53
  238.08        3346.75           6818        2185.00      9504.71
  238.11        3347.00           6821        1329.00      5771.64
  238.14        3347.25           6825         437.00      1882.40
  238.16        3347.50           6829          91.00       374.02
  238.19        3347.75           6833          42.00       160.42
  238.22        3348.00           6836          39.00       147.34
  238.25        3348.25           6840          37.00       138.62
  238.27        3348.50           6844          28.00        99.39
  238.30        3348.75           6848          35.00       129.90
  238.33        3349.00           6851          36.00       134.26
  238.35        3349.25           6855          35.00       129.90
  238.38        3349.50           6859          34.00       125.55
  238.41        3349.75           6863          30.00       108.11
  238.44        3350.00           6867          33.00       121.19
  238.46        3350.25           6870          38.00       142.98
  238.49        3350.50           6874          34.00       125.55
  238.52        3350.75           6878          37.00       138.62
  238.55        3351.00           6882          33.00       121.19
HL scan finished at 03:59:10
end
