************************************************************
  HL Scan of (1) Internal mercury lamp
************************************************************
Integration time is 0.2294 seconds per sample
dh230917Tamanrasset 22.79-5.529 3.154266pr865
************************************************************
Dead Time -------------------------  2.8E-08 
Number of Cycles Used -------------  4 
Starting Wavelength (Angstroms) ---  3331 
Final Wavelength (Angstoms) -------  3351 
Wavelength Increment (Angstroms) --  .25 
Filter Wheel #1 Position ---------- (1) Ground quartz diffuser (ND=2.32)
Filter Wheel #2 Position ---------- (0) Clear Aperture



************************************************************
HL scan start time = 03:56:15
Dark Count =  4.1 


Time (GMT)  Wavelength (Ang)  Step Number  Raw Counts  Counts/Second

  236.77        3331.00           6581          30.00       112.90
  236.98        3331.25           6585          33.00       125.98
  237.01        3331.50           6589          24.00        86.75
  237.04        3331.75           6593          30.00       112.90
  237.07        3332.00           6596          33.00       125.98
  237.09        3332.25           6600          30.00       112.90
  237.12        3332.50           6604          30.00       112.90
  237.15        3332.75           6608          30.00       112.90
  237.17        3333.00           6611          33.00       125.98
  237.20        3333.25           6615          31.00       117.26
  237.23        3333.50           6619          32.00       121.62
  237.26        3333.75           6623          32.00       121.62
  237.28        3334.00           6626          26.00        95.47
  237.31        3334.25           6630          31.00       117.26
  237.34        3334.50           6634          36.00       139.06
  237.37        3334.75           6638          32.00       121.62
  237.39        3335.00           6641          31.00       117.26
  237.42        3335.25           6645          39.00       152.14
  237.45        3335.50           6649          35.00       134.70
  237.47        3335.75           6653          60.00       243.68
  237.50        3336.00           6656         115.00       483.44
  237.53        3336.25           6660         427.00      1843.60
  237.56        3336.50           6664         832.00      3609.35
  237.58        3336.75           6668        1555.00      6761.96
  237.61        3337.00           6671        2118.00      9217.29
  237.64        3337.25           6675        3750.00     16336.59
  237.67        3337.50           6679        5656.00     24654.76
  237.69        3337.75           6683        7456.00     32513.89
  237.72        3338.00           6686        9000.00     39258.04
  237.75        3338.25           6690       10897.00     47547.57
  237.78        3338.50           6694       12662.00     55263.74
  237.80        3338.75           6698       14650.00     63958.82
  237.83        3339.00           6701       16105.00     70325.35
  237.86        3339.25           6705       18180.00     79408.71
  237.89        3339.50           6709       20114.00     87879.02
  237.91        3339.75           6713       22162.00     96852.97
  237.94        3340.00           6716       23606.00    103183.00
  237.97        3340.25           6720       25565.00    111774.30
  238.00        3340.50           6724       27420.00    119913.30
  238.02        3340.75           6728       29215.00    127792.60
  238.05        3341.00           6731       30767.00    134608.00
  238.08        3341.25           6735       32141.00    140643.90
  238.11        3341.50           6739       33137.00    145020.50
  238.13        3341.75           6743       33816.00    148004.90
  238.16        3342.00           6746       33973.00    148694.90
  238.19        3342.25           6750       33350.00    145956.70
  238.22        3342.50           6754       32076.00    140358.30
  238.24        3342.75           6758       29919.00    130883.80
  238.27        3343.00           6761       28595.00    125070.60
  238.30        3343.25           6765       26941.00    117811.30
  238.33        3343.50           6769       25099.00    109730.30
  238.35        3343.75           6773       23290.00    101797.60
  238.38        3344.00           6776       21737.00     94990.33
  238.41        3344.25           6780       19676.00     85960.36
  238.43        3344.50           6784       17817.00     77819.34
  238.46        3344.75           6788       15817.00     69065.00
  238.49        3345.00           6791       14274.00     62313.95
  238.52        3345.25           6795       11806.00     51521.09
  238.54        3345.50           6799        9146.00     39895.90
  238.57        3345.75           6803        6968.00     30382.85
  238.60        3346.00           6806        5526.00     24087.30
  238.63        3346.25           6810        3782.00     16476.21
  238.65        3346.50           6814        2590.00     11276.01
  238.68        3346.75           6818        1751.00      7616.71
  238.71        3347.00           6821        1002.00      4350.57
  238.74        3347.25           6825         314.00      1350.97
  238.76        3347.50           6829          54.00       217.53
  238.79        3347.75           6833          37.00       143.42
  238.82        3348.00           6836          30.00       112.90
  238.85        3348.25           6840          35.00       134.70
  238.87        3348.50           6844          34.00       130.34
  238.90        3348.75           6848          34.00       130.34
  238.93        3349.00           6851          29.00       108.54
  238.96        3349.25           6855          34.00       130.34
  238.98        3349.50           6859          32.00       121.62
  239.01        3349.75           6863          33.00       125.98
  239.04        3350.00           6867          33.00       125.98
  239.06        3350.25           6870          34.00       130.34
  239.09        3350.50           6874          33.00       125.98
  239.12        3350.75           6878          38.00       147.78
  239.15        3351.00           6882          34.00       130.34
HL scan finished at 03:59:46
end
