************************************************************
  HL Scan of (1) Internal mercury lamp
************************************************************
Integration time is 0.2294 seconds per sample
dh230918Tamanrasset 22.79-5.529 4.974364pr865
************************************************************
Dead Time -------------------------  2.8E-08 
Number of Cycles Used -------------  4 
Starting Wavelength (Angstroms) ---  3331 
Final Wavelength (Angstoms) -------  3351 
Wavelength Increment (Angstroms) --  .25 
Filter Wheel #1 Position ---------- (1) Ground quartz diffuser (ND=2.32)
Filter Wheel #2 Position ---------- (0) Clear Aperture



************************************************************
HL scan start time = 03:55:36
Dark Count =  5.3 


Time (GMT)  Wavelength (Ang)  Step Number  Raw Counts  Counts/Second

  236.11        3331.00           6581          28.00        98.95
  236.33        3331.25           6585          27.00        94.59
  236.36        3331.50           6589          35.00       129.47
  236.38        3331.75           6593          26.00        90.24
  236.41        3332.00           6596          32.00       116.39
  236.44        3332.25           6600          28.00        98.95
  236.46        3332.50           6604          30.00       107.67
  236.49        3332.75           6608          31.00       112.03
  236.52        3333.00           6611          29.00       103.31
  236.55        3333.25           6615          35.00       129.47
  236.57        3333.50           6619          35.00       129.47
  236.60        3333.75           6623          31.00       112.03
  236.63        3334.00           6626          34.00       125.11
  236.65        3334.25           6630          30.00       107.67
  236.68        3334.50           6634          30.00       107.67
  236.71        3334.75           6638          30.00       107.67
  236.74        3335.00           6641          34.00       125.11
  236.76        3335.25           6645          38.00       142.55
  236.79        3335.50           6649          39.00       146.91
  236.82        3335.75           6653          42.00       159.98
  236.84        3336.00           6656         102.00       421.54
  236.87        3336.25           6660         343.00      1472.16
  236.90        3336.50           6664         925.00      4009.60
  236.93        3336.75           6668        1423.00      6181.10
  236.95        3337.00           6671        2050.00      8915.48
  236.98        3337.25           6675        3609.00     15716.16
  237.01        3337.50           6679        5391.00     23492.78
  237.03        3337.75           6683        7126.00     31067.56
  237.06        3338.00           6686        8517.00     37142.80
  237.09        3338.25           6690       10528.00     45929.57
  237.12        3338.50           6694       12400.00     54112.89
  237.14        3338.75           6698       14224.00     62089.98
  237.17        3339.00           6701       15631.00     68245.81
  237.20        3339.25           6705       17710.00     77345.62
  237.23        3339.50           6709       19556.00     85429.48
  237.25        3339.75           6713       21429.00     93635.32
  237.28        3340.00           6716       22897.00    100069.40
  237.31        3340.25           6720       24692.00    107939.90
  237.34        3340.50           6724       26622.00    116406.30
  237.36        3340.75           6728       28539.00    124819.50
  237.39        3341.00           6731       29662.00    129750.00
  237.42        3341.25           6735       31276.00    136838.50
  237.45        3341.50           6739       32597.00    142642.30
  237.47        3341.75           6743       33106.00    144879.00
  237.50        3342.00           6746       33082.00    144773.60
  237.53        3342.25           6750       32801.00    143538.70
  237.56        3342.50           6754       31522.00    137919.10
  237.58        3342.75           6758       29750.00    130136.40
  237.61        3343.00           6761       28350.00    123989.90
  237.64        3343.25           6765       26416.00    115502.40
  237.66        3343.50           6769       24826.00    108527.60
  237.69        3343.75           6773       22879.00     99990.54
  237.72        3344.00           6776       21407.00     93538.91
  237.75        3344.25           6780       19583.00     85547.74
  237.77        3344.50           6784       17598.00     76855.28
  237.80        3344.75           6788       15719.00     68630.90
  237.83        3345.00           6791       14167.00     61840.65
  237.86        3345.25           6795       12130.00     52932.37
  237.88        3345.50           6799        9480.00     41349.94
  237.91        3345.75           6803        7030.00     30648.35
  237.94        3346.00           6806        5566.00     24256.66
  237.97        3346.25           6810        3819.00     16632.42
  237.99        3346.50           6814        2875.00     12513.98
  238.02        3346.75           6818        1644.00      7144.85
  238.05        3347.00           6821        1064.00      4615.68
  238.07        3347.25           6825         298.00      1275.98
  238.10        3347.50           6829          70.00       282.04
  238.13        3347.75           6833          36.00       133.83
  238.16        3348.00           6836          33.00       120.75
  238.18        3348.25           6840          40.00       151.26
  238.21        3348.50           6844          30.00       107.67
  238.24        3348.75           6848          33.00       120.75
  238.26        3349.00           6851          33.00       120.75
  238.29        3349.25           6855          31.00       112.03
  238.32        3349.50           6859          35.00       129.47
  238.35        3349.75           6863          29.00       103.31
  238.37        3350.00           6867          33.00       120.75
  238.40        3350.25           6870          29.00       103.31
  238.43        3350.50           6874          30.00       107.67
  238.45        3350.75           6878          35.00       129.47
  238.48        3351.00           6882          35.00       129.47
HL scan finished at 03:59:06
end
