************************************************************
  HL Scan of (1) Internal mercury lamp
************************************************************
Integration time is 0.2294 seconds per sample
dh180917Tamanrasset 22.79-5.529 3.332708pr865
************************************************************
Dead Time -------------------------  2.8E-08 
Number of Cycles Used -------------  4 
Starting Wavelength (Angstroms) ---  3331 
Final Wavelength (Angstoms) -------  3351 
Wavelength Increment (Angstroms) --  .25 
Filter Wheel #1 Position ---------- (1) Ground quartz diffuser (ND=2.32)
Filter Wheel #2 Position ---------- (0) Clear Aperture



************************************************************
HL scan start time = 03:54:42
Dark Count =  5.1 


Time (GMT)  Wavelength (Ang)  Step Number  Raw Counts  Counts/Second

  235.21        3331.00           6581          31.00       112.90
  235.43        3331.25           6585          23.00        78.03
  235.46        3331.50           6589          33.00       121.62
  235.48        3331.75           6593          34.00       125.98
  235.51        3332.00           6596          34.00       125.98
  235.54        3332.25           6600          33.00       121.62
  235.56        3332.50           6604          35.00       130.34
  235.59        3332.75           6608          31.00       112.90
  235.62        3333.00           6611          27.00        95.47
  235.65        3333.25           6615          31.00       112.90
  235.67        3333.50           6619          36.00       134.70
  235.70        3333.75           6623          30.00       108.54
  235.73        3334.00           6626          30.00       108.54
  235.75        3334.25           6630          33.00       121.62
  235.78        3334.50           6634          33.00       121.62
  235.81        3334.75           6638          35.00       130.34
  235.84        3335.00           6641          38.00       143.42
  235.86        3335.25           6645          46.00       178.29
  235.89        3335.50           6649          40.00       152.14
  235.92        3335.75           6653          49.00       191.37
  235.94        3336.00           6656         113.00       470.36
  235.97        3336.25           6660         416.00      1791.28
  236.00        3336.50           6664        1108.00      4808.41
  236.03        3336.75           6668        1857.00      8074.62
  236.05        3337.00           6671        2289.00      9958.75
  236.08        3337.25           6675        4130.00     17990.32
  236.11        3337.50           6679        6089.00     26540.64
  236.14        3337.75           6683        8189.00     35710.93
  236.16        3338.00           6686        9738.00     42478.14
  236.19        3338.25           6690       12038.00     52531.01
  236.22        3338.50           6694       14164.00     61828.40
  236.24        3338.75           6698       16311.00     71222.55
  236.27        3339.00           6701       17871.00     78051.40
  236.30        3339.25           6705       20248.00     88461.66
  236.33        3339.50           6709       22358.00     97707.66
  236.35        3339.75           6713       24763.00    108252.20
  236.38        3340.00           6716       26481.00    115788.50
  236.41        3340.25           6720       28561.00    124917.00
  236.44        3340.50           6724       30544.00    133624.10
  236.46        3340.75           6728       32679.00    143003.50
  236.49        3341.00           6731       34106.00    149275.20
  236.52        3341.25           6735       35981.00    157519.30
  236.55        3341.50           6739       37229.00    163008.70
  236.57        3341.75           6743       38155.00    167082.80
  236.60        3342.00           6746       38068.00    166700.00
  236.63        3342.25           6750       37572.00    164517.70
  236.66        3342.50           6754       36107.00    158073.40
  236.68        3342.75           6758       33714.00    147552.10
  236.71        3343.00           6761       32219.00    140982.20
  236.74        3343.25           6765       30078.00    131577.60
  236.77        3343.50           6769       28464.00    124491.20
  236.79        3343.75           6773       26340.00    115169.90
  236.82        3344.00           6776       24703.00    107989.10
  236.85        3344.25           6780       22351.00     97676.99
  236.87        3344.50           6784       20251.00     88474.80
  236.90        3344.75           6788       18022.00     78712.52
  236.93        3345.00           6791       16160.00     70561.68
  236.96        3345.25           6795       13788.00     60183.73
  236.98        3345.50           6799       10626.00     46358.75
  237.01        3345.75           6803        8269.00     36060.37
  237.04        3346.00           6806        6590.00     28727.98
  237.07        3346.25           6810        4541.00     19783.84
  237.09        3346.50           6814        3188.00     13880.28
  237.12        3346.75           6818        2182.00      9492.06
  237.15        3347.00           6821        1413.00      6138.37
  237.17        3347.25           6825         483.00      2083.38
  237.20        3347.50           6829         106.00       439.85
  237.23        3347.75           6833          43.00       165.21
  237.26        3348.00           6836          36.00       134.70
  237.28        3348.25           6840          37.00       139.06
  237.31        3348.50           6844          39.00       147.78
  237.34        3348.75           6848          43.00       165.21
  237.36        3349.00           6851          40.00       152.14
  237.39        3349.25           6855          42.00       160.86
  237.42        3349.50           6859          45.00       173.93
  237.45        3349.75           6863          38.00       143.42
  237.47        3350.00           6867          35.00       130.34
  237.50        3350.25           6870          41.00       156.50
  237.53        3350.50           6874          40.00       152.14
  237.55        3350.75           6878          38.00       143.42
  237.58        3351.00           6882          36.00       134.70
HL scan finished at 03:58:12
end
