************************************************************
  HL Scan of (1) Internal mercury lamp
************************************************************
Integration time is 0.2294 seconds per sample
dh170917Tamanrasset 22.79-5.529 3.398986pr865
************************************************************
Dead Time -------------------------  2.8E-08 
Number of Cycles Used -------------  4 
Starting Wavelength (Angstroms) ---  3331 
Final Wavelength (Angstoms) -------  3351 
Wavelength Increment (Angstroms) --  .25 
Filter Wheel #1 Position ---------- (1) Ground quartz diffuser (ND=2.32)
Filter Wheel #2 Position ---------- (0) Clear Aperture



************************************************************
HL scan start time = 03:54:38
Dark Count =  6.6 


Time (GMT)  Wavelength (Ang)  Step Number  Raw Counts  Counts/Second

  235.14        3331.00           6581          36.00       128.16
  235.36        3331.25           6585          37.00       132.52
  235.39        3331.50           6589          32.00       110.72
  235.42        3331.75           6593          38.00       136.88
  235.44        3332.00           6596          33.00       115.08
  235.47        3332.25           6600          37.00       132.52
  235.50        3332.50           6604          38.00       136.88
  235.52        3332.75           6608          35.00       123.80
  235.55        3333.00           6611          38.00       136.88
  235.58        3333.25           6615          29.00        97.65
  235.61        3333.50           6619          34.00       119.44
  235.63        3333.75           6623          30.00       102.01
  235.66        3334.00           6626          40.00       145.60
  235.69        3334.25           6630          34.00       119.44
  235.72        3334.50           6634          31.00       106.36
  235.74        3334.75           6638          28.00        93.29
  235.77        3335.00           6641          38.00       136.88
  235.80        3335.25           6645          39.00       141.24
  235.82        3335.50           6649          42.00       154.32
  235.85        3335.75           6653          50.00       189.19
  235.88        3336.00           6656         111.00       455.11
  235.91        3336.25           6660         370.00      1584.20
  235.93        3336.50           6664        1047.00      4535.89
  235.96        3336.75           6668        1830.00      7950.33
  235.99        3337.00           6671        2266.00      9851.89
  236.01        3337.25           6675        4010.00     17460.15
  236.04        3337.50           6679        6032.00     26285.25
  236.07        3337.75           6683        8223.00     35852.89
  236.10        3338.00           6686       10027.00     43734.44
  236.12        3338.25           6690       12224.00     53337.66
  236.15        3338.50           6694       14342.00     62600.48
  236.18        3338.75           6698       16606.00     72507.13
  236.21        3339.00           6701       18296.00     79905.69
  236.23        3339.25           6705       20654.00     90233.80
  236.26        3339.50           6709       23099.00    100949.30
  236.29        3339.75           6713       25439.00    111210.60
  236.31        3340.00           6716       26890.00    117576.50
  236.34        3340.25           6720       29073.00    127158.10
  236.37        3340.50           6724       31362.00    137210.60
  236.40        3340.75           6728       33624.00    147149.90
  236.42        3341.00           6731       35289.00    154469.60
  236.45        3341.25           6735       37192.00    162839.30
  236.48        3341.50           6739       38584.00    168964.00
  236.51        3341.75           6743       39586.00    173374.00
  236.53        3342.00           6746       39898.00    174747.40
  236.56        3342.25           6750       39464.00    172837.00
  236.59        3342.50           6754       37864.00    165795.80
  236.62        3342.75           6758       35795.00    156694.70
  236.64        3343.00           6761       34183.00    149607.10
  236.67        3343.25           6765       31732.00    138836.00
  236.70        3343.50           6769       30042.00    131412.90
  236.73        3343.75           6773       27906.00    122035.30
  236.75        3344.00           6776       26080.00    114022.60
  236.78        3344.25           6780       23943.00    104649.70
  236.81        3344.50           6784       21663.00     94655.07
  236.83        3344.75           6788       19191.00     83825.12
  236.86        3345.00           6791       17207.00     75137.87
  236.89        3345.25           6795       14829.00     64731.00
  236.92        3345.50           6799       11387.00     49678.48
  236.94        3345.75           6803        8912.00     38862.67
  236.97        3346.00           6806        7134.00     31096.81
  237.00        3346.25           6810        5083.00     22142.76
  237.03        3346.50           6814        3577.00     15570.87
  237.05        3346.75           6818        2299.00      9995.82
  237.08        3347.00           6821        1615.00      7012.71
  237.11        3347.25           6825         603.00      2600.02
  237.13        3347.50           6829         134.00       555.37
  237.16        3347.75           6833          51.00       193.55
  237.19        3348.00           6836          41.00       149.96
  237.22        3348.25           6840          36.00       128.16
  237.24        3348.50           6844          31.00       106.36
  237.27        3348.75           6848          35.00       123.80
  237.30        3349.00           6851          43.00       158.68
  237.33        3349.25           6855          34.00       119.44
  237.35        3349.50           6859          42.00       154.32
  237.38        3349.75           6863          40.00       145.60
  237.41        3350.00           6867          39.00       141.24
  237.43        3350.25           6870          43.00       158.68
  237.46        3350.50           6874          37.00       132.52
  237.49        3350.75           6878          37.00       132.52
  237.52        3351.00           6882          39.00       141.24
HL scan finished at 03:58:08
end
