************************************************************
  HL Scan of (1) Internal mercury lamp
************************************************************
Integration time is 0.2294 seconds per sample
dh250918Tamanrasset 22.79-5.529 4.974364pr865
************************************************************
Dead Time -------------------------  2.8E-08 
Number of Cycles Used -------------  4 
Starting Wavelength (Angstroms) ---  3331 
Final Wavelength (Angstoms) -------  3351 
Wavelength Increment (Angstroms) --  .25 
Filter Wheel #1 Position ---------- (1) Ground quartz diffuser (ND=2.32)
Filter Wheel #2 Position ---------- (0) Clear Aperture



************************************************************
HL scan start time = 03:57:07
Dark Count =  5.3 


Time (GMT)  Wavelength (Ang)  Step Number  Raw Counts  Counts/Second

  237.62        3331.00           6581          33.00       120.75
  237.84        3331.25           6585          28.00        98.95
  237.87        3331.50           6589           0.00         2.00
  237.89        3331.75           6593           0.00         2.00
  237.92        3332.00           6596          27.00        94.59
  237.95        3332.25           6600           0.00         2.00
  237.98        3332.50           6604           0.00         2.00
  238.00        3332.75           6608          29.00       103.31
  238.03        3333.00           6611          27.00        94.59
  238.06        3333.25           6615          29.00       103.31
  238.09        3333.50           6619          32.00       116.39
  238.11        3333.75           6623          29.00       103.31
  238.14        3334.00           6626          31.00       112.03
  238.17        3334.25           6630          28.00        98.95
  238.19        3334.50           6634          35.00       129.47
  238.22        3334.75           6638          31.00       112.03
  238.25        3335.00           6641          31.00       112.03
  238.27        3335.25           6645          37.00       138.19
  238.30        3335.50           6649          44.00       168.70
  238.33        3335.75           6653          46.00       177.42
  238.36        3336.00           6656          85.00       347.43
  238.38        3336.25           6660         304.00      1302.14
  238.41        3336.50           6664         910.00      3944.20
  238.44        3336.75           6668        1489.00      6468.91
  238.46        3337.00           6671        1901.00      8265.64
  238.49        3337.25           6675        3540.00     15415.11
  238.52        3337.50           6679        5414.00     23593.18
  238.55        3337.75           6683        7319.00     31910.36
  238.57        3338.00           6686        8704.00     37959.68
  238.60        3338.25           6690       10734.00     46829.90
  238.63        3338.50           6694       12619.00     55070.47
  238.66        3338.75           6698       14590.00     63691.08
  238.68        3339.00           6701       16179.00     70643.96
  238.71        3339.25           6705       18126.00     79167.01
  238.74        3339.50           6709       20208.00     88285.54
  238.77        3339.75           6713       22310.00     97496.39
  238.79        3340.00           6716       23711.00    103638.10
  238.82        3340.25           6720       25693.00    112330.50
  238.85        3340.50           6724       27741.00    121316.80
  238.87        3340.75           6728       29674.00    129802.70
  238.90        3341.00           6731       30851.00    134971.60
  238.93        3341.25           6735       32485.00    142150.10
  238.96        3341.50           6739       33972.00    148685.30
  238.98        3341.75           6743       34646.00    151648.20
  239.01        3342.00           6746       34862.00    152597.90
  239.04        3342.25           6750       34384.00    150496.40
  239.07        3342.50           6754       33296.00    145714.10
  239.09        3342.75           6758       31093.00    136034.60
  239.12        3343.00           6761       29651.00    129701.70
  239.15        3343.25           6765       27979.00    122361.40
  239.17        3343.50           6769       26453.00    115664.70
  239.20        3343.75           6773       24072.00    105221.10
  239.23        3344.00           6776       22777.00     99543.40
  239.26        3344.25           6780       20733.00     90585.62
  239.28        3344.50           6784       18668.00     81540.35
  239.31        3344.75           6788       16614.00     72547.83
  239.34        3345.00           6791       15136.00     66079.87
  239.37        3345.25           6795       12854.00     56098.08
  239.39        3345.50           6799        9981.00     43539.10
  239.42        3345.75           6803        7744.00     33766.44
  239.45        3346.00           6806        6288.00     27408.56
  239.47        3346.25           6810        4367.00     19023.65
  239.50        3346.50           6814        3047.00     13264.30
  239.53        3346.75           6818        2074.00      9020.15
  239.56        3347.00           6821        1426.00      6194.19
  239.58        3347.25           6825         514.00      2217.66
  239.61        3347.50           6829         118.00       491.29
  239.64        3347.75           6833          31.00       112.03
  239.67        3348.00           6836          38.00       142.55
  239.69        3348.25           6840          33.00       120.75
  239.72        3348.50           6844          33.00       120.75
  239.75        3348.75           6848          34.00       125.11
  239.77        3349.00           6851          36.00       133.83
  239.80        3349.25           6855          35.00       129.47
  239.83        3349.50           6859          32.00       116.39
  239.86        3349.75           6863          34.00       125.11
  239.88        3350.00           6867          30.00       107.67
  239.91        3350.25           6870          40.00       151.26
  239.94        3350.50           6874          40.00       151.26
  239.97        3350.75           6878          37.00       138.19
  239.99        3351.00           6882          35.00       129.47
HL scan finished at 04:00:37
end
