************************************************************
  HL Scan of (1) Internal mercury lamp
************************************************************
Integration time is 0.2294 seconds per sample
dh210918Tamanrasset 22.79-5.529 4.974364pr865
************************************************************
Dead Time -------------------------  2.8E-08 
Number of Cycles Used -------------  4 
Starting Wavelength (Angstroms) ---  3331 
Final Wavelength (Angstoms) -------  3351 
Wavelength Increment (Angstroms) --  .25 
Filter Wheel #1 Position ---------- (1) Ground quartz diffuser (ND=2.32)
Filter Wheel #2 Position ---------- (0) Clear Aperture



************************************************************
HL scan start time = 03:55:17
Dark Count =  4.3 


Time (GMT)  Wavelength (Ang)  Step Number  Raw Counts  Counts/Second

  235.80        3331.00           6581          30.00       112.03
  236.02        3331.25           6585          30.00       112.03
  236.04        3331.50           6589          30.00       112.03
  236.07        3331.75           6593          37.00       142.55
  236.10        3332.00           6596          29.00       107.67
  236.12        3332.25           6600          32.00       120.75
  236.15        3332.50           6604          30.00       112.03
  236.18        3332.75           6608          32.00       120.75
  236.21        3333.00           6611          27.00        98.95
  236.23        3333.25           6615          28.00       103.31
  236.26        3333.50           6619          29.00       107.67
  236.29        3333.75           6623          34.00       129.47
  236.31        3334.00           6626          36.00       138.19
  236.34        3334.25           6630          29.00       107.67
  236.37        3334.50           6634          31.00       116.39
  236.40        3334.75           6638          34.00       129.47
  236.42        3335.00           6641          32.00       120.75
  236.45        3335.25           6645          38.00       146.91
  236.48        3335.50           6649          38.00       146.91
  236.50        3335.75           6653          51.00       203.58
  236.53        3336.00           6656          79.00       325.64
  236.56        3336.25           6660         287.00      1232.39
  236.59        3336.50           6664         891.00      3865.72
  236.61        3336.75           6668        1460.00      6346.81
  236.64        3337.00           6671        1864.00      8108.64
  236.67        3337.25           6675        3397.00     14795.58
  236.69        3337.50           6679        5376.00     23431.67
  236.72        3337.75           6683        7418.00     32347.07
  236.75        3338.00           6686        9044.00     39449.40
  236.78        3338.25           6690       11136.00     48591.35
  236.80        3338.50           6694       13107.00     57208.83
  236.83        3338.75           6698       15179.00     66272.40
  236.86        3339.00           6701       16831.00     73502.03
  236.89        3339.25           6705       18883.00     82486.28
  236.91        3339.50           6709       20892.00     91286.65
  236.94        3339.75           6713       23005.00    100547.30
  236.97        3340.00           6716       24545.00    107299.70
  237.00        3340.25           6720       26765.00    117038.10
  237.02        3340.50           6724       28828.00    126092.60
  237.05        3340.75           6728       30848.00    134962.90
  237.08        3341.00           6731       32543.00    142409.40
  237.10        3341.25           6735       33874.00    148258.90
  237.13        3341.50           6739       35435.00    155121.70
  237.16        3341.75           6743       36231.00    158622.30
  237.19        3342.00           6746       36245.00    158683.90
  237.21        3342.25           6750       35887.00    157109.40
  237.24        3342.50           6754       34718.00    151969.20
  237.27        3342.75           6758       32711.00    143147.60
  237.30        3343.00           6761       31070.00    135938.00
  237.32        3343.25           6765       29092.00    127251.60
  237.35        3343.50           6769       27386.00    119763.20
  237.38        3343.75           6773       25335.00    110764.50
  237.40        3344.00           6776       23903.00    104484.40
  237.43        3344.25           6780       21647.00     94595.03
  237.46        3344.50           6784       19503.00     85201.71
  237.49        3344.75           6788       17541.00     76610.11
  237.51        3345.00           6791       15679.00     68460.23
  237.54        3345.25           6795       13305.00     58074.75
  237.57        3345.50           6799       10094.00     44037.27
  237.60        3345.75           6803        8022.00     34984.99
  237.62        3346.00           6806        6480.00     28251.20
  237.65        3346.25           6810        4531.00     19743.70
  237.68        3346.50           6814        3239.00     14106.27
  237.71        3346.75           6818        2018.00      8780.28
  237.73        3347.00           6821        1344.00      5840.97
  237.76        3347.25           6825         470.00      2030.19
  237.79        3347.50           6829         106.00       443.34
  237.81        3347.75           6833          36.00       138.19
  237.84        3348.00           6836          39.00       151.26
  237.87        3348.25           6840          36.00       138.19
  237.90        3348.50           6844          32.00       120.75
  237.92        3348.75           6848          34.00       129.47
  237.95        3349.00           6851          39.00       151.26
  237.98        3349.25           6855          32.00       120.75
  238.00        3349.50           6859          31.00       116.39
  238.03        3349.75           6863          32.00       120.75
  238.06        3350.00           6867          34.00       129.47
  238.09        3350.25           6870          34.00       129.47
  238.11        3350.50           6874          31.00       116.39
  238.14        3350.75           6878          34.00       129.47
  238.17        3351.00           6882          38.00       146.91
HL scan finished at 03:58:47
end
