************************************************************
  HL Scan of (1) Internal mercury lamp
************************************************************
Integration time is 0.2294 seconds per sample
dh220917Tamanrasset 22.79-5.529 3.154266pr865
************************************************************
Dead Time -------------------------  2.8E-08 
Number of Cycles Used -------------  4 
Starting Wavelength (Angstroms) ---  3331 
Final Wavelength (Angstoms) -------  3351 
Wavelength Increment (Angstroms) --  .25 
Filter Wheel #1 Position ---------- (1) Ground quartz diffuser (ND=2.32)
Filter Wheel #2 Position ---------- (0) Clear Aperture



************************************************************
HL scan start time = 03:56:43
Dark Count =  4.3 


Time (GMT)  Wavelength (Ang)  Step Number  Raw Counts  Counts/Second

  237.23        3331.00           6581          27.00        98.95
  237.45        3331.25           6585          29.00       107.67
  237.48        3331.50           6589          29.00       107.67
  237.50        3331.75           6593          39.00       151.26
  237.53        3332.00           6596          32.00       120.75
  237.56        3332.25           6600          29.00       107.67
  237.58        3332.50           6604          34.00       129.47
  237.61        3332.75           6608          31.00       116.39
  237.64        3333.00           6611          29.00       107.67
  237.67        3333.25           6615          32.00       120.75
  237.69        3333.50           6619          31.00       116.39
  237.72        3333.75           6623          28.00       103.31
  237.75        3334.00           6626          32.00       120.75
  237.78        3334.25           6630          28.00       103.31
  237.80        3334.50           6634          39.00       151.26
  237.83        3334.75           6638          29.00       107.67
  237.86        3335.00           6641          29.00       107.67
  237.88        3335.25           6645          32.00       120.75
  237.91        3335.50           6649          34.00       129.47
  237.94        3335.75           6653          38.00       146.91
  237.97        3336.00           6656          63.00       255.89
  237.99        3336.25           6660         229.00       979.54
  238.02        3336.50           6664         709.00      3072.19
  238.05        3336.75           6668        1190.00      5169.45
  238.08        3337.00           6671        1537.00      6682.59
  238.10        3337.25           6675        3001.00     13067.99
  238.13        3337.50           6679        4776.00     20812.91
  238.16        3337.75           6683        6822.00     29744.47
  238.19        3338.00           6686        8235.00     35915.35
  238.21        3338.25           6690       10147.00     44268.88
  238.24        3338.50           6694       12065.00     52652.55
  238.27        3338.75           6698       13955.00     60917.69
  238.30        3339.00           6701       15401.00     67243.75
  238.32        3339.25           6705       17503.00     76443.75
  238.35        3339.50           6709       19474.00     85074.69
  238.38        3339.75           6713       21500.00     93950.83
  238.41        3340.00           6716       23087.00    100906.80
  238.43        3340.25           6720       24965.00    109141.70
  238.46        3340.50           6724       26865.00    117476.90
  238.49        3340.75           6728       28928.00    126531.60
  238.52        3341.00           6731       30338.00    132722.90
  238.54        3341.25           6735       31789.00    139096.50
  238.57        3341.50           6739       33331.00    145872.30
  238.60        3341.75           6743       34197.00    149678.70
  238.63        3342.00           6746       34289.00    150083.20
  238.65        3342.25           6750       34084.00    149182.00
  238.68        3342.50           6754       33006.00    144444.00
  238.71        3342.75           6758       31108.00    136104.90
  238.74        3343.00           6761       29750.00    130140.80
  238.76        3343.25           6765       27818.00    121659.10
  238.79        3343.50           6769       26254.00    114796.00
  238.82        3343.75           6773       24384.00    106593.60
  238.85        3344.00           6776       22851.00     99872.19
  238.87        3344.25           6780       20915.00     91387.42
  238.90        3344.50           6784       18962.00     82832.25
  238.93        3344.75           6788       16965.00     74088.58
  238.96        3345.00           6791       15343.00     66989.96
  238.98        3345.25           6795       13328.00     58175.33
  239.01        3345.50           6799       10651.00     46471.50
  239.04        3345.75           6803        8023.00     34989.36
  239.07        3346.00           6806        6654.00     29010.92
  239.09        3346.25           6810        4764.00     20760.54
  239.12        3346.50           6814        3602.00     15689.98
  239.15        3346.75           6818        2405.00     10468.19
  239.18        3347.00           6821        1705.00      7415.23
  239.20        3347.25           6825         665.00      2880.35
  239.23        3347.50           6829         179.00       761.57
  239.26        3347.75           6833          47.00       186.14
  239.28        3348.00           6836          36.00       138.19
  239.31        3348.25           6840          40.00       155.62
  239.34        3348.50           6844          32.00       120.75
  239.37        3348.75           6848          31.00       116.39
  239.39        3349.00           6851          34.00       129.47
  239.42        3349.25           6855          38.00       146.91
  239.45        3349.50           6859          28.00       103.31
  239.48        3349.75           6863          35.00       133.83
  239.50        3350.00           6867          35.00       133.83
  239.53        3350.25           6870          37.00       142.55
  239.56        3350.50           6874          29.00       107.67
  239.58        3350.75           6878          29.00       107.67
  239.61        3351.00           6882          39.00       151.26
HL scan finished at 04:00:14
end
