************************************************************
  HL Scan of (1) Internal mercury lamp
************************************************************
Integration time is 0.2294 seconds per sample
dh180918Tamanrasset 22.79-5.529 4.974364pr865
************************************************************
Dead Time -------------------------  2.8E-08 
Number of Cycles Used -------------  4 
Starting Wavelength (Angstroms) ---  3331 
Final Wavelength (Angstoms) -------  3351 
Wavelength Increment (Angstroms) --  .25 
Filter Wheel #1 Position ---------- (1) Ground quartz diffuser (ND=2.32)
Filter Wheel #2 Position ---------- (0) Clear Aperture



************************************************************
HL scan start time = 03:54:42
Dark Count =  5.2 


Time (GMT)  Wavelength (Ang)  Step Number  Raw Counts  Counts/Second

  235.22        3331.00           6581          31.00       112.47
  235.43        3331.25           6585          32.00       116.83
  235.46        3331.50           6589          30.00       108.11
  235.49        3331.75           6593          30.00       108.11
  235.52        3332.00           6596          29.00       103.75
  235.54        3332.25           6600          33.00       121.19
  235.57        3332.50           6604          26.00        90.67
  235.60        3332.75           6608          38.00       142.98
  235.63        3333.00           6611          33.00       121.19
  235.65        3333.25           6615          34.00       125.55
  235.68        3333.50           6619          32.00       116.83
  235.71        3333.75           6623          36.00       134.26
  235.74        3334.00           6626          33.00       121.19
  235.76        3334.25           6630          32.00       116.83
  235.79        3334.50           6634          33.00       121.19
  235.82        3334.75           6638          39.00       147.34
  235.84        3335.00           6641          34.00       125.55
  235.87        3335.25           6645          40.00       151.70
  235.90        3335.50           6649          47.00       182.22
  235.93        3335.75           6653          54.00       212.73
  235.95        3336.00           6656         141.00       591.99
  235.98        3336.25           6660         437.00      1882.40
  236.01        3336.50           6664        1166.00      5060.87
  236.04        3336.75           6668        2067.00      8990.06
  236.06        3337.00           6671        2596.00     11297.38
  236.09        3337.25           6675        4206.00     18321.52
  236.12        3337.50           6679        6209.00     27064.09
  236.14        3337.75           6683        8287.00     36138.56
  236.17        3338.00           6686        9986.00     43561.39
  236.20        3338.25           6690       12321.00     53767.90
  236.23        3338.50           6694       14322.00     62519.11
  236.26        3338.75           6698       16560.00     72311.93
  236.28        3339.00           6701       18242.00     79675.38
  236.31        3339.25           6705       20553.00     89797.42
  236.34        3339.50           6709       22711.00     99254.53
  236.36        3339.75           6713       24669.00    107839.50
  236.39        3340.00           6716       26418.00    115511.60
  236.42        3340.25           6720       28495.00    124626.80
  236.45        3340.50           6724       31022.00    135723.20
  236.47        3340.75           6728       33126.00    144967.40
  236.50        3341.00           6731       34579.00    151354.10
  236.53        3341.25           6735       36260.00    158745.90
  236.56        3341.50           6739       37432.00    163901.30
  236.59        3341.75           6743       38318.00    167799.60
  236.61        3342.00           6746       38490.00    168556.50
  236.64        3342.25           6750       37652.00    164869.20
  236.67        3342.50           6754       36285.00    158855.90
  236.70        3342.75           6758       33938.00    148536.30
  236.72        3343.00           6761       32516.00    142286.80
  236.75        3343.25           6765       30265.00    132398.40
  236.78        3343.50           6769       28594.00    125061.40
  236.81        3343.75           6773       26377.00    115331.70
  236.83        3344.00           6776       24698.00    107966.70
  236.86        3344.25           6780       22498.00     98320.88
  236.89        3344.50           6784       20249.00     88465.60
  236.92        3344.75           6788       17959.00     78436.25
  236.94        3345.00           6791       15994.00     69834.77
  236.97        3345.25           6795       13713.00     59855.25
  237.00        3345.50           6799       10463.00     45645.92
  237.03        3345.75           6803        8093.00     35291.18
  237.05        3346.00           6806        6426.00     28011.50
  237.08        3346.25           6810        4426.00     19281.55
  237.11        3346.50           6814        2909.00     12662.73
  237.13        3346.75           6818        1695.00      7367.69
  237.16        3347.00           6821        1109.00      4812.33
  237.19        3347.25           6825         393.00      1690.58
  237.22        3347.50           6829          91.00       374.02
  237.24        3347.75           6833          45.00       173.50
  237.27        3348.00           6836          39.00       147.34
  237.30        3348.25           6840          33.00       121.19
  237.33        3348.50           6844          40.00       151.70
  237.35        3348.75           6848          32.00       116.83
  237.38        3349.00           6851          35.00       129.90
  237.41        3349.25           6855          35.00       129.90
  237.44        3349.50           6859          31.00       112.47
  237.46        3349.75           6863          32.00       116.83
  237.49        3350.00           6867          35.00       129.90
  237.52        3350.25           6870          33.00       121.19
  237.54        3350.50           6874          34.00       125.55
  237.57        3350.75           6878          41.00       156.06
  237.60        3351.00           6882          39.00       147.34
HL scan finished at 03:58:13
end
