************************************************************
  HL Scan of (1) Internal mercury lamp
************************************************************
Integration time is 0.2294 seconds per sample
dh200917Tamanrasset 22.79-5.529 3.077792pr865
************************************************************
Dead Time -------------------------  2.8E-08 
Number of Cycles Used -------------  4 
Starting Wavelength (Angstroms) ---  3331 
Final Wavelength (Angstoms) -------  3351 
Wavelength Increment (Angstroms) --  .25 
Filter Wheel #1 Position ---------- (1) Ground quartz diffuser (ND=2.32)
Filter Wheel #2 Position ---------- (0) Clear Aperture



************************************************************
HL scan start time = 03:55:40
Dark Count =  5.2 


Time (GMT)  Wavelength (Ang)  Step Number  Raw Counts  Counts/Second

  236.19        3331.00           6581          28.00        99.39
  236.40        3331.25           6585          35.00       129.90
  236.43        3331.50           6589          28.00        99.39
  236.46        3331.75           6593          29.00       103.75
  236.49        3332.00           6596          35.00       129.90
  236.51        3332.25           6600          27.00        95.03
  236.54        3332.50           6604          34.00       125.55
  236.57        3332.75           6608          32.00       116.83
  236.59        3333.00           6611          29.00       103.75
  236.62        3333.25           6615          27.00        95.03
  236.65        3333.50           6619          30.00       108.11
  236.68        3333.75           6623          31.00       112.47
  236.70        3334.00           6626          30.00       108.11
  236.73        3334.25           6630          33.00       121.19
  236.76        3334.50           6634          32.00       116.83
  236.78        3334.75           6638          25.00        86.31
  236.81        3335.00           6641          35.00       129.90
  236.84        3335.25           6645          33.00       121.19
  236.87        3335.50           6649          38.00       142.98
  236.89        3335.75           6653          51.00       199.65
  236.92        3336.00           6656         118.00       491.72
  236.95        3336.25           6660         382.00      1642.62
  236.97        3336.50           6664         810.00      3508.63
  237.00        3336.75           6668        1450.00      6299.28
  237.03        3337.00           6671        2135.00      9286.64
  237.06        3337.25           6675        3616.00     15747.14
  237.08        3337.50           6679        5481.00     23886.07
  237.11        3337.75           6683        7318.00     31906.44
  237.14        3338.00           6686        8742.00     38126.12
  237.17        3338.25           6690       10459.00     45628.44
  237.19        3338.50           6694       12377.00     54012.75
  237.22        3338.75           6698       14387.00     62803.46
  237.25        3339.00           6701       15643.00     68298.75
  237.27        3339.25           6705       17511.00     76474.83
  237.30        3339.50           6709       19443.00     84934.97
  237.33        3339.75           6713       21242.00     92816.32
  237.36        3340.00           6716       22563.00     98605.80
  237.38        3340.25           6720       24489.00    107050.10
  237.41        3340.50           6724       26442.00    115616.90
  237.44        3340.75           6728       28019.00    122537.40
  237.47        3341.00           6731       29070.00    127151.10
  237.49        3341.25           6735       30624.00    133975.10
  237.52        3341.50           6739       31582.00    138183.10
  237.55        3341.75           6743       32107.00    140489.70
  237.57        3342.00           6746       31946.00    139782.30
  237.60        3342.25           6750       31532.00    137963.50
  237.63        3342.50           6754       30365.00    132837.60
  237.66        3342.75           6758       28337.00    123933.30
  237.68        3343.00           6761       27172.00    118820.10
  237.71        3343.25           6765       25593.00    111892.30
  237.74        3343.50           6769       23765.00    103875.40
  237.77        3343.75           6773       21992.00     96103.07
  237.79        3344.00           6776       20376.00     89021.98
  237.82        3344.25           6780       18739.00     81851.72
  237.85        3344.50           6784       16744.00     73117.28
  237.87        3344.75           6788       14958.00     65301.51
  237.90        3345.00           6791       13392.00     58451.30
  237.93        3345.25           6795       11179.00     48775.37
  237.96        3345.50           6799        8896.00     38798.88
  237.98        3345.75           6803        6639.00     28941.49
  238.01        3346.00           6806        5309.00     23135.30
  238.04        3346.25           6810        3835.00     16702.67
  238.07        3346.50           6814        2806.00     12213.42
  238.09        3346.75           6818        1821.00      7917.19
  238.12        3347.00           6821        1080.00      4685.88
  238.15        3347.25           6825         317.00      1359.25
  238.18        3347.50           6829          65.00       260.68
  238.20        3347.75           6833          43.00       164.78
  238.23        3348.00           6836          36.00       134.26
  238.26        3348.25           6840          33.00       121.19
  238.28        3348.50           6844          31.00       112.47
  238.31        3348.75           6848          34.00       125.55
  238.34        3349.00           6851          40.00       151.70
  238.37        3349.25           6855          35.00       129.90
  238.39        3349.50           6859          32.00       116.83
  238.42        3349.75           6863          36.00       134.26
  238.45        3350.00           6867          37.00       138.62
  238.47        3350.25           6870          36.00       134.26
  238.50        3350.50           6874          36.00       134.26
  238.53        3350.75           6878          40.00       151.70
  238.56        3351.00           6882          37.00       138.62
HL scan finished at 03:59:11
end
