************************************************************
  HL Scan of (1) Internal mercury lamp
************************************************************
Integration time is 0.2294 seconds per sample
dh280917Tamanrasset 22.79-5.529 3.08289pr865
************************************************************
Dead Time -------------------------  2.8E-08 
Number of Cycles Used -------------  4 
Starting Wavelength (Angstroms) ---  3331 
Final Wavelength (Angstoms) -------  3351 
Wavelength Increment (Angstroms) --  .25 
Filter Wheel #1 Position ---------- (1) Ground quartz diffuser (ND=2.32)
Filter Wheel #2 Position ---------- (0) Clear Aperture



************************************************************
HL scan start time = 03:57:14
Dark Count =  3.8 


Time (GMT)  Wavelength (Ang)  Step Number  Raw Counts  Counts/Second

  237.74        3331.00           6581          36.00       140.37
  237.96        3331.25           6585          34.00       131.65
  237.99        3331.50           6589          29.00       109.85
  238.01        3331.75           6593          30.00       114.21
  238.04        3332.00           6596          30.00       114.21
  238.07        3332.25           6600          33.00       127.29
  238.10        3332.50           6604          31.00       118.57
  238.12        3332.75           6608          27.00       101.13
  238.15        3333.00           6611          33.00       127.29
  238.18        3333.25           6615          35.00       136.01
  238.20        3333.50           6619          29.00       109.85
  238.23        3333.75           6623          30.00       114.21
  238.26        3334.00           6626          32.00       122.93
  238.29        3334.25           6630          31.00       118.57
  238.31        3334.50           6634          35.00       136.01
  238.34        3334.75           6638          32.00       122.93
  238.37        3335.00           6641          29.00       109.85
  238.40        3335.25           6645          33.00       127.29
  238.42        3335.50           6649          49.00       197.04
  238.45        3335.75           6653          50.00       201.40
  238.48        3336.00           6656         108.00       454.23
  238.50        3336.25           6660         333.00      1435.11
  238.53        3336.50           6664         661.00      2865.09
  238.56        3336.75           6668        1237.00      5376.57
  238.59        3337.00           6671        1942.00      8451.00
  238.61        3337.25           6675        3489.00     15199.15
  238.64        3337.50           6679        5143.00     22416.86
  238.67        3337.75           6683        6923.00     30187.67
  238.70        3338.00           6686        8225.00     35873.86
  238.72        3338.25           6690       10036.00     43786.00
  238.75        3338.50           6694       11815.00     51561.75
  238.78        3338.75           6698       13648.00     59577.07
  238.81        3339.00           6701       15043.00     65679.53
  238.83        3339.25           6705       16922.00     73902.55
  238.86        3339.50           6709       18827.00     82243.24
  238.89        3339.75           6713       20522.00     89667.74
  238.92        3340.00           6716       21913.00     95762.97
  238.94        3340.25           6720       23881.00    104390.10
  238.97        3340.50           6724       25658.00    112183.60
  239.00        3340.75           6728       27234.00    119098.30
  239.03        3341.00           6731       28567.00    124949.00
  239.05        3341.25           6735       29984.00    131170.50
  239.08        3341.50           6739       31052.00    135861.10
  239.11        3341.75           6743       31763.00    138984.50
  239.14        3342.00           6746       32089.00    140416.70
  239.16        3342.25           6750       31416.00    137460.10
  239.19        3342.50           6754       30286.00    132496.80
  239.22        3342.75           6758       28739.00    125704.10
  239.25        3343.00           6761       27279.00    119295.80
  239.27        3343.25           6765       25658.00    112183.60
  239.30        3343.50           6769       23858.00    104289.30
  239.33        3343.75           6773       21999.00     96139.88
  239.36        3344.00           6776       20676.00     90342.46
  239.38        3344.25           6780       18762.00     81958.57
  239.41        3344.50           6784       16935.00     73959.46
  239.44        3344.75           6788       15064.00     65771.41
  239.47        3345.00           6791       13470.00     58798.56
  239.49        3345.25           6795       11246.00     49074.37
  239.52        3345.50           6799        8954.00     39058.39
  239.55        3345.75           6803        6822.00     29746.65
  239.57        3346.00           6806        5512.00     24027.50
  239.60        3346.25           6810        3879.00     16900.76
  239.63        3346.50           6814        2987.00     13009.10
  239.66        3346.75           6818        2031.00      8839.15
  239.68        3347.00           6821        1137.00      4940.53
  239.71        3347.25           6825         384.00      1657.44
  239.74        3347.50           6829          85.00       353.97
  239.77        3347.75           6833          36.00       140.37
  239.79        3348.00           6836          37.00       144.73
  239.82        3348.25           6840          34.00       131.65
  239.85        3348.50           6844          30.00       114.21
  239.88        3348.75           6848          37.00       144.73
  239.90        3349.00           6851          37.00       144.73
  239.93        3349.25           6855          36.00       140.37
  239.96        3349.50           6859          35.00       136.01
  239.98        3349.75           6863          31.00       118.57
  240.01        3350.00           6867          35.00       136.01
  240.04        3350.25           6870          28.00       105.49
  240.07        3350.50           6874          34.00       131.65
  240.09        3350.75           6878          31.00       118.57
  240.12        3351.00           6882          31.00       118.57
HL scan finished at 04:00:45
end
