************************************************************
  HL Scan of (1) Internal mercury lamp
************************************************************
Integration time is 0.2294 seconds per sample
dh270917Tamanrasset 22.79-5.529 3.14407pr865
************************************************************
Dead Time -------------------------  2.8E-08 
Number of Cycles Used -------------  4 
Starting Wavelength (Angstroms) ---  3331 
Final Wavelength (Angstoms) -------  3351 
Wavelength Increment (Angstroms) --  .25 
Filter Wheel #1 Position ---------- (1) Ground quartz diffuser (ND=2.32)
Filter Wheel #2 Position ---------- (0) Clear Aperture



************************************************************
HL scan start time = 03:57:42
Dark Count =  6.2 


Time (GMT)  Wavelength (Ang)  Step Number  Raw Counts  Counts/Second

  238.21        3331.00           6581          28.00        95.03
  238.43        3331.25           6585          36.00       129.90
  238.46        3331.50           6589          28.00        95.03
  238.49        3331.75           6593          30.00       103.75
  238.51        3332.00           6596          30.00       103.75
  238.54        3332.25           6600          31.00       108.11
  238.57        3332.50           6604          28.00        95.03
  238.59        3332.75           6608          31.00       108.11
  238.62        3333.00           6611          32.00       112.47
  238.65        3333.25           6615          33.00       116.83
  238.68        3333.50           6619          29.00        99.39
  238.70        3333.75           6623          31.00       108.11
  238.73        3334.00           6626          30.00       103.75
  238.76        3334.25           6630          32.00       112.47
  238.78        3334.50           6634          34.00       121.19
  238.81        3334.75           6638          31.00       108.11
  238.84        3335.00           6641          33.00       116.83
  238.87        3335.25           6645          36.00       129.90
  238.89        3335.50           6649          45.00       169.14
  238.92        3335.75           6653          45.00       169.14
  238.95        3336.00           6656         103.00       421.98
  238.98        3336.25           6660         307.00      1311.29
  239.00        3336.50           6664         733.00      3168.55
  239.03        3336.75           6668        1279.00      5549.25
  239.06        3337.00           6671        1839.00      7991.33
  239.09        3337.25           6675        3467.00     15092.69
  239.11        3337.50           6679        5364.00     23371.00
  239.14        3337.75           6683        7266.00     31674.99
  239.17        3338.00           6686        8727.00     38056.22
  239.19        3338.25           6690       10518.00     45881.92
  239.22        3338.50           6694       12401.00     54113.32
  239.25        3338.75           6698       14313.00     62475.37
  239.28        3339.00           6701       15804.00     68998.91
  239.30        3339.25           6705       17892.00     78138.52
  239.33        3339.50           6709       19815.00     86560.02
  239.36        3339.75           6713       21785.00     95191.48
  239.39        3340.00           6716       23359.00    102090.90
  239.42        3340.25           6720       25277.00    110501.80
  239.44        3340.50           6724       27045.00    118258.40
  239.47        3340.75           6728       28803.00    125974.50
  239.50        3341.00           6731       30233.00    132253.40
  239.52        3341.25           6735       31791.00    139096.90
  239.55        3341.50           6739       32880.00    143881.90
  239.58        3341.75           6743       33836.00    148083.50
  239.61        3342.00           6746       33924.00    148470.30
  239.63        3342.25           6750       33420.00    146255.10
  239.66        3342.50           6754       32059.00    140274.40
  239.69        3342.75           6758       30254.00    132345.70
  239.72        3343.00           6761       28726.00    125636.50
  239.74        3343.25           6765       27213.00    118995.70
  239.77        3343.50           6769       25391.00    111001.90
  239.80        3343.75           6773       23603.00    103160.70
  239.83        3344.00           6776       21994.00     96107.46
  239.85        3344.25           6780       20118.00     87887.33
  239.88        3344.50           6784       17958.00     78427.49
  239.91        3344.75           6788       15913.00     69475.91
  239.94        3345.00           6791       14318.00     62497.24
  239.96        3345.25           6795       12016.00     52430.01
  239.99        3345.50           6799        9558.00     41686.82
  240.02        3345.75           6803        7379.00     32168.46
  240.05        3346.00           6806        5902.00     25719.47
  240.07        3346.25           6810        4091.00     17815.34
  240.10        3346.50           6814        3007.00     13085.88
  240.13        3346.75           6818        2194.00      9539.60
  240.16        3347.00           6821        1274.00      5527.45
  240.18        3347.25           6825         396.00      1699.30
  240.21        3347.50           6829          82.00       330.43
  240.24        3347.75           6833          35.00       125.55
  240.27        3348.00           6836          40.00       147.34
  240.29        3348.25           6840          36.00       129.90
  240.32        3348.50           6844          35.00       125.55
  240.35        3348.75           6848          34.00       121.19
  240.37        3349.00           6851          35.00       125.55
  240.40        3349.25           6855          31.00       108.11
  240.43        3349.50           6859          34.00       121.19
  240.46        3349.75           6863          31.00       108.11
  240.48        3350.00           6867          31.00       108.11
  240.51        3350.25           6870          34.00       121.19
  240.54        3350.50           6874          37.00       134.26
  240.57        3350.75           6878          37.00       134.26
  240.59        3351.00           6882          35.00       125.55
HL scan finished at 04:01:13
end
