************************************************************
  HL Scan of (1) Internal mercury lamp
************************************************************
Integration time is 0.2294 seconds per sample
dh041018Tamanrasset 22.79-5.529 4.974364pr865
************************************************************
Dead Time -------------------------  2.8E-08 
Number of Cycles Used -------------  4 
Starting Wavelength (Angstroms) ---  3331 
Final Wavelength (Angstoms) -------  3351 
Wavelength Increment (Angstroms) --  .25 
Filter Wheel #1 Position ---------- (1) Ground quartz diffuser (ND=2.32)
Filter Wheel #2 Position ---------- (0) Clear Aperture



************************************************************
HL scan start time = 04:00:09
Dark Count =  6.1 


Time (GMT)  Wavelength (Ang)  Step Number  Raw Counts  Counts/Second

  240.67        3331.00           6581          36.00       130.34
  240.89        3331.25           6585          29.00        99.83
  240.91        3331.50           6589          34.00       121.62
  240.94        3331.75           6593          29.00        99.83
  240.97        3332.00           6596          25.00        82.39
  240.99        3332.25           6600          33.00       117.26
  241.02        3332.50           6604          26.00        86.75
  241.05        3332.75           6608          29.00        99.83
  241.08        3333.00           6611          37.00       134.70
  241.10        3333.25           6615          32.00       112.90
  241.13        3333.50           6619          30.00       104.19
  241.16        3333.75           6623          32.00       112.90
  241.18        3334.00           6626          29.00        99.83
  241.21        3334.25           6630          27.00        91.11
  241.24        3334.50           6634          27.00        91.11
  241.27        3334.75           6638          30.00       104.19
  241.29        3335.00           6641          29.00        99.83
  241.32        3335.25           6645          33.00       117.26
  241.35        3335.50           6649          40.00       147.78
  241.37        3335.75           6653          40.00       147.78
  241.40        3336.00           6656          76.00       304.71
  241.43        3336.25           6660         237.00      1006.57
  241.46        3336.50           6664         543.00      2340.61
  241.48        3336.75           6668        1109.00      4808.41
  241.51        3337.00           6671        1469.00      6378.21
  241.54        3337.25           6675        2813.00     12240.03
  241.57        3337.50           6679        4418.00     19242.71
  241.59        3337.75           6683        5961.00     25977.48
  241.62        3338.00           6686        7225.00     31496.38
  241.65        3338.25           6690        8887.00     38755.63
  241.68        3338.50           6694       10470.00     45672.58
  241.70        3338.75           6698       12192.00     53199.94
  241.73        3339.00           6701       13375.00     58373.01
  241.76        3339.25           6705       14959.00     65301.94
  241.78        3339.50           6709       16842.00     73542.30
  241.81        3339.75           6713       18387.00     80306.36
  241.84        3340.00           6716       19529.00     85307.71
  241.87        3340.25           6720       21286.00     93005.19
  241.89        3340.50           6724       22973.00    100399.10
  241.92        3340.75           6728       24479.00    107002.30
  241.95        3341.00           6731       25890.00    113191.20
  241.98        3341.25           6735       27085.00    118434.40
  242.00        3341.50           6739       28054.00    122687.10
  242.03        3341.75           6743       28548.00    124855.50
  242.06        3342.00           6746       28832.00    126102.30
  242.09        3342.25           6750       28508.00    124679.90
  242.11        3342.50           6754       27639.00    120865.60
  242.14        3342.75           6758       26056.00    113919.50
  242.17        3343.00           6761       24749.00    108186.40
  242.19        3343.25           6765       23421.00    102363.20
  242.22        3343.50           6769       21820.00     95345.31
  242.25        3343.75           6773       20048.00     87581.12
  242.28        3344.00           6776       18718.00     81755.82
  242.30        3344.25           6780       17091.00     74632.26
  242.33        3344.50           6784       15562.00     67940.38
  242.36        3344.75           6788       13821.00     60323.69
  242.39        3345.00           6791       12491.00     54507.28
  242.41        3345.25           6795       10626.00     46354.38
  242.44        3345.50           6799        8402.00     36636.96
  242.47        3345.75           6803        6380.00     27806.74
  242.49        3346.00           6806        5128.00     22341.35
  242.52        3346.25           6810        3643.00     15861.01
  242.55        3346.50           6814        2644.00     11502.83
  242.58        3346.75           6818        1830.00      7952.51
  242.60        3347.00           6821        1147.00      4974.10
  242.63        3347.25           6825         409.00      1756.41
  242.66        3347.50           6829          81.00       326.51
  242.69        3347.75           6833          40.00       147.78
  242.71        3348.00           6836          37.00       134.70
  242.74        3348.25           6840          34.00       121.62
  242.77        3348.50           6844          30.00       104.19
  242.79        3348.75           6848          39.00       143.42
  242.82        3349.00           6851          30.00       104.19
  242.85        3349.25           6855          30.00       104.19
  242.88        3349.50           6859          30.00       104.19
  242.90        3349.75           6863          35.00       125.98
  242.93        3350.00           6867          32.00       112.90
  242.96        3350.25           6870          32.00       112.90
  242.98        3350.50           6874          34.00       121.62
  243.01        3350.75           6878          32.00       112.90
  243.04        3351.00           6882          34.00       121.62
HL scan finished at 04:03:40
end
