************************************************************
  HL Scan of (1) Internal mercury lamp
************************************************************
Integration time is 0.2294 seconds per sample
dh031018Tamanrasset 22.79-5.529 4.974364pr865
************************************************************
Dead Time -------------------------  2.8E-08 
Number of Cycles Used -------------  4 
Starting Wavelength (Angstroms) ---  3331 
Final Wavelength (Angstoms) -------  3351 
Wavelength Increment (Angstroms) --  .25 
Filter Wheel #1 Position ---------- (1) Ground quartz diffuser (ND=2.32)
Filter Wheel #2 Position ---------- (0) Clear Aperture



************************************************************
HL scan start time = 03:58:42
Dark Count =  5.3 


Time (GMT)  Wavelength (Ang)  Step Number  Raw Counts  Counts/Second

  239.21        3331.00           6581          32.00       116.39
  239.43        3331.25           6585          28.00        98.95
  239.46        3331.50           6589          27.00        94.59
  239.48        3331.75           6593          32.00       116.39
  239.51        3332.00           6596          25.00        85.88
  239.54        3332.25           6600          32.00       116.39
  239.57        3332.50           6604          31.00       112.03
  239.59        3332.75           6608          28.00        98.95
  239.62        3333.00           6611          33.00       120.75
  239.65        3333.25           6615          26.00        90.24
  239.67        3333.50           6619          27.00        94.59
  239.70        3333.75           6623          30.00       107.67
  239.73        3334.00           6626          26.00        90.24
  239.76        3334.25           6630          30.00       107.67
  239.78        3334.50           6634          27.00        94.59
  239.81        3334.75           6638          29.00       103.31
  239.84        3335.00           6641          34.00       125.11
  239.86        3335.25           6645          32.00       116.39
  239.89        3335.50           6649          35.00       129.47
  239.92        3335.75           6653          40.00       151.26
  239.95        3336.00           6656          54.00       212.29
  239.97        3336.25           6660         201.00       853.12
  240.00        3336.50           6664         599.00      2588.24
  240.03        3336.75           6668         932.00      4040.13
  240.05        3337.00           6671        1350.00      5862.78
  240.08        3337.25           6675        2575.00     11205.35
  240.11        3337.50           6679        4147.00     18063.63
  240.14        3337.75           6683        5712.00     24893.98
  240.16        3338.00           6686        6983.00     30443.12
  240.19        3338.25           6690        8630.00     37636.42
  240.22        3338.50           6694       10294.00     44906.91
  240.25        3338.75           6698       11811.00     51537.71
  240.27        3339.00           6701       13096.00     57156.35
  240.30        3339.25           6705       14773.00     64491.69
  240.33        3339.50           6709       16612.00     72539.07
  240.36        3339.75           6713       18275.00     79819.43
  240.38        3340.00           6716       19504.00     85201.71
  240.41        3340.25           6720       21214.00     92693.19
  240.44        3340.50           6724       22812.00     99696.84
  240.46        3340.75           6728       24537.00    107260.20
  240.49        3341.00           6731       25622.00    112019.10
  240.52        3341.25           6735       27157.00    118753.90
  240.55        3341.50           6739       28290.00    123726.50
  240.57        3341.75           6743       28905.00    126426.30
  240.60        3342.00           6746       29408.00    128634.70
  240.63        3342.25           6750       28867.00    126259.40
  240.66        3342.50           6754       28202.00    123340.20
  240.68        3342.75           6758       26766.00    117038.10
  240.71        3343.00           6761       25504.00    111501.50
  240.74        3343.25           6765       23987.00    104848.30
  240.77        3343.50           6769       22386.00     97829.51
  240.79        3343.75           6773       20773.00     90760.88
  240.82        3344.00           6776       19391.00     84706.78
  240.85        3344.25           6780       17942.00     78361.38
  240.87        3344.50           6784       16286.00     71112.25
  240.90        3344.75           6788       14550.00     63516.09
  240.93        3345.00           6791       13199.00     57606.80
  240.96        3345.25           6795       11375.00     49631.70
  240.98        3345.50           6799        9034.00     39401.34
  241.01        3345.75           6803        6891.00     30041.39
  241.04        3346.00           6806        5614.00     24466.19
  241.07        3346.25           6810        4118.00     17937.08
  241.09        3346.50           6814        2895.00     12601.22
  241.12        3346.75           6818        1934.00      8409.56
  241.15        3347.00           6821        1382.00      6002.32
  241.18        3347.25           6825         522.00      2252.54
  241.20        3347.50           6829         143.00       600.27
  241.23        3347.75           6833          41.00       155.62
  241.26        3348.00           6836          37.00       138.19
  241.28        3348.25           6840          37.00       138.19
  241.31        3348.50           6844          31.00       112.03
  241.34        3348.75           6848          31.00       112.03
  241.37        3349.00           6851          33.00       120.75
  241.39        3349.25           6855          29.00       103.31
  241.42        3349.50           6859          33.00       120.75
  241.45        3349.75           6863          35.00       129.47
  241.47        3350.00           6867          26.00        90.24
  241.50        3350.25           6870          36.00       133.83
  241.53        3350.50           6874          32.00       116.39
  241.56        3350.75           6878          27.00        94.59
  241.58        3351.00           6882          32.00       116.39
HL scan finished at 04:02:12
end
