************************************************************
  HL Scan of (1) Internal mercury lamp
************************************************************
Integration time is 0.2294 seconds per sample
dh290917Tamanrasset 22.79-5.529 3.087988pr865
************************************************************
Dead Time -------------------------  2.8E-08 
Number of Cycles Used -------------  4 
Starting Wavelength (Angstroms) ---  3331 
Final Wavelength (Angstoms) -------  3351 
Wavelength Increment (Angstroms) --  .25 
Filter Wheel #1 Position ---------- (1) Ground quartz diffuser (ND=2.32)
Filter Wheel #2 Position ---------- (0) Clear Aperture



************************************************************
HL scan start time = 03:58:42
Dark Count =  4.3 


Time (GMT)  Wavelength (Ang)  Step Number  Raw Counts  Counts/Second

  239.22        3331.00           6581          28.00       103.31
  239.44        3331.25           6585          27.00        98.95
  239.47        3331.50           6589          27.00        98.95
  239.49        3331.75           6593          30.00       112.03
  239.52        3332.00           6596          32.00       120.75
  239.55        3332.25           6600          25.00        90.24
  239.58        3332.50           6604          28.00       103.31
  239.60        3332.75           6608          27.00        98.95
  239.63        3333.00           6611          28.00       103.31
  239.66        3333.25           6615          26.00        94.59
  239.68        3333.50           6619          30.00       112.03
  239.71        3333.75           6623          28.00       103.31
  239.74        3334.00           6626          31.00       116.39
  239.77        3334.25           6630          33.00       125.11
  239.79        3334.50           6634          34.00       129.47
  239.82        3334.75           6638          31.00       116.39
  239.85        3335.00           6641          28.00       103.31
  239.88        3335.25           6645          31.00       116.39
  239.90        3335.50           6649          36.00       138.19
  239.93        3335.75           6653          40.00       155.62
  239.96        3336.00           6656          83.00       343.07
  239.99        3336.25           6660         281.00      1206.23
  240.01        3336.50           6664         847.00      3673.87
  240.04        3336.75           6668        1358.00      5902.02
  240.07        3337.00           6671        1863.00      8104.28
  240.09        3337.25           6675        3334.00     14520.72
  240.12        3337.50           6679        5092.00     22192.08
  240.15        3337.75           6683        6887.00     30028.29
  240.18        3338.00           6686        8264.00     36042.02
  240.20        3338.25           6690       10108.00     44098.45
  240.23        3338.50           6694       11923.00     52031.72
  240.26        3338.75           6698       13731.00     59937.92
  240.29        3339.00           6701       15147.00     66132.38
  240.31        3339.25           6705       17097.00     74666.40
  240.34        3339.50           6709       18750.00     81903.84
  240.37        3339.75           6713       20778.00     90787.16
  240.40        3340.00           6716       22002.00     96150.84
  240.42        3340.25           6720       24096.00    105330.70
  240.45        3340.50           6724       25749.00    112580.60
  240.48        3340.75           6728       27570.00    120570.70
  240.51        3341.00           6731       28653.00    125324.40
  240.53        3341.25           6735       30325.00    132665.80
  240.56        3341.50           6739       31329.00    137075.70
  240.59        3341.75           6743       31819.00    139228.30
  240.62        3342.00           6746       31978.00    139926.90
  240.64        3342.25           6750       31616.00    138336.50
  240.67        3342.50           6754       30650.00    134093.20
  240.70        3342.75           6758       28562.00    124924.90
  240.73        3343.00           6761       27209.00    118986.40
  240.75        3343.25           6765       25517.00    111562.90
  240.78        3343.50           6769       23885.00    104405.50
  240.81        3343.75           6773       22226.00     97132.61
  240.84        3344.00           6776       20628.00     90129.96
  240.86        3344.25           6780       18875.00     82451.25
  240.89        3344.50           6784       17188.00     75064.76
  240.92        3344.75           6788       15216.00     66434.28
  240.95        3345.00           6791       13719.00     59885.43
  240.97        3345.25           6795       11962.00     52202.23
  241.00        3345.50           6799        9091.00     39654.73
  241.03        3345.75           6803        6995.00     30499.88
  241.06        3346.00           6806        5596.00     24391.98
  241.08        3346.25           6810        3975.00     17317.46
  241.11        3346.50           6814        2970.00     12932.76
  241.14        3346.75           6818        1738.00      7559.14
  241.17        3347.00           6821        1195.00      5191.25
  241.19        3347.25           6825         389.00      1677.06
  241.22        3347.50           6829          88.00       364.87
  241.25        3347.75           6833          33.00       125.11
  241.27        3348.00           6836          33.00       125.11
  241.30        3348.25           6840          32.00       120.75
  241.33        3348.50           6844          31.00       116.39
  241.36        3348.75           6848          35.00       133.83
  241.38        3349.00           6851          36.00       138.19
  241.41        3349.25           6855          34.00       129.47
  241.44        3349.50           6859          31.00       116.39
  241.47        3349.75           6863          30.00       112.03
  241.49        3350.00           6867          30.00       112.03
  241.52        3350.25           6870          33.00       125.11
  241.55        3350.50           6874          28.00       103.31
  241.57        3350.75           6878          31.00       116.39
  241.60        3351.00           6882          34.00       129.47
HL scan finished at 04:02:14
end
