************************************************************
  HL Scan of (1) Internal mercury lamp
************************************************************
Integration time is 0.2294 seconds per sample
dh300917Tamanrasset 22.79-5.529 3.128775pr865
************************************************************
Dead Time -------------------------  2.8E-08 
Number of Cycles Used -------------  4 
Starting Wavelength (Angstroms) ---  3331 
Final Wavelength (Angstoms) -------  3351 
Wavelength Increment (Angstroms) --  .25 
Filter Wheel #1 Position ---------- (1) Ground quartz diffuser (ND=2.32)
Filter Wheel #2 Position ---------- (0) Clear Aperture



************************************************************
HL scan start time = 03:58:43
Dark Count =  5.6 


Time (GMT)  Wavelength (Ang)  Step Number  Raw Counts  Counts/Second

  239.22        3331.00           6581          29.00       102.01
  239.44        3331.25           6585          27.00        93.29
  239.47        3331.50           6589          28.00        97.65
  239.50        3331.75           6593          32.00       115.08
  239.52        3332.00           6596          26.00        88.93
  239.55        3332.25           6600          34.00       123.80
  239.58        3332.50           6604          30.00       106.36
  239.61        3332.75           6608          25.00        84.57
  239.63        3333.00           6611          31.00       110.72
  239.66        3333.25           6615          28.00        97.65
  239.69        3333.50           6619          31.00       110.72
  239.71        3333.75           6623          28.00        97.65
  239.74        3334.00           6626          36.00       132.52
  239.77        3334.25           6630          30.00       106.36
  239.80        3334.50           6634          34.00       123.80
  239.82        3334.75           6638          30.00       106.36
  239.85        3335.00           6641          35.00       128.16
  239.88        3335.25           6645          41.00       154.32
  239.91        3335.50           6649          43.00       163.03
  239.93        3335.75           6653          54.00       210.99
  239.96        3336.00           6656         109.00       450.75
  239.99        3336.25           6660         360.00      1544.97
  240.01        3336.50           6664         967.00      4191.43
  240.04        3336.75           6668        1574.00      6838.28
  240.07        3337.00           6671        2114.00      9193.30
  240.10        3337.25           6675        3718.00     16190.43
  240.12        3337.50           6679        5491.00     23927.97
  240.15        3337.75           6683        7321.00     31917.79
  240.18        3338.00           6686        8714.00     38002.06
  240.21        3338.25           6690       10621.00     46334.71
  240.23        3338.50           6694       12450.00     54330.19
  240.26        3338.75           6698       14383.00     62784.21
  240.29        3339.00           6701       15822.00     69080.31
  240.32        3339.25           6705       17661.00     77129.78
  240.34        3339.50           6709       19639.00     85791.72
  240.37        3339.75           6713       21489.00     93896.94
  240.40        3340.00           6716       23001.00    100524.00
  240.43        3340.25           6720       24963.00    109127.20
  240.45        3340.50           6724       26897.00    117611.60
  240.48        3340.75           6728       28638.00    125252.80
  240.51        3341.00           6731       29939.00    130965.00
  240.54        3341.25           6735       31545.00    138018.90
  240.56        3341.50           6739       32857.00    143783.50
  240.59        3341.75           6743       33253.00    145523.80
  240.62        3342.00           6746       33255.00    145532.60
  240.65        3342.25           6750       32619.00    142737.60
  240.67        3342.50           6754       31366.00    137232.50
  240.70        3342.75           6758       29604.00    129494.00
  240.73        3343.00           6761       28203.00    123343.30
  240.76        3343.25           6765       26181.00    114470.10
  240.78        3343.50           6769       24627.00    107653.60
  240.81        3343.75           6773       22942.00    100265.40
  240.84        3344.00           6776       21411.00     93555.13
  240.87        3344.25           6780       19589.00     85572.72
  240.89        3344.50           6784       17474.00     76311.10
  240.92        3344.75           6788       15539.00     67841.93
  240.95        3345.00           6791       14098.00     61537.50
  240.98        3345.25           6795       12235.00     53390.14
  241.00        3345.50           6799        9296.00     40544.70
  241.03        3345.75           6803        6954.00     30315.17
  241.06        3346.00           6806        5460.00     23792.65
  241.09        3346.25           6810        3893.00     16953.99
  241.11        3346.50           6814        2881.00     12538.84
  241.14        3346.75           6818        1714.00      7448.81
  241.17        3347.00           6821        1030.00      4466.12
  241.20        3347.25           6825         320.00      1370.58
  241.22        3347.50           6829          80.00       324.33
  241.25        3347.75           6833          40.00       149.96
  241.28        3348.00           6836          37.00       136.88
  241.31        3348.25           6840          30.00       106.36
  241.33        3348.50           6844          34.00       123.80
  241.36        3348.75           6848          33.00       119.44
  241.39        3349.00           6851          34.00       123.80
  241.41        3349.25           6855          32.00       115.08
  241.44        3349.50           6859          34.00       123.80
  241.47        3349.75           6863          35.00       128.16
  241.50        3350.00           6867          33.00       119.44
  241.52        3350.25           6870          38.00       141.24
  241.55        3350.50           6874          32.00       115.08
  241.58        3350.75           6878          32.00       115.08
  241.61        3351.00           6882          32.00       115.08
HL scan finished at 04:02:14
end
************************************************************
  HL Scan of (1) Internal mercury lamp
************************************************************
Integration time is 0.2294 seconds per sample
dh011017Tamanrasset 22.79-5.529 3.006415pr865
************************************************************
Dead Time -------------------------  2.8E-08 
Number of Cycles Used -------------  4 
Starting Wavelength (Angstroms) ---  3331 
Final Wavelength (Angstoms) -------  3351 
Wavelength Increment (Angstroms) --  .25 
Filter Wheel #1 Position ---------- (1) Ground quartz diffuser (ND=2.32)
Filter Wheel #2 Position ---------- (0) Clear Aperture



************************************************************
HL scan start time = 04:00:27
Dark Count =  4.1 


Time (GMT)  Wavelength (Ang)  Step Number  Raw Counts  Counts/Second

  240.97        3331.00           6581          26.00        95.47
  241.19        3331.25           6585          28.00       104.19
  241.21        3331.50           6589          29.00       108.54
  241.24        3331.75           6593          27.00        99.83
  241.27        3332.00           6596          30.00       112.90
  241.30        3332.25           6600          24.00        86.75
  241.32        3332.50           6604          33.00       125.98
  241.35        3332.75           6608          31.00       117.26
  241.38        3333.00           6611          28.00       104.19
  241.41        3333.25           6615          29.00       108.54
  241.43        3333.50           6619          27.00        99.83
  241.46        3333.75           6623          35.00       134.70
  241.49        3334.00           6626          27.00        99.83
  241.52        3334.25           6630          32.00       121.62
  241.54        3334.50           6634          31.00       117.26
  241.57        3334.75           6638          33.00       125.98
  241.60        3335.00           6641          35.00       134.70
  241.62        3335.25           6645          36.00       139.06
  241.65        3335.50           6649          37.00       143.42
  241.68        3335.75           6653          46.00       182.65
  241.71        3336.00           6656         100.00       418.05
  241.73        3336.25           6660         314.00      1350.97
  241.76        3336.50           6664         674.00      2920.47
  241.79        3336.75           6668        1173.00      5096.19
  241.82        3337.00           6671        1772.00      7708.29
  241.84        3337.25           6675        3244.00     14128.95
  241.87        3337.50           6679        4939.00     21525.18
  241.90        3337.75           6683        6587.00     28719.25
  241.93        3338.00           6686        7925.00     34562.20
  241.95        3338.25           6690        9694.00     42290.24
  241.98        3338.50           6694       11342.00     49492.69
  242.01        3338.75           6698       12991.00     56702.42
  242.04        3339.00           6701       14457.00     63114.50
  242.06        3339.25           6705       16002.00     69874.59
  242.09        3339.50           6709       17779.00     77652.97
  242.12        3339.75           6713       19632.00     85767.62
  242.15        3340.00           6716       20825.00     90993.97
  242.17        3340.25           6720       22621.00     98864.85
  242.20        3340.50           6724       24432.00    106805.00
  242.23        3340.75           6728       26072.00    113998.40
  242.26        3341.00           6731       27326.00    119500.80
  242.28        3341.25           6735       28616.00    125162.80
  242.31        3341.50           6739       29664.00    129764.00
  242.34        3341.75           6743       30377.00    132895.10
  242.37        3342.00           6746       30384.00    132925.80
  242.39        3342.25           6750       29958.00    131055.00
  242.42        3342.50           6754       28709.00    125571.10
  242.45        3342.75           6758       26826.00    117306.60
  242.47        3343.00           6761       25664.00    112208.60
  242.50        3343.25           6765       24295.00    106204.20
  242.53        3343.50           6769       22585.00     98707.04
  242.56        3343.75           6773       20655.00     90249.14
  242.58        3344.00           6776       19290.00     84269.68
  242.61        3344.25           6780       17759.00     77565.40
  242.64        3344.50           6784       15984.00     69795.81
  242.67        3344.75           6788       14248.00     62200.21
  242.69        3345.00           6791       12641.00     55171.92
  242.72        3345.25           6795       10486.00     45751.25
  242.75        3345.50           6799        8438.00     36802.95
  242.78        3345.75           6803        6308.00     27501.12
  242.80        3346.00           6806        4970.00     21660.48
  242.83        3346.25           6810        3402.00     14818.27
  242.86        3346.50           6814        2568.00     11180.05
  242.89        3346.75           6818        1687.00      7337.60
  242.91        3347.00           6821         975.00      4232.85
  242.94        3347.25           6825         278.00      1194.02
  242.97        3347.50           6829          57.00       230.60
  243.00        3347.75           6833          39.00       152.14
  243.02        3348.00           6836          36.00       139.06
  243.05        3348.25           6840          30.00       112.90
  243.08        3348.50           6844          33.00       125.98
  243.11        3348.75           6848          32.00       121.62
  243.13        3349.00           6851          34.00       130.34
  243.16        3349.25           6855          33.00       125.98
  243.19        3349.50           6859          28.00       104.19
  243.21        3349.75           6863          28.00       104.19
  243.24        3350.00           6867          32.00       121.62
  243.27        3350.25           6870          32.00       121.62
  243.30        3350.50           6874          32.00       121.62
  243.32        3350.75           6878          31.00       117.26
  243.35        3351.00           6882          34.00       130.34
HL scan finished at 04:03:58
end
