************************************************************
  HL Scan of (1) Internal mercury lamp
************************************************************
Integration time is 0.2294 seconds per sample
dh021018Tamanrasset 22.79-5.529 4.974364pr865
************************************************************
Dead Time -------------------------  2.8E-08 
Number of Cycles Used -------------  4 
Starting Wavelength (Angstroms) ---  3331 
Final Wavelength (Angstoms) -------  3351 
Wavelength Increment (Angstroms) --  .25 
Filter Wheel #1 Position ---------- (1) Ground quartz diffuser (ND=2.32)
Filter Wheel #2 Position ---------- (0) Clear Aperture



************************************************************
HL scan start time = 03:59:04
Dark Count =  6.6 


Time (GMT)  Wavelength (Ang)  Step Number  Raw Counts  Counts/Second

  239.58        3331.00           6581          30.00       102.01
  239.80        3331.25           6585          29.00        97.65
  239.83        3331.50           6589          36.00       128.16
  239.86        3331.75           6593          33.00       115.08
  239.88        3332.00           6596          31.00       106.36
  239.91        3332.25           6600          32.00       110.72
  239.94        3332.50           6604          33.00       115.08
  239.96        3332.75           6608          33.00       115.08
  239.99        3333.00           6611          30.00       102.01
  240.02        3333.25           6615          36.00       128.16
  240.05        3333.50           6619          30.00       102.01
  240.07        3333.75           6623          34.00       119.44
  240.10        3334.00           6626          30.00       102.01
  240.13        3334.25           6630          35.00       123.80
  240.15        3334.50           6634          28.00        93.29
  240.18        3334.75           6638          37.00       132.52
  240.21        3335.00           6641          37.00       132.52
  240.24        3335.25           6645          40.00       145.60
  240.26        3335.50           6649          44.00       163.03
  240.29        3335.75           6653          54.00       206.63
  240.32        3336.00           6656         134.00       555.37
  240.35        3336.25           6660         400.00      1714.99
  240.37        3336.50           6664        1123.00      4867.27
  240.40        3336.75           6668        1921.00      8347.20
  240.43        3337.00           6671        2335.00     10152.84
  240.46        3337.25           6675        4026.00     17529.96
  240.48        3337.50           6679        6050.00     26363.83
  240.51        3337.75           6683        8048.00     35088.51
  240.54        3338.00           6686        9628.00     41990.94
  240.56        3338.25           6690       11911.00     51969.21
  240.59        3338.50           6694       14082.00     61463.14
  240.62        3338.75           6698       16188.00     70677.66
  240.65        3339.00           6701       17710.00     77339.93
  240.67        3339.25           6705       19846.00     86694.07
  240.70        3339.50           6709       22044.00     96324.84
  240.73        3339.75           6713       24227.00    105895.10
  240.76        3340.00           6716       25888.00    113180.30
  240.78        3340.25           6720       28034.00    122597.10
  240.81        3340.50           6724       30081.00    131584.20
  240.84        3340.75           6728       32448.00    141981.80
  240.86        3341.00           6731       33713.00    147541.10
  240.89        3341.25           6735       35384.00    154887.40
  240.92        3341.50           6739       36721.00    160767.40
  240.95        3341.75           6743       37118.00    162513.80
  240.97        3342.00           6746       37235.00    163028.50
  241.00        3342.25           6750       36567.00    160090.00
  241.03        3342.50           6754       34968.00    153058.20
  241.06        3342.75           6758       32657.00    142900.20
  241.08        3343.00           6761       31256.00    136744.90
  241.11        3343.25           6765       29236.00    127873.80
  241.14        3343.50           6769       27492.00    120218.30
  241.16        3343.75           6773       25425.00    111149.20
  241.19        3344.00           6776       23677.00    103483.40
  241.22        3344.25           6780       21719.00     94900.49
  241.25        3344.50           6784       19425.00     84850.00
  241.27        3344.75           6788       17387.00     75925.85
  241.30        3345.00           6791       15446.00     67430.60
  241.33        3345.25           6795       13334.00     58191.51
  241.36        3345.50           6799       10157.00     44302.53
  241.38        3345.75           6803        7624.00     33236.67
  241.41        3346.00           6806        6159.00     26839.69
  241.44        3346.25           6810        4263.00     18564.14
  241.47        3346.50           6814        2955.00     12857.29
  241.49        3346.75           6818        1904.00      8273.06
  241.52        3347.00           6821        1244.00      5394.89
  241.55        3347.25           6825         378.00      1619.08
  241.57        3347.50           6829          82.00       328.69
  241.60        3347.75           6833          36.00       128.16
  241.63        3348.00           6836          39.00       141.24
  241.66        3348.25           6840          37.00       132.52
  241.68        3348.50           6844          37.00       132.52
  241.71        3348.75           6848          33.00       115.08
  241.74        3349.00           6851          30.00       102.01
  241.76        3349.25           6855          39.00       141.24
  241.79        3349.50           6859          38.00       136.88
  241.82        3349.75           6863          37.00       132.52
  241.85        3350.00           6867          33.00       115.08
  241.87        3350.25           6870          34.00       119.44
  241.90        3350.50           6874          33.00       115.08
  241.93        3350.75           6878          32.00       110.72
  241.95        3351.00           6882          38.00       136.88
HL scan finished at 04:02:35
end
