************************************************************
  HL Scan of (1) Internal mercury lamp
************************************************************
Integration time is 0.2294 seconds per sample
dh280918Tamanrasset 22.79-5.529 4.974364pr865
************************************************************
Dead Time -------------------------  2.8E-08 
Number of Cycles Used -------------  4 
Starting Wavelength (Angstroms) ---  3331 
Final Wavelength (Angstoms) -------  3351 
Wavelength Increment (Angstroms) --  .25 
Filter Wheel #1 Position ---------- (1) Ground quartz diffuser (ND=2.32)
Filter Wheel #2 Position ---------- (0) Clear Aperture



************************************************************
HL scan start time = 03:57:40
Dark Count =  4.1 


Time (GMT)  Wavelength (Ang)  Step Number  Raw Counts  Counts/Second

  238.18        3331.00           6581          30.00       112.90
  238.40        3331.25           6585          30.00       112.90
  238.43        3331.50           6589          33.00       125.98
  238.46        3331.75           6593          29.00       108.54
  238.48        3332.00           6596          30.00       112.90
  238.51        3332.25           6600          29.00       108.54
  238.54        3332.50           6604          29.00       108.54
  238.57        3332.75           6608          33.00       125.98
  238.59        3333.00           6611          27.00        99.83
  238.62        3333.25           6615          31.00       117.26
  238.65        3333.50           6619          31.00       117.26
  238.67        3333.75           6623          30.00       112.90
  238.70        3334.00           6626          29.00       108.54
  238.73        3334.25           6630          33.00       125.98
  238.76        3334.50           6634          33.00       125.98
  238.78        3334.75           6638          32.00       121.62
  238.81        3335.00           6641          32.00       121.62
  238.84        3335.25           6645          34.00       130.34
  238.86        3335.50           6649          38.00       147.78
  238.89        3335.75           6653          53.00       213.17
  238.92        3336.00           6656         113.00       474.72
  238.95        3336.25           6660         380.00      1638.70
  238.97        3336.50           6664         797.00      3456.74
  239.00        3336.75           6668        1437.00      6247.39
  239.03        3337.00           6671        2099.00      9134.42
  239.05        3337.25           6675        3762.00     16388.95
  239.08        3337.50           6679        5559.00     24231.34
  239.11        3337.75           6683        7392.00     32234.40
  239.14        3338.00           6686        8773.00     38266.36
  239.16        3338.25           6690       10730.00     46817.66
  239.19        3338.50           6694       12545.00     54752.14
  239.22        3338.75           6698       14471.00     63175.74
  239.25        3339.00           6701       15789.00     68942.47
  239.27        3339.25           6705       17668.00     77167.00
  239.30        3339.50           6709       19753.00     86297.64
  239.33        3339.75           6713       21784.00     95196.31
  239.36        3340.00           6716       23092.00    100929.60
  239.38        3340.25           6720       24968.00    109155.70
  239.41        3340.50           6724       26850.00    117412.00
  239.44        3340.75           6728       28986.00    126787.20
  239.47        3341.00           6731       30229.00    132245.10
  239.49        3341.25           6735       31443.00    137577.40
  239.52        3341.50           6739       32858.00    143794.50
  239.55        3341.75           6743       33283.00    145662.20
  239.57        3342.00           6746       33443.00    146365.40
  239.60        3342.25           6750       33012.00    144471.20
  239.63        3342.50           6754       31357.00    137199.60
  239.66        3342.75           6758       29403.00    128618.00
  239.68        3343.00           6761       28053.00    122691.50
  239.71        3343.25           6765       26526.00    115990.30
  239.74        3343.50           6769       24817.00    108493.40
  239.77        3343.75           6773       22714.00     99272.52
  239.79        3344.00           6776       21347.00     93281.25
  239.82        3344.25           6780       19593.00     85596.80
  239.85        3344.50           6784       17512.00     76484.03
  239.88        3344.75           6788       15648.00     68325.46
  239.90        3345.00           6791       14027.00     61233.50
  239.93        3345.25           6795       11658.00     50874.08
  239.96        3345.50           6799        9269.00     40433.28
  239.98        3345.75           6803        6983.00     30448.36
  240.01        3346.00           6806        5604.00     24427.78
  240.04        3346.25           6810        3917.00     17065.26
  240.07        3346.50           6814        2851.00     12414.51
  240.09        3346.75           6818        1895.00      8244.71
  240.12        3347.00           6821        1137.00      4939.22
  240.15        3347.25           6825         367.00      1582.02
  240.17        3347.50           6829          78.00       322.15
  240.20        3347.75           6833          32.00       121.62
  240.23        3348.00           6836          31.00       117.26
  240.26        3348.25           6840          35.00       134.70
  240.28        3348.50           6844          28.00       104.19
  240.31        3348.75           6848          39.00       152.14
  240.34        3349.00           6851          36.00       139.06
  240.36        3349.25           6855          40.00       156.50
  240.39        3349.50           6859          32.00       121.62
  240.42        3349.75           6863          31.00       117.26
  240.45        3350.00           6867          30.00       112.90
  240.47        3350.25           6870          33.00       125.98
  240.50        3350.50           6874          30.00       112.90
  240.53        3350.75           6878          32.00       121.62
  240.55        3351.00           6882          34.00       130.34
HL scan finished at 04:01:11
end
