************************************************************
  HL Scan of (1) Internal mercury lamp
************************************************************
Integration time is 0.2294 seconds per sample
dh021017Tamanrasset 22.79-5.529 2.965629pr865
************************************************************
Dead Time -------------------------  2.8E-08 
Number of Cycles Used -------------  4 
Starting Wavelength (Angstroms) ---  3331 
Final Wavelength (Angstoms) -------  3351 
Wavelength Increment (Angstroms) --  .25 
Filter Wheel #1 Position ---------- (1) Ground quartz diffuser (ND=2.32)
Filter Wheel #2 Position ---------- (0) Clear Aperture



************************************************************
HL scan start time = 03:59:42
Dark Count =  4.7 


Time (GMT)  Wavelength (Ang)  Step Number  Raw Counts  Counts/Second

  240.21        3331.00           6581          35.00       132.08
  240.43        3331.25           6585          26.00        92.85
  240.45        3331.50           6589          27.00        97.21
  240.48        3331.75           6593          30.00       110.29
  240.51        3332.00           6596          23.00        79.77
  240.54        3332.25           6600          29.00       105.93
  240.56        3332.50           6604          28.00       101.57
  240.59        3332.75           6608          30.00       110.29
  240.62        3333.00           6611          35.00       132.08
  240.65        3333.25           6615          27.00        97.21
  240.67        3333.50           6619          27.00        97.21
  240.70        3333.75           6623          31.00       114.65
  240.73        3334.00           6626          26.00        92.85
  240.75        3334.25           6630          32.00       119.01
  240.78        3334.50           6634          26.00        92.85
  240.81        3334.75           6638          26.00        92.85
  240.84        3335.00           6641          28.00       101.57
  240.86        3335.25           6645          34.00       127.72
  240.89        3335.50           6649          40.00       153.88
  240.92        3335.75           6653          47.00       184.40
  240.94        3336.00           6656          59.00       236.71
  240.97        3336.25           6660         224.00       956.00
  241.00        3336.50           6664         670.00      2900.41
  241.03        3336.75           6668        1035.00      4491.85
  241.05        3337.00           6671        1499.00      6515.14
  241.08        3337.25           6675        2923.00     12725.98
  241.11        3337.50           6679        4553.00     19837.96
  241.14        3337.75           6683        6193.00     26996.42
  241.16        3338.00           6686        7440.00     32441.40
  241.19        3338.25           6690        9189.00     40081.14
  241.22        3338.50           6694       10863.00     47396.34
  241.25        3338.75           6698       12479.00     54460.93
  241.27        3339.00           6701       13810.00     60281.70
  241.30        3339.25           6705       15360.00     67062.60
  241.33        3339.50           6709       17060.00     74502.69
  241.36        3339.75           6713       18964.00     82839.27
  241.38        3340.00           6716       20154.00     88051.61
  241.41        3340.25           6720       21838.00     95430.34
  241.44        3340.50           6724       23377.00    102176.40
  241.47        3340.75           6728       25159.00    109990.80
  241.49        3341.00           6731       26288.00    114943.50
  241.52        3341.25           6735       27715.00    121205.30
  241.55        3341.50           6739       28804.00    125985.50
  241.58        3341.75           6743       29427.00    128720.70
  241.60        3342.00           6746       29497.00    129028.10
  241.63        3342.25           6750       29013.00    126903.10
  241.66        3342.50           6754       28236.00    123492.10
  241.69        3342.75           6758       26440.00    115610.40
  241.71        3343.00           6761       25431.00    111183.90
  241.74        3343.25           6765       23626.00    103268.10
  241.77        3343.50           6769       22252.00     97244.81
  241.80        3343.75           6773       20521.00     89659.42
  241.82        3344.00           6776       19224.00     83977.97
  241.85        3344.25           6780       17502.00     76437.62
  241.88        3344.50           6784       15804.00     69005.48
  241.91        3344.75           6788       14076.00     61445.21
  241.93        3345.00           6791       12690.00     55383.56
  241.96        3345.25           6795       11104.00     48449.73
  241.99        3345.50           6799        8702.00     37953.56
  242.01        3345.75           6803        6520.00     28424.10
  242.04        3346.00           6806        5278.00     23002.17
  242.07        3346.25           6810        3820.00     16639.40
  242.10        3346.50           6814        2954.00     12861.21
  242.12        3346.75           6818        1886.00      8202.84
  242.15        3347.00           6821        1230.00      5342.13
  242.18        3347.25           6825         424.00      1827.91
  242.21        3347.50           6829         100.00       415.44
  242.23        3347.75           6833          31.00       114.65
  242.26        3348.00           6836          32.00       119.01
  242.29        3348.25           6840          33.00       123.37
  242.32        3348.50           6844          33.00       123.37
  242.34        3348.75           6848          31.00       114.65
  242.37        3349.00           6851          27.00        97.21
  242.40        3349.25           6855          33.00       123.37
  242.42        3349.50           6859          36.00       136.44
  242.45        3349.75           6863          31.00       114.65
  242.48        3350.00           6867          30.00       110.29
  242.51        3350.25           6870          29.00       105.93
  242.53        3350.50           6874          32.00       119.01
  242.56        3350.75           6878          34.00       127.72
  242.59        3351.00           6882          32.00       119.01
HL scan finished at 04:03:13
end
