************************************************************
  HL Scan of (1) Internal mercury lamp
************************************************************
Integration time is 0.2294 seconds per sample
dh270918Tamanrasset 22.79-5.529 4.974364pr865
************************************************************
Dead Time -------------------------  2.8E-08 
Number of Cycles Used -------------  4 
Starting Wavelength (Angstroms) ---  3331 
Final Wavelength (Angstoms) -------  3351 
Wavelength Increment (Angstroms) --  .25 
Filter Wheel #1 Position ---------- (1) Ground quartz diffuser (ND=2.32)
Filter Wheel #2 Position ---------- (0) Clear Aperture



************************************************************
HL scan start time = 03:57:13
Dark Count =  4.9 


Time (GMT)  Wavelength (Ang)  Step Number  Raw Counts  Counts/Second

  237.72        3331.00           6581          30.00       109.42
  237.94        3331.25           6585          31.00       113.78
  237.97        3331.50           6589          31.00       113.78
  238.00        3331.75           6593          33.00       122.49
  238.02        3332.00           6596          32.00       118.13
  238.05        3332.25           6600          31.00       113.78
  238.08        3332.50           6604          34.00       126.85
  238.10        3332.75           6608          36.00       135.57
  238.13        3333.00           6611          34.00       126.85
  238.16        3333.25           6615          36.00       135.57
  238.19        3333.50           6619          26.00        91.98
  238.21        3333.75           6623          32.00       118.13
  238.24        3334.00           6626          32.00       118.13
  238.27        3334.25           6630          31.00       113.78
  238.29        3334.50           6634          28.00       100.70
  238.32        3334.75           6638          33.00       122.49
  238.35        3335.00           6641          34.00       126.85
  238.38        3335.25           6645          34.00       126.85
  238.40        3335.50           6649          41.00       157.37
  238.43        3335.75           6653          42.00       161.73
  238.46        3336.00           6656          84.00       344.82
  238.48        3336.25           6660         292.00      1251.57
  238.51        3336.50           6664         868.00      3762.82
  238.54        3336.75           6668        1498.00      6509.91
  238.57        3337.00           6671        1818.00      7905.41
  238.59        3337.25           6675        3322.00     14465.75
  238.62        3337.50           6679        5157.00     22473.16
  238.65        3337.75           6683        6976.00     30414.30
  238.68        3338.00           6686        8495.00     37048.44
  238.70        3338.25           6690       10321.00     45026.66
  238.73        3338.50           6694       12297.00     53664.27
  238.76        3338.75           6698       14100.00     61549.32
  238.78        3339.00           6701       15632.00     68251.93
  238.81        3339.25           6705       17457.00     76239.73
  238.84        3339.50           6709       19513.00     85242.89
  238.87        3339.75           6713       21493.00     93917.52
  238.89        3340.00           6716       22888.00    100031.70
  238.92        3340.25           6720       24869.00    108718.00
  238.95        3340.50           6724       26673.00    116631.80
  238.98        3340.75           6728       28536.00    124808.10
  239.00        3341.00           6731       29842.00    130542.10
  239.03        3341.25           6735       31517.00    137898.90
  239.06        3341.50           6739       32765.00    143382.20
  239.08        3341.75           6743       33352.00    145961.90
  239.11        3342.00           6746       33473.00    146493.70
  239.14        3342.25           6750       33030.00    144546.80
  239.17        3342.50           6754       31814.00    139203.70
  239.19        3342.75           6758       29734.00    130067.90
  239.22        3343.00           6761       28354.00    124009.20
  239.25        3343.25           6765       26580.00    116223.70
  239.28        3343.50           6769       24917.00    108928.50
  239.30        3343.75           6773       23154.00    101197.80
  239.33        3344.00           6776       21388.00     93457.41
  239.36        3344.25           6780       19703.00     86075.12
  239.39        3344.50           6784       17768.00     77601.30
  239.41        3344.75           6788       15872.00     69302.18
  239.44        3345.00           6791       14272.00     62301.70
  239.47        3345.25           6795       12144.00     52995.32
  239.49        3345.50           6799        9626.00     41989.62
  239.52        3345.75           6803        7176.00     31287.64
  239.55        3346.00           6806        5801.00     25284.24
  239.58        3346.25           6810        4009.00     17463.20
  239.60        3346.50           6814        2834.00     12336.87
  239.63        3346.75           6818        1910.00      8306.64
  239.66        3347.00           6821        1325.00      5755.50
  239.69        3347.25           6825         464.00      2001.42
  239.71        3347.50           6829         104.00       432.00
  239.74        3347.75           6833          44.00       170.45
  239.77        3348.00           6836          35.00       131.21
  239.79        3348.25           6840          37.00       139.93
  239.82        3348.50           6844          28.00       100.70
  239.85        3348.75           6848          38.00       144.29
  239.88        3349.00           6851          34.00       126.85
  239.90        3349.25           6855          36.00       135.57
  239.93        3349.50           6859          33.00       122.49
  239.96        3349.75           6863          38.00       144.29
  239.98        3350.00           6867          33.00       122.49
  240.01        3350.25           6870          32.00       118.13
  240.04        3350.50           6874          29.00       105.06
  240.07        3350.75           6878          31.00       113.78
  240.09        3351.00           6882          37.00       139.93
HL scan finished at 04:00:43
end
