************************************************************
  HL Scan of (1) Internal mercury lamp
************************************************************
Integration time is 0.2294 seconds per sample
dh061018Tamanrasset 22.79-5.529 4.974364pr865
************************************************************
Dead Time -------------------------  2.8E-08 
Number of Cycles Used -------------  4 
Starting Wavelength (Angstroms) ---  3331 
Final Wavelength (Angstoms) -------  3351 
Wavelength Increment (Angstroms) --  .25 
Filter Wheel #1 Position ---------- (1) Ground quartz diffuser (ND=2.32)
Filter Wheel #2 Position ---------- (0) Clear Aperture



************************************************************
HL scan start time = 04:00:11
Dark Count =  4.8 


Time (GMT)  Wavelength (Ang)  Step Number  Raw Counts  Counts/Second

  240.70        3331.00           6581          26.00        92.42
  240.92        3331.25           6585          22.00        74.98
  240.94        3331.50           6589          28.00       101.13
  240.97        3331.75           6593          30.00       109.85
  241.00        3332.00           6596          30.00       109.85
  241.02        3332.25           6600          29.00       105.49
  241.05        3332.50           6604          33.00       122.93
  241.08        3332.75           6608          30.00       109.85
  241.11        3333.00           6611          34.00       127.29
  241.13        3333.25           6615          28.00       101.13
  241.16        3333.50           6619          26.00        92.42
  241.19        3333.75           6623          29.00       105.49
  241.21        3334.00           6626          27.00        96.77
  241.24        3334.25           6630          34.00       127.29
  241.27        3334.50           6634          26.00        92.42
  241.30        3334.75           6638          33.00       122.93
  241.32        3335.00           6641          30.00       109.85
  241.35        3335.25           6645          34.00       127.29
  241.38        3335.50           6649          32.00       118.57
  241.40        3335.75           6653          49.00       192.68
  241.43        3336.00           6656         106.00       441.16
  241.46        3336.25           6660         350.00      1504.86
  241.49        3336.50           6664         698.00      3022.05
  241.51        3336.75           6668        1347.00      5851.87
  241.54        3337.00           6671        2010.00      8743.20
  241.57        3337.25           6675        3566.00     15530.73
  241.59        3337.50           6679        5197.00     22648.19
  241.62        3337.75           6683        6923.00     30183.30
  241.65        3338.00           6686        8245.00     35956.85
  241.68        3338.25           6690        9956.00     43432.05
  241.70        3338.50           6694       11751.00     51277.58
  241.73        3338.75           6698       13545.00     59122.21
  241.76        3339.00           6701       14851.00     64835.12
  241.79        3339.25           6705       16665.00     72773.25
  241.81        3339.50           6709       18548.00     81017.06
  241.84        3339.75           6713       20232.00     88392.88
  241.87        3340.00           6716       21465.00     93795.27
  241.90        3340.25           6720       23325.00    101948.00
  241.92        3340.50           6724       24972.00    109170.20
  241.95        3340.75           6728       26843.00    117378.20
  241.98        3341.00           6731       27868.00    121876.40
  242.00        3341.25           6735       29412.00    128654.40
  242.03        3341.50           6739       30272.00    132430.90
  242.06        3341.75           6743       30940.00    135364.80
  242.09        3342.00           6746       31070.00    135935.80
  242.11        3342.25           6750       30421.00    133085.30
  242.14        3342.50           6754       29110.00    127328.50
  242.17        3342.75           6758       27417.00    119897.00
  242.20        3343.00           6761       26167.00    114412.10
  242.22        3343.25           6765       24524.00    107205.40
  242.25        3343.50           6769       22713.00     99265.06
  242.28        3343.75           6773       21027.00     91875.99
  242.31        3344.00           6776       19503.00     85199.52
  242.33        3344.25           6780       17831.00     77877.56
  242.36        3344.50           6784       15944.00     69617.71
  242.39        3344.75           6788       14077.00     61449.15
  242.42        3345.00           6791       12630.00     55120.76
  242.44        3345.25           6795       10508.00     45844.35
  242.47        3345.50           6799        8249.00     35974.32
  242.50        3345.75           6803        6206.00     27052.75
  242.52        3346.00           6806        4920.00     21439.20
  242.55        3346.25           6810        3385.00     14741.04
  242.58        3346.50           6814        2416.00     10513.99
  242.61        3346.75           6818        1491.00      6479.82
  242.63        3347.00           6821         882.00      3824.30
  242.66        3347.25           6825         273.00      1169.18
  242.69        3347.50           6829          62.00       249.35
  242.71        3347.75           6833          37.00       140.37
  242.74        3348.00           6836          33.00       122.93
  242.77        3348.25           6840          39.00       149.09
  242.80        3348.50           6844          30.00       109.85
  242.82        3348.75           6848          28.00       101.13
  242.85        3349.00           6851          36.00       136.01
  242.88        3349.25           6855          33.00       122.93
  242.90        3349.50           6859          34.00       127.29
  242.93        3349.75           6863          31.00       114.21
  242.96        3350.00           6867          30.00       109.85
  242.99        3350.25           6870          40.00       153.44
  243.01        3350.50           6874          27.00        96.77
  243.04        3350.75           6878          34.00       127.29
  243.07        3351.00           6882          36.00       136.01
HL scan finished at 04:03:41
end
