************************************************************
  HL Scan of (1) Internal mercury lamp
************************************************************
Integration time is 0.2294 seconds per sample
dh290918Tamanrasset 22.79-5.529 4.974364pr865
************************************************************
Dead Time -------------------------  2.8E-08 
Number of Cycles Used -------------  4 
Starting Wavelength (Angstroms) ---  3331 
Final Wavelength (Angstoms) -------  3351 
Wavelength Increment (Angstroms) --  .25 
Filter Wheel #1 Position ---------- (1) Ground quartz diffuser (ND=2.32)
Filter Wheel #2 Position ---------- (0) Clear Aperture



************************************************************
HL scan start time = 03:57:16
Dark Count =  6.1 


Time (GMT)  Wavelength (Ang)  Step Number  Raw Counts  Counts/Second

  237.77        3331.00           6581          33.00       117.26
  237.99        3331.25           6585          30.00       104.19
  238.02        3331.50           6589          32.00       112.90
  238.05        3331.75           6593          30.00       104.19
  238.07        3332.00           6596          28.00        95.47
  238.10        3332.25           6600          28.00        95.47
  238.13        3332.50           6604          32.00       112.90
  238.16        3332.75           6608          31.00       108.54
  238.18        3333.00           6611          27.00        91.11
  238.21        3333.25           6615          32.00       112.90
  238.24        3333.50           6619          32.00       112.90
  238.26        3333.75           6623          28.00        95.47
  238.29        3334.00           6626          32.00       112.90
  238.32        3334.25           6630          36.00       130.34
  238.35        3334.50           6634          29.00        99.83
  238.37        3334.75           6638          33.00       117.26
  238.40        3335.00           6641          33.00       117.26
  238.43        3335.25           6645          36.00       130.34
  238.45        3335.50           6649          43.00       160.86
  238.48        3335.75           6653          60.00       234.96
  238.51        3336.00           6656         116.00       479.08
  238.54        3336.25           6660         380.00      1629.98
  238.56        3336.50           6664         915.00      3962.52
  238.59        3336.75           6668        1669.00      7250.38
  238.62        3337.00           6671        2048.00      8903.26
  238.65        3337.25           6675        3690.00     16066.07
  238.67        3337.50           6679        5485.00     23899.60
  238.70        3337.75           6683        7286.00     31762.76
  238.73        3338.00           6686        8750.00     38157.14
  238.75        3338.25           6690       10636.00     46398.08
  238.78        3338.50           6694       12395.00     54087.53
  238.81        3338.75           6698       14404.00     62873.89
  238.84        3339.00           6701       15634.00     68255.43
  238.86        3339.25           6705       17633.00     77005.01
  238.89        3339.50           6709       19756.00     86302.02
  238.92        3339.75           6713       21494.00     93916.66
  238.95        3340.00           6716       22892.00    100044.00
  238.97        3340.25           6720       24687.00    107914.50
  239.00        3340.50           6724       26648.00    116516.80
  239.03        3340.75           6728       28503.00    124658.00
  239.06        3341.00           6731       29985.00    131164.80
  239.08        3341.25           6735       31404.00    137397.20
  239.11        3341.50           6739       32463.00    142049.90
  239.14        3341.75           6743       33184.00    145218.30
  239.16        3342.00           6746       33140.00    145024.90
  239.19        3342.25           6750       32857.00    143781.30
  239.22        3342.50           6754       31388.00    137327.00
  239.25        3342.75           6758       29580.00    129386.40
  239.27        3343.00           6761       28082.00    122810.00
  239.30        3343.25           6765       26597.00    116293.10
  239.33        3343.50           6769       24833.00    108554.80
  239.36        3343.75           6773       22874.00     99965.12
  239.38        3344.00           6776       21473.00     93824.63
  239.41        3344.25           6780       19550.00     85399.71
  239.44        3344.50           6784       17662.00     77131.96
  239.46        3344.75           6788       15637.00     68268.56
  239.49        3345.00           6791       13897.00     60656.12
  239.52        3345.25           6795       11578.00     50515.61
  239.55        3345.50           6799        9042.00     39432.79
  239.57        3345.75           6803        7046.00     30714.72
  239.60        3346.00           6806        5562.00     24235.71
  239.63        3346.25           6810        3782.00     16467.49
  239.66        3346.50           6814        2492.00     10839.82
  239.68        3346.75           6818        1727.00      7503.32
  239.71        3347.00           6821        1059.00      4590.39
  239.74        3347.25           6825         331.00      1416.36
  239.76        3347.50           6829          71.00       282.91
  239.79        3347.75           6833          49.00       187.01
  239.82        3348.00           6836          31.00       108.54
  239.85        3348.25           6840          36.00       130.34
  239.87        3348.50           6844          34.00       121.62
  239.90        3348.75           6848          34.00       121.62
  239.93        3349.00           6851          31.00       108.54
  239.95        3349.25           6855          33.00       117.26
  239.98        3349.50           6859          35.00       125.98
  240.01        3349.75           6863          38.00       139.06
  240.04        3350.00           6867          37.00       134.70
  240.06        3350.25           6870          35.00       125.98
  240.09        3350.50           6874          39.00       143.42
  240.12        3350.75           6878          32.00       112.90
  240.14        3351.00           6882          39.00       143.42
HL scan finished at 04:00:46
end
