************************************************************
  HL Scan of (1) Internal mercury lamp
************************************************************
Integration time is 0.2294 seconds per sample
dh300918Tamanrasset 22.79-5.529 4.974364pr865
************************************************************
Dead Time -------------------------  2.8E-08 
Number of Cycles Used -------------  4 
Starting Wavelength (Angstroms) ---  3331 
Final Wavelength (Angstoms) -------  3351 
Wavelength Increment (Angstroms) --  .25 
Filter Wheel #1 Position ---------- (1) Ground quartz diffuser (ND=2.32)
Filter Wheel #2 Position ---------- (0) Clear Aperture



************************************************************
HL scan start time = 03:58:34
Dark Count =  5.1 


Time (GMT)  Wavelength (Ang)  Step Number  Raw Counts  Counts/Second

  239.07        3331.00           6581          31.00       112.90
  239.29        3331.25           6585          28.00        99.83
  239.32        3331.50           6589          29.00       104.19
  239.34        3331.75           6593          29.00       104.19
  239.37        3332.00           6596          36.00       134.70
  239.40        3332.25           6600          32.00       117.26
  239.43        3332.50           6604          28.00        99.83
  239.45        3332.75           6608          28.00        99.83
  239.48        3333.00           6611          27.00        95.47
  239.51        3333.25           6615          37.00       139.06
  239.53        3333.50           6619          29.00       104.19
  239.56        3333.75           6623          29.00       104.19
  239.59        3334.00           6626          29.00       104.19
  239.62        3334.25           6630          30.00       108.54
  239.64        3334.50           6634          32.00       117.26
  239.67        3334.75           6638          32.00       117.26
  239.70        3335.00           6641          35.00       130.34
  239.72        3335.25           6645          39.00       147.78
  239.75        3335.50           6649          43.00       165.21
  239.78        3335.75           6653          47.00       182.65
  239.81        3336.00           6656         106.00       439.85
  239.83        3336.25           6660         341.00      1464.31
  239.86        3336.50           6664         959.00      4158.72
  239.89        3336.75           6668        1450.00      6299.72
  239.91        3337.00           6671        2056.00      8942.52
  239.94        3337.25           6675        3620.00     15765.02
  239.97        3337.50           6679        5388.00     23480.56
  240.00        3337.75           6683        7282.00     31749.66
  240.02        3338.00           6686        8769.00     38244.51
  240.05        3338.25           6690       10686.00     46620.98
  240.08        3338.50           6694       12703.00     55438.66
  240.11        3338.75           6698       14465.00     63145.12
  240.13        3339.00           6701       16007.00     69892.10
  240.16        3339.25           6705       17835.00     77893.78
  240.19        3339.50           6709       19903.00     86950.33
  240.22        3339.75           6713       21648.00     94595.91
  240.24        3340.00           6716       23000.00    100521.90
  240.27        3340.25           6720       25088.00    109677.60
  240.30        3340.50           6724       26861.00    117455.90
  240.33        3340.75           6728       28783.00    125891.60
  240.35        3341.00           6731       30171.00    131986.00
  240.38        3341.25           6735       31581.00    138179.20
  240.41        3341.50           6739       32811.00    143583.50
  240.43        3341.75           6743       33437.00    146334.60
  240.46        3342.00           6746       33307.00    145763.30
  240.49        3342.25           6750       32929.00    144102.10
  240.52        3342.50           6754       31602.00    138271.40
  240.54        3342.75           6758       29831.00    130492.90
  240.57        3343.00           6761       28424.00    124315.60
  240.60        3343.25           6765       26403.00    115446.30
  240.63        3343.50           6769       24965.00    109138.20
  240.65        3343.75           6773       23067.00    100815.60
  240.68        3344.00           6776       21631.00     94521.42
  240.71        3344.25           6780       19653.00     85855.22
  240.73        3344.50           6784       17808.00     77775.56
  240.76        3344.75           6788       15879.00     69331.95
  240.79        3345.00           6791       14309.00     62462.69
  240.82        3345.25           6795       12299.00     53672.15
  240.84        3345.50           6799        9533.00     41582.39
  240.87        3345.75           6803        7138.00     31120.83
  240.90        3346.00           6806        5783.00     25204.79
  240.93        3346.25           6810        3952.00     17213.61
  240.95        3346.50           6814        2979.00     12968.53
  240.98        3346.75           6818        1911.00      8310.13
  241.01        3347.00           6821        1174.00      5096.19
  241.03        3347.25           6825         393.00      1691.01
  241.06        3347.50           6829          80.00       326.51
  241.09        3347.75           6833          35.00       130.34
  241.12        3348.00           6836          37.00       139.06
  241.14        3348.25           6840          42.00       160.86
  241.17        3348.50           6844          40.00       152.14
  241.20        3348.75           6848          36.00       134.70
  241.22        3349.00           6851          32.00       117.26
  241.25        3349.25           6855          41.00       156.50
  241.28        3349.50           6859          33.00       121.62
  241.31        3349.75           6863          35.00       130.34
  241.33        3350.00           6867          31.00       112.90
  241.36        3350.25           6870          32.00       117.26
  241.39        3350.50           6874          37.00       139.06
  241.41        3350.75           6878          34.00       125.98
  241.44        3351.00           6882          31.00       112.90
HL scan finished at 04:02:04
end
