************************************************************
  HL Scan of (1) Internal mercury lamp
************************************************************
Integration time is 0.2294 seconds per sample
dh011018Tamanrasset 22.79-5.529 4.974364pr865
************************************************************
Dead Time -------------------------  2.8E-08 
Number of Cycles Used -------------  4 
Starting Wavelength (Angstroms) ---  3331 
Final Wavelength (Angstoms) -------  3351 
Wavelength Increment (Angstroms) --  .25 
Filter Wheel #1 Position ---------- (1) Ground quartz diffuser (ND=2.32)
Filter Wheel #2 Position ---------- (0) Clear Aperture



************************************************************
HL scan start time = 03:58:08
Dark Count =  4.9 


Time (GMT)  Wavelength (Ang)  Step Number  Raw Counts  Counts/Second

  238.64        3331.00           6581          30.00       109.42
  238.86        3331.25           6585          32.00       118.13
  238.89        3331.50           6589          27.00        96.34
  238.91        3331.75           6593          38.00       144.29
  238.94        3332.00           6596          29.00       105.06
  238.97        3332.25           6600          28.00       100.70
  238.99        3332.50           6604          36.00       135.57
  239.02        3332.75           6608          31.00       113.78
  239.05        3333.00           6611          34.00       126.85
  239.08        3333.25           6615          25.00        87.62
  239.10        3333.50           6619          31.00       113.78
  239.13        3333.75           6623          33.00       122.49
  239.16        3334.00           6626          31.00       113.78
  239.18        3334.25           6630          31.00       113.78
  239.21        3334.50           6634          30.00       109.42
  239.24        3334.75           6638          31.00       113.78
  239.27        3335.00           6641          35.00       131.21
  239.29        3335.25           6645          38.00       144.29
  239.32        3335.50           6649          42.00       161.73
  239.35        3335.75           6653          48.00       187.88
  239.37        3336.00           6656         114.00       475.59
  239.40        3336.25           6660         370.00      1591.61
  239.43        3336.50           6664        1012.00      4390.69
  239.46        3336.75           6668        1575.00      6845.69
  239.48        3337.00           6671        2179.00      9479.85
  239.51        3337.25           6675        3972.00     17301.75
  239.54        3337.50           6679        5872.00     25594.19
  239.56        3337.75           6683        7646.00     33340.18
  239.59        3338.00           6686        9230.00     40259.39
  239.62        3338.25           6690       11158.00     48684.89
  239.65        3338.50           6694       13138.00     57341.77
  239.67        3338.75           6698       15164.00     66204.13
  239.70        3339.00           6701       16601.00     72492.68
  239.73        3339.25           6705       18713.00     81739.18
  239.76        3339.50           6709       20784.00     90810.82
  239.78        3339.75           6713       22890.00    100040.50
  239.81        3340.00           6716       24413.00    106718.20
  239.84        3340.25           6720       26398.00    115425.20
  239.86        3340.50           6724       28329.00    123899.40
  239.89        3340.75           6728       30190.00    132070.30
  239.92        3341.00           6731       31491.00    137784.70
  239.95        3341.25           6735       33110.00    144898.40
  239.97        3341.50           6739       34289.00    150080.50
  240.00        3341.75           6743       34839.00    152498.50
  240.03        3342.00           6746       34853.00    152560.10
  240.06        3342.25           6750       34524.00    151113.60
  240.08        3342.50           6754       33106.00    144880.80
  240.11        3342.75           6758       30957.00    135439.00
  240.14        3343.00           6761       29645.00    129677.10
  240.16        3343.25           6765       27612.00    120752.40
  240.19        3343.50           6769       25956.00    113486.00
  240.22        3343.75           6773       24022.00    105003.60
  240.25        3344.00           6776       22359.00     97712.91
  240.27        3344.25           6780       20741.00     90622.43
  240.30        3344.50           6784       18383.00     80294.10
  240.33        3344.75           6788       16427.00     71731.11
  240.36        3345.00           6791       14629.00     63863.45
  240.38        3345.25           6795       12757.00     55675.65
  240.41        3345.50           6799        9745.00     42509.60
  240.44        3345.75           6803        7524.00     32807.37
  240.47        3346.00           6806        5990.00     26109.32
  240.49        3346.25           6810        4111.00     17908.28
  240.52        3346.50           6814        3054.00     13296.58
  240.55        3346.75           6818        1948.00      8472.37
  240.57        3347.00           6821        1242.00      5393.58
  240.60        3347.25           6825         414.00      1783.44
  240.63        3347.50           6829          90.00       370.97
  240.66        3347.75           6833          45.00       174.80
  240.68        3348.00           6836          34.00       126.85
  240.71        3348.25           6840          36.00       135.57
  240.74        3348.50           6844          40.00       153.01
  240.76        3348.75           6848          35.00       131.21
  240.79        3349.00           6851          39.00       148.65
  240.82        3349.25           6855          33.00       122.49
  240.85        3349.50           6859          35.00       131.21
  240.87        3349.75           6863          33.00       122.49
  240.90        3350.00           6867          38.00       144.29
  240.93        3350.25           6870          36.00       135.57
  240.95        3350.50           6874          37.00       139.93
  240.98        3350.75           6878          40.00       153.01
  241.01        3351.00           6882          30.00       109.42
HL scan finished at 04:01:38
end
