************************************************************
  HL Scan of (1) Internal mercury lamp
************************************************************
Integration time is 0.2294 seconds per sample
dh051018Tamanrasset 22.79-5.529 4.974364pr865
************************************************************
Dead Time -------------------------  2.8E-08 
Number of Cycles Used -------------  4 
Starting Wavelength (Angstroms) ---  3331 
Final Wavelength (Angstoms) -------  3351 
Wavelength Increment (Angstroms) --  .25 
Filter Wheel #1 Position ---------- (1) Ground quartz diffuser (ND=2.32)
Filter Wheel #2 Position ---------- (0) Clear Aperture



************************************************************
HL scan start time = 03:59:42
Dark Count =  5.6 


Time (GMT)  Wavelength (Ang)  Step Number  Raw Counts  Counts/Second

  240.22        3331.00           6581          27.00        93.29
  240.43        3331.25           6585          35.00       128.16
  240.46        3331.50           6589          24.00        80.21
  240.49        3331.75           6593          33.00       119.44
  240.52        3332.00           6596          29.00       102.01
  240.54        3332.25           6600          29.00       102.01
  240.57        3332.50           6604          30.00       106.36
  240.60        3332.75           6608          25.00        84.57
  240.62        3333.00           6611          31.00       110.72
  240.65        3333.25           6615          29.00       102.01
  240.68        3333.50           6619          27.00        93.29
  240.70        3333.75           6623          28.00        97.65
  240.73        3334.00           6626          33.00       119.44
  240.76        3334.25           6630          34.00       123.80
  240.79        3334.50           6634          33.00       119.44
  240.81        3334.75           6638          33.00       119.44
  240.84        3335.00           6641          34.00       123.80
  240.87        3335.25           6645          32.00       115.08
  240.89        3335.50           6649          36.00       132.52
  240.92        3335.75           6653          34.00       123.80
  240.95        3336.00           6656          83.00       337.41
  240.98        3336.25           6660         278.00      1187.49
  241.00        3336.50           6664         742.00      3210.40
  241.03        3336.75           6668        1066.00      4623.09
  241.06        3337.00           6671        1550.00      6733.62
  241.09        3337.25           6675        2907.00     12652.26
  241.11        3337.50           6679        4500.00     19602.74
  241.14        3337.75           6683        6096.00     26569.02
  241.17        3338.00           6686        7392.00     32227.85
  241.19        3338.25           6690        9097.00     39675.27
  241.22        3338.50           6694       10797.00     47103.94
  241.25        3338.75           6698       12418.00     54190.28
  241.28        3339.00           6701       13752.00     60024.08
  241.30        3339.25           6705       15374.00     67119.93
  241.33        3339.50           6709       17009.00     74275.50
  241.36        3339.75           6713       18692.00     81644.15
  241.39        3340.00           6716       19948.00     87145.26
  241.41        3340.25           6720       21676.00     94716.44
  241.44        3340.50           6724       23449.00    102488.10
  241.47        3340.75           6728       24918.00    108929.80
  241.50        3341.00           6731       26092.00    114079.60
  241.52        3341.25           6735       27379.00    119726.80
  241.55        3341.50           6739       28567.00    124941.10
  241.58        3341.75           6743       29131.00    127417.20
  241.60        3342.00           6746       29195.00    127698.20
  241.63        3342.25           6750       28569.00    124949.90
  241.66        3342.50           6754       27643.00    120885.40
  241.69        3342.75           6758       26229.00    114680.70
  241.71        3343.00           6761       25026.00    109403.50
  241.74        3343.25           6765       23456.00    102518.80
  241.77        3343.50           6769       21776.00     95154.68
  241.80        3343.75           6773       20391.00     89085.94
  241.82        3344.00           6776       18917.00     82629.50
  241.85        3344.25           6780       17325.00     75658.81
  241.88        3344.50           6784       15619.00     68191.99
  241.91        3344.75           6788       13940.00     60846.39
  241.93        3345.00           6791       12654.00     55222.21
  241.96        3345.25           6795       10882.00     47475.45
  241.99        3345.50           6799        8478.00     36971.12
  242.01        3345.75           6803        6310.00     27503.30
  242.04        3346.00           6806        5074.00     22107.84
  242.07        3346.25           6810        3702.00     16120.61
  242.10        3346.50           6814        2814.00     12246.57
  242.12        3346.75           6818        1774.00      7710.47
  242.15        3347.00           6821        1100.00      4771.34
  242.18        3347.25           6825         373.00      1601.64
  242.20        3347.50           6829          84.00       341.76
  242.23        3347.75           6833          35.00       128.16
  242.26        3348.00           6836          36.00       132.52
  242.29        3348.25           6840          28.00        97.65
  242.31        3348.50           6844          34.00       123.80
  242.34        3348.75           6848          31.00       110.72
  242.37        3349.00           6851          29.00       102.01
  242.39        3349.25           6855          31.00       110.72
  242.42        3349.50           6859          32.00       115.08
  242.45        3349.75           6863          27.00        93.29
  242.48        3350.00           6867          30.00       106.36
  242.50        3350.25           6870          28.00        97.65
  242.53        3350.50           6874          33.00       119.44
  242.56        3350.75           6878          36.00       132.52
  242.58        3351.00           6882          29.00       102.01
HL scan finished at 04:03:13
end
