************************************************************
  HL Scan of (1) Internal mercury lamp
************************************************************
Integration time is 0.2294 seconds per sample
dh091018Tamanrasset 22.79-5.529 4.974364pr865
************************************************************
Dead Time -------------------------  2.8E-08 
Number of Cycles Used -------------  4 
Starting Wavelength (Angstroms) ---  3331 
Final Wavelength (Angstoms) -------  3351 
Wavelength Increment (Angstroms) --  .25 
Filter Wheel #1 Position ---------- (1) Ground quartz diffuser (ND=2.32)
Filter Wheel #2 Position ---------- (0) Clear Aperture



************************************************************
HL scan start time = 04:01:12
Dark Count =  3.1 


Time (GMT)  Wavelength (Ang)  Step Number  Raw Counts  Counts/Second

  241.71        3331.00           6581          30.00       117.26
  241.93        3331.25           6585          34.00       134.70
  241.96        3331.50           6589          30.00       117.26
  241.98        3331.75           6593          26.00        99.83
  242.01        3332.00           6596          30.00       117.26
  242.04        3332.25           6600          23.00        86.75
  242.06        3332.50           6604          29.00       112.90
  242.09        3332.75           6608          30.00       117.26
  242.12        3333.00           6611          30.00       117.26
  242.14        3333.25           6615          31.00       121.62
  242.17        3333.50           6619          28.00       108.54
  242.20        3333.75           6623          30.00       117.26
  242.23        3334.00           6626          28.00       108.54
  242.25        3334.25           6630          30.00       117.26
  242.28        3334.50           6634          31.00       121.62
  242.31        3334.75           6638          32.00       125.98
  242.33        3335.00           6641          32.00       125.98
  242.36        3335.25           6645          39.00       156.50
  242.39        3335.50           6649          34.00       134.70
  242.42        3335.75           6653          37.00       147.78
  242.44        3336.00           6656          71.00       295.99
  242.47        3336.25           6660         271.00      1167.87
  242.50        3336.50           6664         780.00      3386.98
  242.52        3336.75           6668        1362.00      5924.70
  242.55        3337.00           6671        1755.00      7638.51
  242.58        3337.25           6675        3068.00     13365.51
  242.61        3337.50           6679        4577.00     19949.68
  242.63        3337.75           6683        6238.00     27199.87
  242.66        3338.00           6686        7436.00     32430.92
  242.69        3338.25           6690        9178.00     40040.07
  242.72        3338.50           6694       10610.00     46297.56
  242.74        3338.75           6698       12457.00     54371.74
  242.77        3339.00           6701       13600.00     59370.20
  242.80        3339.25           6705       15370.00     67113.35
  242.83        3339.50           6709       17089.00     74636.63
  242.85        3339.75           6713       18795.00     82106.16
  242.88        3340.00           6716       20070.00     87690.64
  242.91        3340.25           6720       21671.00     94705.48
  242.93        3340.50           6724       23294.00    101819.50
  242.96        3340.75           6728       24873.00    108743.40
  242.99        3341.00           6731       26117.00    114200.20
  243.02        3341.25           6735       27404.00    119847.50
  243.04        3341.50           6739       28575.00    124987.20
  243.07        3341.75           6743       28977.00    126752.00
  243.10        3342.00           6746       28956.00    126659.80
  243.13        3342.25           6750       28422.00    124315.60
  243.15        3342.50           6754       27458.00    120084.40
  243.18        3342.75           6758       25668.00    112230.50
  243.21        3343.00           6761       24365.00    106515.60
  243.24        3343.25           6765       22764.00     99496.07
  243.26        3343.50           6769       21383.00     93443.39
  243.29        3343.75           6773       19709.00     86109.29
  243.32        3344.00           6776       18531.00     80950.06
  243.34        3344.25           6780       16915.00     73874.98
  243.37        3344.50           6784       15340.00     66982.10
  243.40        3344.75           6788       13540.00     59107.78
  243.43        3345.00           6791       12200.00     53248.03
  243.45        3345.25           6795       10468.00     45676.96
  243.48        3345.50           6799        8173.00     35649.78
  243.51        3345.75           6803        5968.00     26021.13
  243.54        3346.00           6806        4845.00     21119.29
  243.56        3346.25           6810        3340.00     14552.14
  243.59        3346.50           6814        2353.00     10246.62
  243.62        3346.75           6818        1370.00      5959.58
  243.64        3347.00           6821         971.00      4219.77
  243.67        3347.25           6825         331.00      1429.44
  243.70        3347.50           6829          74.00       309.07
  243.73        3347.75           6833          35.00       139.06
  243.75        3348.00           6836          33.00       130.34
  243.78        3348.25           6840          35.00       139.06
  243.81        3348.50           6844          39.00       156.50
  243.84        3348.75           6848          34.00       134.70
  243.86        3349.00           6851          34.00       134.70
  243.89        3349.25           6855          33.00       130.34
  243.92        3349.50           6859          31.00       121.62
  243.94        3349.75           6863          36.00       143.42
  243.97        3350.00           6867          34.00       134.70
  244.00        3350.25           6870          30.00       117.26
  244.03        3350.50           6874          32.00       125.98
  244.05        3350.75           6878          35.00       139.06
  244.08        3351.00           6882          30.00       117.26
HL scan finished at 04:04:42
end
