************************************************************
  HL Scan of (1) Internal mercury lamp
************************************************************
Integration time is 0.2294 seconds per sample
dh071018Tamanrasset 22.79-5.529 4.974364pr865
************************************************************
Dead Time -------------------------  2.8E-08 
Number of Cycles Used -------------  4 
Starting Wavelength (Angstroms) ---  3331 
Final Wavelength (Angstoms) -------  3351 
Wavelength Increment (Angstroms) --  .25 
Filter Wheel #1 Position ---------- (1) Ground quartz diffuser (ND=2.32)
Filter Wheel #2 Position ---------- (0) Clear Aperture



************************************************************
HL scan start time = 04:00:06
Dark Count =  4.9 


Time (GMT)  Wavelength (Ang)  Step Number  Raw Counts  Counts/Second

  240.60        3331.00           6581          32.00       118.13
  240.82        3331.25           6585          39.00       148.65
  240.85        3331.50           6589          34.00       126.85
  240.88        3331.75           6593          32.00       118.13
  240.90        3332.00           6596          28.00       100.70
  240.93        3332.25           6600          31.00       113.78
  240.96        3332.50           6604          28.00       100.70
  240.99        3332.75           6608          28.00       100.70
  241.01        3333.00           6611          28.00       100.70
  241.04        3333.25           6615          29.00       105.06
  241.07        3333.50           6619          35.00       131.21
  241.09        3333.75           6623          31.00       113.78
  241.12        3334.00           6626          27.00        96.34
  241.15        3334.25           6630          30.00       109.42
  241.18        3334.50           6634          34.00       126.85
  241.20        3334.75           6638          25.00        87.62
  241.23        3335.00           6641          30.00       109.42
  241.26        3335.25           6645          35.00       131.21
  241.28        3335.50           6649          31.00       113.78
  241.31        3335.75           6653          39.00       148.65
  241.34        3336.00           6656          64.00       257.63
  241.37        3336.25           6660         256.00      1094.63
  241.39        3336.50           6664         698.00      3021.62
  241.42        3336.75           6668        1145.00      4970.61
  241.45        3337.00           6671        1524.00      6623.29
  241.48        3337.25           6675        2904.00     12642.23
  241.50        3337.50           6679        4550.00     19823.99
  241.53        3337.75           6683        6413.00     27956.05
  241.56        3338.00           6686        7780.00     33925.41
  241.59        3338.25           6690        9493.00     41408.49
  241.61        3338.50           6694       11294.00     49279.38
  241.64        3338.75           6698       13135.00     57328.65
  241.67        3339.00           6701       14565.00     63583.46
  241.69        3339.25           6705       16503.00     72063.75
  241.72        3339.50           6709       18156.00     79300.12
  241.75        3339.75           6713       20078.00     87717.80
  241.78        3340.00           6716       21329.00     93198.87
  241.80        3340.25           6720       23297.00    101824.80
  241.83        3340.50           6724       25020.00    109380.30
  241.86        3340.75           6728       26712.00    116802.90
  241.89        3341.00           6731       27975.00    122345.60
  241.91        3341.25           6735       29427.00    128719.90
  241.94        3341.50           6739       30663.00    134147.70
  241.97        3341.75           6743       31547.00    138030.70
  241.99        3342.00           6746       31625.00    138373.40
  242.02        3342.25           6750       31248.00    136717.20
  242.05        3342.50           6754       30306.00    132579.80
  242.08        3342.75           6758       28882.00    126327.00
  242.10        3343.00           6761       27066.00    118356.30
  242.13        3343.25           6765       25544.00    111678.70
  242.16        3343.50           6769       23902.00    104477.40
  242.19        3343.75           6773       22111.00     96625.94
  242.21        3344.00           6776       20880.00     91231.44
  242.24        3344.25           6780       19105.00     83455.91
  242.27        3344.50           6784       17242.00     75298.52
  242.30        3344.75           6788       15620.00     68199.43
  242.32        3345.00           6791       14008.00     61146.89
  242.35        3345.25           6795       12139.00     52973.46
  242.38        3345.50           6799        9322.00     40661.35
  242.40        3345.75           6803        7186.00     31331.31
  242.43        3346.00           6806        5916.00     25786.27
  242.46        3346.25           6810        4321.00     18824.65
  242.49        3346.50           6814        2844.00     12380.49
  242.51        3346.75           6818        2086.00      9074.23
  242.54        3347.00           6821        1348.00      5855.80
  242.57        3347.25           6825         549.00      2372.00
  242.59        3347.50           6829         120.00       501.75
  242.62        3347.75           6833          38.00       144.29
  242.65        3348.00           6836          35.00       131.21
  242.68        3348.25           6840          36.00       135.57
  242.70        3348.50           6844          32.00       118.13
  242.73        3348.75           6848          36.00       135.57
  242.76        3349.00           6851          37.00       139.93
  242.78        3349.25           6855          29.00       105.06
  242.81        3349.50           6859          27.00        96.34
  242.84        3349.75           6863          33.00       122.49
  242.87        3350.00           6867          32.00       118.13
  242.89        3350.25           6870          34.00       126.85
  242.92        3350.50           6874          32.00       118.13
  242.95        3350.75           6878          35.00       131.21
  242.97        3351.00           6882          39.00       148.65
HL scan finished at 04:03:36
end
