************************************************************
  HL Scan of (1) Internal mercury lamp
************************************************************
Integration time is 0.2294 seconds per sample
dh161018Tamanrasset 22.79-5.529 4.974364pr865
************************************************************
Dead Time -------------------------  2.8E-08 
Number of Cycles Used -------------  4 
Starting Wavelength (Angstroms) ---  3331 
Final Wavelength (Angstoms) -------  3351 
Wavelength Increment (Angstroms) --  .25 
Filter Wheel #1 Position ---------- (1) Ground quartz diffuser (ND=2.32)
Filter Wheel #2 Position ---------- (0) Clear Aperture



************************************************************
HL scan start time = 04:05:16
Dark Count =  5.5 


Time (GMT)  Wavelength (Ang)  Step Number  Raw Counts  Counts/Second

  245.78        3331.00           6581          35.00       128.60
  246.00        3331.25           6585          30.00       106.80
  246.03        3331.50           6589          32.00       115.52
  246.06        3331.75           6593          26.00        89.36
  246.08        3332.00           6596          24.00        80.65
  246.11        3332.25           6600          30.00       106.80
  246.14        3332.50           6604          34.00       124.24
  246.17        3332.75           6608          25.00        85.00
  246.19        3333.00           6611          25.00        85.00
  246.22        3333.25           6615          29.00       102.44
  246.25        3333.50           6619          26.00        89.36
  246.27        3333.75           6623          30.00       106.80
  246.30        3334.00           6626          33.00       119.88
  246.33        3334.25           6630          32.00       115.52
  246.36        3334.50           6634          27.00        93.72
  246.38        3334.75           6638          29.00       102.44
  246.41        3335.00           6641          28.00        98.08
  246.44        3335.25           6645          35.00       128.60
  246.46        3335.50           6649          36.00       132.96
  246.49        3335.75           6653          43.00       163.47
  246.52        3336.00           6656          61.00       241.94
  246.55        3336.25           6660         236.00      1004.82
  246.57        3336.50           6664         695.00      3005.92
  246.60        3336.75           6668        1142.00      4954.92
  246.63        3337.00           6671        1561.00      6782.02
  246.66        3337.25           6675        2872.00     12500.02
  246.68        3337.50           6679        4581.00     19956.66
  246.71        3337.75           6683        6212.00     27075.88
  246.74        3338.00           6686        7430.00     32394.24
  246.76        3338.25           6690        9296.00     40545.13
  246.79        3338.50           6694       10966.00     47843.04
  246.82        3338.75           6698       12717.00     55498.12
  246.85        3339.00           6701       14009.00     61148.64
  246.87        3339.25           6705       15830.00     69115.76
  246.90        3339.50           6709       17688.00     77248.43
  246.93        3339.75           6713       19383.00     84670.86
  246.95        3340.00           6716       20734.00     90589.12
  246.98        3340.25           6720       22436.00     98047.80
  247.01        3340.50           6724       24135.00    105496.40
  247.04        3340.75           6728       26019.00    113759.80
  247.06        3341.00           6731       27161.00    118770.50
  247.09        3341.25           6735       28529.00    124774.70
  247.12        3341.50           6739       29825.00    130464.80
  247.15        3341.75           6743       30657.00    134118.70
  247.17        3342.00           6746       30943.00    135374.90
  247.20        3342.25           6750       30454.00    133227.10
  247.23        3342.50           6754       29676.00    129810.60
  247.26        3342.75           6758       27895.00    121991.90
  247.28        3343.00           6761       26879.00    117533.10
  247.31        3343.25           6765       24976.00    109184.60
  247.34        3343.50           6769       23544.00    102905.10
  247.37        3343.75           6773       21832.00     95400.54
  247.39        3344.00           6776       20291.00     88648.28
  247.42        3344.25           6780       18463.00     80641.78
  247.45        3344.50           6784       16848.00     73571.19
  247.47        3344.75           6788       14937.00     65208.32
  247.50        3345.00           6791       13480.00     58834.87
  247.53        3345.25           6795       11715.00     51117.14
  247.56        3345.50           6799        9193.00     40095.12
  247.58        3345.75           6803        6958.00     30333.08
  247.61        3346.00           6806        5753.00     25072.09
  247.64        3346.25           6810        4049.00     17635.12
  247.66        3346.50           6814        3051.00     13280.88
  247.69        3346.75           6818        2087.00      9075.98
  247.72        3347.00           6821        1340.00      5818.30
  247.75        3347.25           6825         503.00      2168.83
  247.77        3347.50           6829         113.00       468.62
  247.80        3347.75           6833          35.00       128.60
  247.83        3348.00           6836          38.00       141.67
  247.86        3348.25           6840          35.00       128.60
  247.88        3348.50           6844          38.00       141.67
  247.91        3348.75           6848          32.00       115.52
  247.94        3349.00           6851          31.00       111.16
  247.96        3349.25           6855          36.00       132.96
  247.99        3349.50           6859          34.00       124.24
  248.02        3349.75           6863          31.00       111.16
  248.05        3350.00           6867          32.00       115.52
  248.07        3350.25           6870          29.00       102.44
  248.10        3350.50           6874          30.00       106.80
  248.13        3350.75           6878          29.00       102.44
  248.15        3351.00           6882          29.00       102.44
HL scan finished at 04:08:47
end
