************************************************************
  HL Scan of (1) Internal mercury lamp
************************************************************
Integration time is 0.2294 seconds per sample
dh101018Tamanrasset 22.79-5.529 4.974364pr865
************************************************************
Dead Time -------------------------  2.8E-08 
Number of Cycles Used -------------  4 
Starting Wavelength (Angstroms) ---  3331 
Final Wavelength (Angstoms) -------  3351 
Wavelength Increment (Angstroms) --  .25 
Filter Wheel #1 Position ---------- (1) Ground quartz diffuser (ND=2.32)
Filter Wheel #2 Position ---------- (0) Clear Aperture



************************************************************
HL scan start time = 04:01:43
Dark Count =  4.7 


Time (GMT)  Wavelength (Ang)  Step Number  Raw Counts  Counts/Second

  242.23        3331.00           6581          27.00        97.21
  242.45        3331.25           6585          37.00       140.80
  242.48        3331.50           6589          30.00       110.29
  242.50        3331.75           6593          27.00        97.21
  242.53        3332.00           6596          29.00       105.93
  242.56        3332.25           6600          31.00       114.65
  242.58        3332.50           6604          31.00       114.65
  242.61        3332.75           6608          29.00       105.93
  242.64        3333.00           6611          28.00       101.57
  242.67        3333.25           6615          24.00        84.13
  242.69        3333.50           6619          31.00       114.65
  242.72        3333.75           6623          29.00       105.93
  242.75        3334.00           6626          35.00       132.08
  242.77        3334.25           6630          29.00       105.93
  242.80        3334.50           6634          33.00       123.37
  242.83        3334.75           6638          30.00       110.29
  242.86        3335.00           6641          32.00       119.01
  242.88        3335.25           6645          29.00       105.93
  242.91        3335.50           6649          31.00       114.65
  242.94        3335.75           6653          40.00       153.88
  242.97        3336.00           6656          74.00       302.10
  242.99        3336.25           6660         248.00      1060.62
  243.02        3336.50           6664         697.00      3018.13
  243.05        3336.75           6668        1025.00      4448.24
  243.07        3337.00           6671        1518.00      6597.99
  243.10        3337.25           6675        2845.00     12385.73
  243.13        3337.50           6679        4447.00     19375.37
  243.16        3337.75           6683        6071.00     26463.80
  243.18        3338.00           6686        7333.00     31974.12
  243.21        3338.25           6690        9063.00     39530.65
  243.24        3338.50           6694       10754.00     46919.93
  243.26        3338.75           6698       12384.00     54045.55
  243.29        3339.00           6701       13710.00     59844.31
  243.32        3339.25           6705       15295.00     66778.20
  243.35        3339.50           6709       16988.00     74187.52
  243.37        3339.75           6713       18669.00     81547.38
  243.40        3340.00           6716       19975.00     87267.48
  243.43        3340.25           6720       21754.00     95062.21
  243.46        3340.50           6724       23378.00    102180.80
  243.48        3340.75           6728       25066.00    109582.90
  243.51        3341.00           6731       26232.00    114697.80
  243.54        3341.25           6735       27659.00    120959.60
  243.57        3341.50           6739       28943.00    126595.70
  243.59        3341.75           6743       29598.00    129471.60
  243.62        3342.00           6746       29702.00    129928.20
  243.65        3342.25           6750       29533.00    129186.20
  243.67        3342.50           6754       28623.00    125190.90
  243.70        3342.75           6758       26920.00    117716.50
  243.73        3343.00           6761       25592.00    111890.10
  243.76        3343.25           6765       24049.00    105122.80
  243.78        3343.50           6769       22625.00     98879.75
  243.81        3343.75           6773       20905.00     91341.86
  243.84        3344.00           6776       19577.00     85524.09
  243.87        3344.25           6780       18036.00     78775.57
  243.89        3344.50           6784       16259.00     70996.71
  243.92        3344.75           6788       14522.00     63396.22
  243.95        3345.00           6791       13239.00     57784.35
  243.98        3345.25           6795       11445.00     49940.32
  244.00        3345.50           6799        8919.00     38901.55
  244.03        3345.75           6803        6734.00     29358.48
  244.06        3346.00           6806        5504.00     23988.64
  244.08        3346.25           6810        4129.00     17987.70
  244.11        3346.50           6814        3179.00     13842.77
  244.14        3346.75           6818        2006.00      8726.20
  244.17        3347.00           6821        1301.00      5651.72
  244.19        3347.25           6825         498.00      2150.52
  244.22        3347.50           6829         118.00       493.90
  244.25        3347.75           6833          37.00       140.80
  244.28        3348.00           6836          35.00       132.08
  244.30        3348.25           6840          34.00       127.72
  244.33        3348.50           6844          30.00       110.29
  244.36        3348.75           6848          37.00       140.80
  244.38        3349.00           6851          37.00       140.80
  244.41        3349.25           6855          40.00       153.88
  244.44        3349.50           6859          34.00       127.72
  244.46        3349.75           6863          23.00        79.77
  244.49        3350.00           6867          30.00       110.29
  244.52        3350.25           6870          28.00       101.57
  244.55        3350.50           6874          23.00        79.77
  244.57        3350.75           6878          35.00       132.08
  244.60        3351.00           6882          41.00       158.24
HL scan finished at 04:05:13
end
