************************************************************
  HL Scan of (1) Internal mercury lamp
************************************************************
Integration time is 0.2294 seconds per sample
dh121018Tamanrasset 22.79-5.529 4.974364pr865
************************************************************
Dead Time -------------------------  2.8E-08 
Number of Cycles Used -------------  4 
Starting Wavelength (Angstroms) ---  3331 
Final Wavelength (Angstoms) -------  3351 
Wavelength Increment (Angstroms) --  .25 
Filter Wheel #1 Position ---------- (1) Ground quartz diffuser (ND=2.32)
Filter Wheel #2 Position ---------- (0) Clear Aperture



************************************************************
HL scan start time = 04:03:11
Dark Count =  4.9 


Time (GMT)  Wavelength (Ang)  Step Number  Raw Counts  Counts/Second

  243.69        3331.00           6581          30.00       109.42
  243.91        3331.25           6585          30.00       109.42
  243.94        3331.50           6589          29.00       105.06
  243.97        3331.75           6593          30.00       109.42
  243.99        3332.00           6596          33.00       122.49
  244.02        3332.25           6600          27.00        96.34
  244.05        3332.50           6604          32.00       118.13
  244.08        3332.75           6608          28.00       100.70
  244.10        3333.00           6611          33.00       122.49
  244.13        3333.25           6615          31.00       113.78
  244.16        3333.50           6619          34.00       126.85
  244.18        3333.75           6623          26.00        91.98
  244.21        3334.00           6626          37.00       139.93
  244.24        3334.25           6630          29.00       105.06
  244.27        3334.50           6634          30.00       109.42
  244.29        3334.75           6638          31.00       113.78
  244.32        3335.00           6641          36.00       135.57
  244.35        3335.25           6645          35.00       131.21
  244.37        3335.50           6649          39.00       148.65
  244.40        3335.75           6653          42.00       161.73
  244.43        3336.00           6656         105.00       436.36
  244.46        3336.25           6660         399.00      1718.04
  244.48        3336.50           6664        1076.00      4669.75
  244.51        3336.75           6668        1642.00      7137.87
  244.54        3337.00           6671        2128.00      9257.41
  244.56        3337.25           6675        3761.00     16381.10
  244.59        3337.50           6679        5537.00     24131.82
  244.62        3337.75           6683        7424.00     32370.66
  244.65        3338.00           6686        8849.00     38594.86
  244.67        3338.25           6690       10837.00     47281.82
  244.70        3338.50           6694       12574.00     54875.45
  244.73        3338.75           6698       14401.00     62866.01
  244.76        3339.00           6701       15842.00     69170.90
  244.78        3339.25           6705       17854.00     77977.83
  244.81        3339.50           6709       19844.00     86692.74
  244.84        3339.75           6713       21810.00     95306.75
  244.87        3340.00           6716       23148.00    101171.60
  244.89        3340.25           6720       25046.00    109494.30
  244.92        3340.50           6724       27044.00    118259.70
  244.95        3340.75           6728       28644.00    125282.20
  244.97        3341.00           6731       29881.00    130713.40
  245.00        3341.25           6735       31420.00    137472.80
  245.03        3341.50           6739       32710.00    143140.60
  245.06        3341.75           6743       33348.00    145944.40
  245.08        3342.00           6746       33417.00    146247.60
  245.11        3342.25           6750       32771.00    143408.60
  245.14        3342.50           6754       31603.00    138276.70
  245.17        3342.75           6758       29559.00    129299.40
  245.19        3343.00           6761       28227.00    123451.70
  245.22        3343.25           6765       26223.00    114657.40
  245.25        3343.50           6769       25058.00    109546.90
  245.27        3343.75           6773       22863.00     99922.16
  245.30        3344.00           6776       21448.00     93720.34
  245.33        3344.25           6780       19625.00     85733.46
  245.36        3344.50           6784       17780.00     77653.84
  245.38        3344.75           6788       15723.00     68650.15
  245.41        3345.00           6791       14224.00     62091.73
  245.44        3345.25           6795       12137.00     52964.72
  245.47        3345.50           6799        9390.00     40958.45
  245.49        3345.75           6803        7034.00     30667.56
  245.52        3346.00           6806        5673.00     24725.49
  245.55        3346.25           6810        3918.00     17066.13
  245.58        3346.50           6814        2754.00     11987.90
  245.60        3346.75           6818        1734.00      7539.08
  245.63        3347.00           6821        1128.00      4896.49
  245.66        3347.25           6825         370.00      1591.61
  245.68        3347.50           6829          83.00       340.46
  245.71        3347.75           6833          37.00       139.93
  245.74        3348.00           6836          37.00       139.93
  245.77        3348.25           6840          39.00       148.65
  245.79        3348.50           6844          30.00       109.42
  245.82        3348.75           6848          35.00       131.21
  245.85        3349.00           6851          33.00       122.49
  245.87        3349.25           6855          30.00       109.42
  245.90        3349.50           6859          31.00       113.78
  245.93        3349.75           6863          32.00       118.13
  245.96        3350.00           6867          30.00       109.42
  245.98        3350.25           6870          35.00       131.21
  246.01        3350.50           6874          33.00       122.49
  246.04        3350.75           6878          34.00       126.85
  246.06        3351.00           6882          35.00       131.21
HL scan finished at 04:06:41
end
