************************************************************
  HL Scan of (1) Internal mercury lamp
************************************************************
Integration time is 0.2294 seconds per sample
dh111018Tamanrasset 22.79-5.529 4.974364pr865
************************************************************
Dead Time -------------------------  2.8E-08 
Number of Cycles Used -------------  4 
Starting Wavelength (Angstroms) ---  3331 
Final Wavelength (Angstoms) -------  3351 
Wavelength Increment (Angstroms) --  .25 
Filter Wheel #1 Position ---------- (1) Ground quartz diffuser (ND=2.32)
Filter Wheel #2 Position ---------- (0) Clear Aperture



************************************************************
HL scan start time = 04:02:11
Dark Count =  4.6 


Time (GMT)  Wavelength (Ang)  Step Number  Raw Counts  Counts/Second

  242.70        3331.00           6581          31.00       115.08
  242.92        3331.25           6585          28.00       102.01
  242.94        3331.50           6589          24.00        84.57
  242.97        3331.75           6593          34.00       128.16
  243.00        3332.00           6596          22.00        75.85
  243.02        3332.25           6600          29.00       106.36
  243.05        3332.50           6604          32.00       119.44
  243.08        3332.75           6608          29.00       106.36
  243.11        3333.00           6611          35.00       132.52
  243.13        3333.25           6615          27.00        97.65
  243.16        3333.50           6619          26.00        93.29
  243.19        3333.75           6623          30.00       110.72
  243.21        3334.00           6626          32.00       119.44
  243.24        3334.25           6630          33.00       123.80
  243.27        3334.50           6634          27.00        97.65
  243.30        3334.75           6638          31.00       115.08
  243.32        3335.00           6641          33.00       123.80
  243.35        3335.25           6645          35.00       132.52
  243.38        3335.50           6649          30.00       110.72
  243.40        3335.75           6653          38.00       145.60
  243.43        3336.00           6656          53.00       210.99
  243.46        3336.25           6660         221.00       943.36
  243.49        3336.50           6664         620.00      2682.85
  243.51        3336.75           6668        1118.00      4854.19
  243.54        3337.00           6671        1392.00      6048.98
  243.57        3337.25           6675        2726.00     11867.06
  243.59        3337.50           6679        4338.00     18900.15
  243.62        3337.75           6683        5992.00     26119.36
  243.65        3338.00           6686        7361.00     32096.84
  243.68        3338.25           6690        9119.00     39775.75
  243.70        3338.50           6694       10938.00     47724.59
  243.73        3338.75           6698       12623.00     55091.03
  243.76        3339.00           6701       13939.00     60846.39
  243.79        3339.25           6705       15713.00     68607.71
  243.81        3339.50           6709       17591.00     76827.70
  243.84        3339.75           6713       19329.00     84438.28
  243.87        3340.00           6716       20411.00     89177.93
  243.90        3340.25           6720       22453.00     98126.27
  243.92        3340.50           6724       24031.00    105044.30
  243.95        3340.75           6728       25780.00    112715.20
  243.98        3341.00           6731       26953.00    117861.70
  244.00        3341.25           6735       28660.00    125353.80
  244.03        3341.50           6739       29786.00    130297.50
  244.06        3341.75           6743       30450.00    133213.50
  244.09        3342.00           6746       30720.00    134399.30
  244.11        3342.25           6750       30294.00    132528.40
  244.14        3342.50           6754       29358.00    128418.20
  244.17        3342.75           6758       27922.00    122114.30
  244.20        3343.00           6761       26218.00    114636.80
  244.22        3343.25           6765       24866.00    108706.10
  244.25        3343.50           6769       23382.00    102198.80
  244.28        3343.75           6773       21603.00     94400.89
  244.31        3344.00           6776       20111.00     87863.68
  244.33        3344.25           6780       18345.00     80129.02
  244.36        3344.50           6784       16691.00     72887.93
  244.39        3344.75           6788       15017.00     65562.27
  244.41        3345.00           6791       13561.00     59193.07
  244.44        3345.25           6795       11420.00     49831.48
  244.47        3345.50           6799        8955.00     39059.26
  244.50        3345.75           6803        7002.00     30529.14
  244.52        3346.00           6806        5748.00     25054.19
  244.55        3346.25           6810        4131.00     17996.86
  244.58        3346.50           6814        2626.00     11430.86
  244.61        3346.75           6818        1969.00      8565.26
  244.63        3347.00           6821        1331.00      5782.98
  244.66        3347.25           6825         531.00      2294.83
  244.69        3347.50           6829         134.00       564.09
  244.71        3347.75           6833          41.00       158.68
  244.74        3348.00           6836          34.00       128.16
  244.77        3348.25           6840          37.00       141.24
  244.80        3348.50           6844          31.00       115.08
  244.82        3348.75           6848          28.00       102.01
  244.85        3349.00           6851          34.00       128.16
  244.88        3349.25           6855          35.00       132.52
  244.90        3349.50           6859          32.00       119.44
  244.93        3349.75           6863          30.00       110.72
  244.96        3350.00           6867          32.00       119.44
  244.99        3350.25           6870          29.00       106.36
  245.01        3350.50           6874          36.00       136.88
  245.04        3350.75           6878          31.00       115.08
  245.07        3351.00           6882          30.00       110.72
HL scan finished at 04:05:41
end
