************************************************************
  HL Scan of (1) Internal mercury lamp
************************************************************
Integration time is 0.2294 seconds per sample
dh131018Tamanrasset 22.79-5.529 4.974364pr865
************************************************************
Dead Time -------------------------  2.8E-08 
Number of Cycles Used -------------  4 
Starting Wavelength (Angstroms) ---  3331 
Final Wavelength (Angstoms) -------  3351 
Wavelength Increment (Angstroms) --  .25 
Filter Wheel #1 Position ---------- (1) Ground quartz diffuser (ND=2.32)
Filter Wheel #2 Position ---------- (0) Clear Aperture



************************************************************
HL scan start time = 04:03:13
Dark Count =  4.1 


Time (GMT)  Wavelength (Ang)  Step Number  Raw Counts  Counts/Second

  243.73        3331.00           6581          27.00        99.83
  243.95        3331.25           6585          30.00       112.90
  243.98        3331.50           6589          33.00       125.98
  244.00        3331.75           6593          30.00       112.90
  244.03        3332.00           6596          29.00       108.54
  244.06        3332.25           6600          28.00       104.19
  244.08        3332.50           6604          28.00       104.19
  244.11        3332.75           6608          29.00       108.54
  244.14        3333.00           6611          29.00       108.54
  244.17        3333.25           6615          30.00       112.90
  244.19        3333.50           6619          32.00       121.62
  244.22        3333.75           6623          30.00       112.90
  244.25        3334.00           6626          30.00       112.90
  244.27        3334.25           6630          35.00       134.70
  244.30        3334.50           6634          26.00        95.47
  244.33        3334.75           6638          34.00       130.34
  244.36        3335.00           6641          28.00       104.19
  244.38        3335.25           6645          33.00       125.98
  244.41        3335.50           6649          40.00       156.50
  244.44        3335.75           6653          39.00       152.14
  244.46        3336.00           6656          95.00       396.26
  244.49        3336.25           6660         288.00      1237.62
  244.52        3336.50           6664         790.00      3426.22
  244.55        3336.75           6668        1269.00      5514.80
  244.57        3337.00           6671        1879.00      8174.93
  244.60        3337.25           6675        3333.00     14517.24
  244.63        3337.50           6679        4891.00     21315.68
  244.65        3337.75           6683        6602.00     28784.75
  244.68        3338.00           6686        7918.00     34531.63
  244.71        3338.25           6690        9694.00     42290.24
  244.74        3338.50           6694       11311.00     49357.19
  244.76        3338.75           6698       13002.00     56750.53
  244.79        3339.00           6701       14286.00     62366.44
  244.82        3339.25           6705       15831.00     69126.26
  244.85        3339.50           6709       17632.00     77009.38
  244.87        3339.75           6713       19486.00     85128.13
  244.90        3340.00           6716       20687.00     90389.34
  244.93        3340.25           6720       22604.00     98790.33
  244.96        3340.50           6724       24243.00    105976.20
  244.98        3340.75           6728       25875.00    113134.20
  245.01        3341.00           6731       26891.00    117591.90
  245.04        3341.25           6735       28425.00    124324.40
  245.06        3341.50           6739       29459.00    128863.90
  245.09        3341.75           6743       30052.00    131467.80
  245.12        3342.00           6746       29966.00    131090.10
  245.15        3342.25           6750       29620.00    129570.80
  245.17        3342.50           6754       28786.00    125909.10
  245.20        3342.75           6758       27069.00    118373.00
  245.23        3343.00           6761       25835.00    112958.70
  245.26        3343.25           6765       23948.00    104682.60
  245.28        3343.50           6769       22549.00     98549.24
  245.31        3343.75           6773       20713.00     90503.24
  245.34        3344.00           6776       19429.00     84878.47
  245.36        3344.25           6780       17674.00     77193.26
  245.39        3344.50           6784       15965.00     69712.68
  245.42        3344.75           6788       14229.00     62117.10
  245.45        3345.00           6791       12953.00     56536.25
  245.47        3345.25           6795       11161.00     48701.51
  245.50        3345.50           6799        8634.00     37659.13
  245.53        3345.75           6803        6350.00     27684.49
  245.56        3346.00           6806        5088.00     22175.49
  245.58        3346.25           6810        3642.00     15865.37
  245.61        3346.50           6814        2757.00     12004.47
  245.64        3346.75           6818        1638.00      7123.91
  245.67        3347.00           6821        1005.00      4363.66
  245.69        3347.25           6825         334.00      1438.16
  245.72        3347.50           6829          70.00       287.27
  245.75        3347.75           6833          38.00       147.78
  245.77        3348.00           6836          37.00       143.42
  245.80        3348.25           6840          29.00       108.54
  245.83        3348.50           6844          32.00       121.62
  245.86        3348.75           6848          35.00       134.70
  245.88        3349.00           6851          35.00       134.70
  245.91        3349.25           6855          32.00       121.62
  245.94        3349.50           6859          30.00       112.90
  245.96        3349.75           6863          28.00       104.19
  245.99        3350.00           6867          30.00       112.90
  246.02        3350.25           6870          29.00       108.54
  246.05        3350.50           6874          30.00       112.90
  246.07        3350.75           6878          31.00       117.26
  246.10        3351.00           6882          32.00       121.62
HL scan finished at 04:06:43
end
