************************************************************
  HL Scan of (1) Internal mercury lamp
************************************************************
Integration time is 0.2294 seconds per sample
dh141018Tamanrasset 22.79-5.529 4.974364pr865
************************************************************
Dead Time -------------------------  2.8E-08 
Number of Cycles Used -------------  4 
Starting Wavelength (Angstroms) ---  3331 
Final Wavelength (Angstoms) -------  3351 
Wavelength Increment (Angstroms) --  .25 
Filter Wheel #1 Position ---------- (1) Ground quartz diffuser (ND=2.32)
Filter Wheel #2 Position ---------- (0) Clear Aperture



************************************************************
HL scan start time = 04:02:44
Dark Count =  5.2 


Time (GMT)  Wavelength (Ang)  Step Number  Raw Counts  Counts/Second

  243.25        3331.00           6581          27.00        95.03
  243.47        3331.25           6585          25.00        86.31
  243.50        3331.50           6589          29.00       103.75
  243.53        3331.75           6593          28.00        99.39
  243.55        3332.00           6596          32.00       116.83
  243.58        3332.25           6600          26.00        90.67
  243.61        3332.50           6604          29.00       103.75
  243.63        3332.75           6608          32.00       116.83
  243.66        3333.00           6611          30.00       108.11
  243.69        3333.25           6615          27.00        95.03
  243.72        3333.50           6619          26.00        90.67
  243.74        3333.75           6623          31.00       112.47
  243.77        3334.00           6626          29.00       103.75
  243.80        3334.25           6630          26.00        90.67
  243.82        3334.50           6634          32.00       116.83
  243.85        3334.75           6638          26.00        90.67
  243.88        3335.00           6641          26.00        90.67
  243.91        3335.25           6645          30.00       108.11
  243.93        3335.50           6649          36.00       134.26
  243.96        3335.75           6653          42.00       160.42
  243.99        3336.00           6656          54.00       212.73
  244.02        3336.25           6660         183.00       775.08
  244.04        3336.50           6664         584.00      2523.28
  244.07        3336.75           6668        1047.00      4541.99
  244.10        3337.00           6671        1330.00      5776.00
  244.12        3337.25           6675        2568.00     11175.25
  244.15        3337.50           6679        4104.00     17876.43
  244.18        3337.75           6683        5725.00     24951.17
  244.21        3338.00           6686        6851.00     29867.17
  244.23        3338.25           6690        8596.00     37488.33
  244.26        3338.50           6694       10125.00     44168.81
  244.29        3338.75           6698       11888.00     51874.77
  244.31        3339.00           6701       13047.00     56942.51
  244.34        3339.25           6705       14917.00     65122.13
  244.37        3339.50           6709       16462.00     71882.99
  244.40        3339.75           6713       18235.00     79644.73
  244.42        3340.00           6716       19280.00     84221.05
  244.45        3340.25           6720       20999.00     91751.54
  244.48        3340.50           6724       22766.00     99495.63
  244.51        3340.75           6728       24203.00    105795.90
  244.53        3341.00           6731       25569.00    111787.00
  244.56        3341.25           6735       26898.00    117617.80
  244.59        3341.50           6739       28038.00    122620.80
  244.62        3341.75           6743       28798.00    125957.00
  244.64        3342.00           6746       28958.00    126659.40
  244.67        3342.25           6750       28891.00    126365.20
  244.70        3342.50           6754       28032.00    122594.50
  244.73        3342.75           6758       26180.00    114467.40
  244.75        3343.00           6761       24884.00    108782.50
  244.78        3343.25           6765       23355.00    102077.70
  244.81        3343.50           6769       22039.00     96309.07
  244.83        3343.75           6773       20487.00     89508.28
  244.86        3344.00           6776       19087.00     83375.77
  244.89        3344.25           6780       17417.00     76063.31
  244.92        3344.50           6784       15867.00     69278.99
  244.94        3344.75           6788       14154.00     61784.21
  244.97        3345.00           6791       12858.00     56116.00
  245.00        3345.25           6795       11152.00     48657.35
  245.03        3345.50           6799        8710.00     37986.33
  245.05        3345.75           6803        6598.00     28762.47
  245.08        3346.00           6806        5388.00     23480.12
  245.11        3346.25           6810        3859.00     16807.39
  245.13        3346.50           6814        2614.00     11375.90
  245.16        3346.75           6818        1710.00      7433.11
  245.19        3347.00           6821        1254.00      5444.60
  245.22        3347.25           6825         478.00      2061.15
  245.24        3347.50           6829         118.00       491.72
  245.27        3347.75           6833          34.00       125.55
  245.30        3348.00           6836          35.00       129.90
  245.33        3348.25           6840          33.00       121.19
  245.35        3348.50           6844          35.00       129.90
  245.38        3348.75           6848          31.00       112.47
  245.41        3349.00           6851          30.00       108.11
  245.43        3349.25           6855          30.00       108.11
  245.46        3349.50           6859          36.00       134.26
  245.49        3349.75           6863          32.00       116.83
  245.52        3350.00           6867          31.00       112.47
  245.54        3350.25           6870          34.00       125.55
  245.57        3350.50           6874          25.00        86.31
  245.60        3350.75           6878          34.00       125.55
  245.62        3351.00           6882          34.00       125.55
HL scan finished at 04:06:15
end
