************************************************************
  HL Scan of (1) Internal mercury lamp
************************************************************
Integration time is 0.2294 seconds per sample
dh081018Tamanrasset 22.79-5.529 4.974364pr865
************************************************************
Dead Time -------------------------  2.8E-08 
Number of Cycles Used -------------  4 
Starting Wavelength (Angstroms) ---  3331 
Final Wavelength (Angstoms) -------  3351 
Wavelength Increment (Angstroms) --  .25 
Filter Wheel #1 Position ---------- (1) Ground quartz diffuser (ND=2.32)
Filter Wheel #2 Position ---------- (0) Clear Aperture



************************************************************
HL scan start time = 04:01:08
Dark Count =  2.9 


Time (GMT)  Wavelength (Ang)  Step Number  Raw Counts  Counts/Second

  241.64        3331.00           6581          29.00       113.78
  241.86        3331.25           6585          31.00       122.49
  241.89        3331.50           6589          32.00       126.85
  241.92        3331.75           6593          30.00       118.13
  241.94        3332.00           6596          34.00       135.57
  241.97        3332.25           6600          35.00       139.93
  242.00        3332.50           6604          33.00       131.21
  242.03        3332.75           6608          27.00       105.06
  242.05        3333.00           6611          32.00       126.85
  242.08        3333.25           6615          26.00       100.70
  242.11        3333.50           6619          36.00       144.29
  242.13        3333.75           6623          31.00       122.49
  242.16        3334.00           6626          26.00       100.70
  242.19        3334.25           6630          23.00        87.62
  242.22        3334.50           6634          27.00       105.06
  242.24        3334.75           6638          26.00       100.70
  242.27        3335.00           6641          33.00       131.21
  242.30        3335.25           6645          32.00       126.85
  242.32        3335.50           6649          34.00       135.57
  242.35        3335.75           6653          44.00       179.16
  242.38        3336.00           6656          87.00       366.61
  242.41        3336.25           6660         304.00      1312.60
  242.43        3336.50           6664         854.00      3710.50
  242.46        3336.75           6668        1258.00      5472.07
  242.49        3337.00           6671        1778.00      7739.69
  242.51        3337.25           6675        3238.00     14108.01
  242.54        3337.50           6679        4815.00     20989.23
  242.57        3337.75           6683        6506.00     28370.83
  242.60        3338.00           6686        7668.00     33444.99
  242.62        3338.25           6690        9430.00     41141.96
  242.65        3338.50           6694       11061.00     48269.64
  242.68        3338.75           6698       12737.00     55596.94
  242.71        3339.00           6701       14044.00     61313.11
  242.73        3339.25           6705       15733.00     68702.65
  242.76        3339.50           6709       17510.00     76480.52
  242.79        3339.75           6713       19348.00     84528.94
  242.82        3340.00           6716       20609.00     90052.84
  242.84        3340.25           6720       22126.00     96700.44
  242.87        3340.50           6724       23810.00    104082.80
  242.90        3340.75           6728       25456.00    111301.40
  242.92        3341.00           6731       26652.00    116548.40
  242.95        3341.25           6735       27940.00    122200.80
  242.98        3341.50           6739       29117.00    127367.60
  243.01        3341.75           6743       29506.00    129075.50
  243.03        3342.00           6746       29646.00    129690.20
  243.06        3342.25           6750       29169.00    127595.90
  243.09        3342.50           6754       28162.00    123175.20
  243.12        3342.75           6758       26203.00    114578.40
  243.14        3343.00           6761       25254.00    110415.40
  243.17        3343.25           6765       23596.00    103144.50
  243.20        3343.50           6769       22104.00     96604.02
  243.23        3343.75           6773       20359.00     88957.56
  243.25        3344.00           6776       19036.00     83162.47
  243.28        3344.25           6780       17422.00     76095.27
  243.31        3344.50           6784       15674.00     68444.48
  243.33        3344.75           6788       13879.00     60591.38
  243.36        3345.00           6791       12537.00     54722.40
  243.39        3345.25           6795       10814.00     47190.03
  243.42        3345.50           6799        8325.00     36314.59
  243.44        3345.75           6803        6255.00     27274.97
  243.47        3346.00           6806        4997.00     21783.56
  243.50        3346.25           6810        3463.00     15089.64
  243.53        3346.50           6814        2568.00     11185.28
  243.55        3346.75           6818        1691.00      7360.28
  243.58        3347.00           6821        1044.00      4538.94
  243.61        3347.25           6825         332.00      1434.67
  243.63        3347.50           6829          72.00       301.22
  243.66        3347.75           6833          41.00       166.09
  243.69        3348.00           6836          36.00       144.29
  243.72        3348.25           6840          33.00       131.21
  243.74        3348.50           6844          32.00       126.85
  243.77        3348.75           6848          30.00       118.13
  243.80        3349.00           6851          33.00       131.21
  243.83        3349.25           6855          28.00       109.42
  243.85        3349.50           6859          29.00       113.78
  243.88        3349.75           6863          30.00       118.13
  243.91        3350.00           6867          35.00       139.93
  243.93        3350.25           6870          36.00       144.29
  243.96        3350.50           6874          33.00       131.21
  243.99        3350.75           6878          33.00       131.21
  244.02        3351.00           6882          35.00       139.93
HL scan finished at 04:04:38
end
