************************************************************
  HL Scan of (1) Internal mercury lamp
************************************************************
Integration time is 0.2294 seconds per sample
dh151018Tamanrasset 22.79-5.529 4.974364pr865
************************************************************
Dead Time -------------------------  2.8E-08 
Number of Cycles Used -------------  4 
Starting Wavelength (Angstroms) ---  3331 
Final Wavelength (Angstoms) -------  3351 
Wavelength Increment (Angstroms) --  .25 
Filter Wheel #1 Position ---------- (1) Ground quartz diffuser (ND=2.32)
Filter Wheel #2 Position ---------- (0) Clear Aperture



************************************************************
HL scan start time = 04:04:14
Dark Count =  6.2 


Time (GMT)  Wavelength (Ang)  Step Number  Raw Counts  Counts/Second

  244.75        3331.00           6581          22.00        68.88
  244.97        3331.25           6585          33.00       116.83
  244.99        3331.50           6589          31.00       108.11
  245.02        3331.75           6593          30.00       103.75
  245.05        3332.00           6596          27.00        90.67
  245.07        3332.25           6600          27.00        90.67
  245.10        3332.50           6604          36.00       129.90
  245.13        3332.75           6608          31.00       108.11
  245.16        3333.00           6611          24.00        77.59
  245.18        3333.25           6615          38.00       138.62
  245.21        3333.50           6619          26.00        86.31
  245.24        3333.75           6623          30.00       103.75
  245.26        3334.00           6626          31.00       108.11
  245.29        3334.25           6630          30.00       103.75
  245.32        3334.50           6634          29.00        99.39
  245.35        3334.75           6638          27.00        90.67
  245.37        3335.00           6641          31.00       108.11
  245.40        3335.25           6645          33.00       116.83
  245.43        3335.50           6649          33.00       116.83
  245.46        3335.75           6653          39.00       142.98
  245.48        3336.00           6656         100.00       408.90
  245.51        3336.25           6660         314.00      1341.81
  245.54        3336.50           6664         816.00      3530.43
  245.56        3336.75           6668        1169.00      5069.60
  245.59        3337.00           6671        1700.00      7385.14
  245.62        3337.25           6675        3113.00     13548.30
  245.65        3337.50           6679        4719.00     20555.86
  245.67        3337.75           6683        6317.00     27531.24
  245.70        3338.00           6686        7641.00     33312.67
  245.73        3338.25           6690        9485.00     41367.85
  245.75        3338.50           6694       11278.00     49203.75
  245.78        3338.75           6698       12765.00     55704.96
  245.81        3339.00           6701       14151.00     61766.71
  245.84        3339.25           6705       15923.00     69519.68
  245.86        3339.50           6709       17645.00     77057.10
  245.89        3339.75           6713       19399.00     84737.88
  245.92        3340.00           6716       20493.00     89530.18
  245.95        3340.25           6720       22371.00     97759.82
  245.97        3340.50           6724       24066.00    105190.80
  246.00        3340.75           6728       25903.00    113247.80
  246.03        3341.00           6731       26934.00    117771.40
  246.06        3341.25           6735       28254.00    123564.50
  246.08        3341.50           6739       29347.00    128362.90
  246.11        3341.75           6743       29996.00    131212.70
  246.14        3342.00           6746       30072.00    131546.40
  246.16        3342.25           6750       29787.00    130294.90
  246.19        3342.50           6754       28787.00    125904.30
  246.22        3342.75           6758       26975.00    117951.30
  246.25        3343.00           6761       25752.00    112585.40
  246.27        3343.25           6765       24151.00    105563.50
  246.30        3343.50           6769       22556.00     98570.72
  246.33        3343.75           6773       20896.00     91295.86
  246.36        3344.00           6776       19519.00     85263.48
  246.38        3344.25           6780       18017.00     78685.81
  246.41        3344.50           6784       16011.00     69904.78
  246.44        3344.75           6788       14363.00     62694.10
  246.47        3345.00           6791       12876.00     56190.34
  246.49        3345.25           6795       11126.00     48539.34
  246.52        3345.50           6799        8743.00     38126.12
  246.55        3345.75           6803        6458.00     28146.85
  246.57        3346.00           6806        5187.00     22598.43
  246.60        3346.25           6810        3825.00     16654.67
  246.63        3346.50           6814        2844.00     12374.82
  246.66        3346.75           6818        1778.00      7725.30
  246.68        3347.00           6821        1134.00      4916.98
  246.71        3347.25           6825         361.00      1546.71
  246.74        3347.50           6829          80.00       321.71
  246.77        3347.75           6833          37.00       134.26
  246.79        3348.00           6836          35.00       125.55
  246.82        3348.25           6840          33.00       116.83
  246.85        3348.50           6844          33.00       116.83
  246.87        3348.75           6848          36.00       129.90
  246.90        3349.00           6851          30.00       103.75
  246.93        3349.25           6855          30.00       103.75
  246.96        3349.50           6859          29.00        99.39
  246.98        3349.75           6863          32.00       112.47
  247.01        3350.00           6867          35.00       125.55
  247.04        3350.25           6870          35.00       125.55
  247.06        3350.50           6874          34.00       121.19
  247.09        3350.75           6878          38.00       138.62
  247.12        3351.00           6882          28.00        95.03
HL scan finished at 04:07:44
end
