************************************************************
  HL Scan of (1) Internal mercury lamp
************************************************************
Integration time is 0.2294 seconds per sample
dh201018Tamanrasset 22.79-5.529 4.974364pr865
************************************************************
Dead Time -------------------------  2.8E-08 
Number of Cycles Used -------------  4 
Starting Wavelength (Angstroms) ---  3331 
Final Wavelength (Angstoms) -------  3351 
Wavelength Increment (Angstroms) --  .25 
Filter Wheel #1 Position ---------- (1) Ground quartz diffuser (ND=2.32)
Filter Wheel #2 Position ---------- (0) Clear Aperture



************************************************************
HL scan start time = 04:06:02
Dark Count =  5.4 


Time (GMT)  Wavelength (Ang)  Step Number  Raw Counts  Counts/Second

  246.55        3331.00           6581          33.00       120.31
  246.77        3331.25           6585          28.00        98.52
  246.79        3331.50           6589          29.00       102.88
  246.82        3331.75           6593          35.00       129.03
  246.85        3332.00           6596          28.00        98.52
  246.88        3332.25           6600          29.00       102.88
  246.90        3332.50           6604          32.00       115.96
  246.93        3332.75           6608          32.00       115.96
  246.96        3333.00           6611          31.00       111.60
  246.98        3333.25           6615          26.00        89.80
  247.01        3333.50           6619          26.00        89.80
  247.04        3333.75           6623          30.00       107.24
  247.07        3334.00           6626          36.00       133.39
  247.09        3334.25           6630          24.00        81.08
  247.12        3334.50           6634          28.00        98.52
  247.15        3334.75           6638          33.00       120.31
  247.17        3335.00           6641          31.00       111.60
  247.20        3335.25           6645          39.00       146.47
  247.23        3335.50           6649          34.00       124.67
  247.26        3335.75           6653          42.00       159.55
  247.28        3336.00           6656          86.00       351.35
  247.31        3336.25           6660         281.00      1201.44
  247.34        3336.50           6664         857.00      3712.68
  247.36        3336.75           6668        1284.00      5574.54
  247.39        3337.00           6671        1899.00      8256.49
  247.42        3337.25           6675        3347.00     14572.64
  247.45        3337.50           6679        5035.00     21938.50
  247.47        3337.75           6683        6821.00     29735.30
  247.50        3338.00           6686        8296.00     36177.00
  247.53        3338.25           6690        9999.00     43617.32
  247.56        3338.50           6694       11875.00     51817.07
  247.58        3338.75           6698       13690.00     59753.77
  247.61        3339.00           6701       15068.00     65781.90
  247.64        3339.25           6705       16957.00     74048.76
  247.66        3339.50           6709       18812.00     82170.54
  247.69        3339.75           6713       20560.00     89827.21
  247.72        3340.00           6716       22031.00     96273.12
  247.75        3340.25           6720       23777.00    103927.10
  247.77        3340.50           6724       25825.00    112909.10
  247.80        3340.75           6728       27490.00    120214.80
  247.83        3341.00           6731       28754.00    125762.90
  247.86        3341.25           6735       30411.00    133038.70
  247.88        3341.50           6739       31425.00    137492.60
  247.91        3341.75           6743       32015.00    140084.60
  247.94        3342.00           6746       31923.00    139680.40
  247.97        3342.25           6750       31482.00    137743.00
  247.99        3342.50           6754       30511.00    133477.90
  248.02        3342.75           6758       28560.00    124911.30
  248.05        3343.00           6761       27315.00    119446.80
  248.08        3343.25           6765       25585.00    111856.30
  248.10        3343.50           6769       23901.00    104470.80
  248.13        3343.75           6773       21944.00     95891.82
  248.16        3344.00           6776       20378.00     89029.86
  248.18        3344.25           6780       18861.00     82385.12
  248.21        3344.50           6784       16882.00     73720.45
  248.24        3344.75           6788       15145.00     66118.81
  248.27        3345.00           6791       13686.00     59736.28
  248.29        3345.25           6795       11662.00     50885.88
  248.32        3345.50           6799        8921.00     38907.23
  248.35        3345.75           6803        6718.00     29285.56
  248.38        3346.00           6806        5364.00     23374.49
  248.40        3346.25           6810        3684.00     16042.95
  248.43        3346.50           6814        2710.00     11793.78
  248.46        3346.75           6818        1776.00      7720.06
  248.49        3347.00           6821        1115.00      4837.62
  248.51        3347.25           6825         376.00      1615.59
  248.54        3347.50           6829          77.00       312.12
  248.57        3347.75           6833          33.00       120.31
  248.59        3348.00           6836          36.00       133.39
  248.62        3348.25           6840          34.00       124.67
  248.65        3348.50           6844          29.00       102.88
  248.67        3348.75           6848          36.00       133.39
  248.70        3349.00           6851          33.00       120.31
  248.73        3349.25           6855          30.00       107.24
  248.76        3349.50           6859          39.00       146.47
  248.78        3349.75           6863          29.00       102.88
  248.81        3350.00           6867          37.00       137.75
  248.84        3350.25           6870          32.00       115.96
  248.86        3350.50           6874          34.00       124.67
  248.89        3350.75           6878          32.00       115.96
  248.92        3351.00           6882          35.00       129.03
HL scan finished at 04:09:33
end
