************************************************************
  HL Scan of (1) Internal mercury lamp
************************************************************
Integration time is 0.2294 seconds per sample
dh211018Tamanrasset 22.79-5.529 4.974364pr865
************************************************************
Dead Time -------------------------  2.8E-08 
Number of Cycles Used -------------  4 
Starting Wavelength (Angstroms) ---  3331 
Final Wavelength (Angstoms) -------  3351 
Wavelength Increment (Angstroms) --  .25 
Filter Wheel #1 Position ---------- (1) Ground quartz diffuser (ND=2.32)
Filter Wheel #2 Position ---------- (0) Clear Aperture



************************************************************
HL scan start time = 04:06:35
Dark Count =  6.2 


Time (GMT)  Wavelength (Ang)  Step Number  Raw Counts  Counts/Second

  247.10        3331.00           6581          30.00       103.75
  247.32        3331.25           6585          32.00       112.47
  247.34        3331.50           6589          25.00        81.95
  247.37        3331.75           6593          25.00        81.95
  247.40        3332.00           6596          33.00       116.83
  247.43        3332.25           6600          26.00        86.31
  247.45        3332.50           6604          37.00       134.26
  247.48        3332.75           6608          29.00        99.39
  247.51        3333.00           6611          36.00       129.90
  247.53        3333.25           6615          30.00       103.75
  247.56        3333.50           6619          31.00       108.11
  247.59        3333.75           6623          32.00       112.47
  247.62        3334.00           6626          32.00       112.47
  247.64        3334.25           6630          34.00       121.19
  247.67        3334.50           6634          27.00        90.67
  247.70        3334.75           6638          31.00       108.11
  247.72        3335.00           6641          32.00       112.47
  247.75        3335.25           6645          35.00       125.55
  247.78        3335.50           6649          38.00       138.62
  247.81        3335.75           6653          44.00       164.78
  247.83        3336.00           6656          91.00       369.66
  247.86        3336.25           6660         353.00      1511.83
  247.89        3336.50           6664         925.00      4005.68
  247.91        3336.75           6668        1507.00      6543.48
  247.94        3337.00           6671        1981.00      8610.62
  247.97        3337.25           6675        3611.00     15720.96
  248.00        3337.50           6679        5440.00     23702.74
  248.02        3337.75           6683        7343.00     32011.24
  248.05        3338.00           6686        8744.00     38130.49
  248.08        3338.25           6690       10715.00     46742.92
  248.10        3338.50           6694       12801.00     55862.38
  248.13        3338.75           6698       14738.00     64334.62
  248.16        3339.00           6701       16224.00     70836.96
  248.19        3339.25           6705       18141.00     79228.75
  248.21        3339.50           6709       20043.00     87558.78
  248.24        3339.75           6713       22112.00     96624.62
  248.27        3340.00           6716       23578.00    103051.10
  248.30        3340.25           6720       25473.00    111361.50
  248.32        3340.50           6724       27500.00    120255.20
  248.35        3340.75           6728       29321.00    128248.70
  248.38        3341.00           6731       30703.00    134317.60
  248.41        3341.25           6735       32199.00    140889.50
  248.43        3341.50           6739       33675.00    147375.90
  248.46        3341.75           6743       34231.00    149819.90
  248.49        3342.00           6746       34367.00    150417.70
  248.51        3342.25           6750       33770.00    147793.40
  248.54        3342.50           6754       32605.00    142673.40
  248.57        3342.75           6758       30617.00    133939.90
  248.60        3343.00           6761       29421.00    128687.80
  248.62        3343.25           6765       27398.00    119807.50
  248.65        3343.50           6769       25805.00    112817.90
  248.68        3343.75           6773       23633.00    103292.20
  248.71        3344.00           6776       22164.00     96852.54
  248.73        3344.25           6780       20250.00     88465.60
  248.76        3344.50           6784       18245.00     79684.13
  248.79        3344.75           6788       16264.00     71012.03
  248.82        3345.00           6791       14449.00     63070.31
  248.84        3345.25           6795       12330.00     53802.88
  248.87        3345.50           6799        9819.00     42827.26
  248.90        3345.75           6803        7398.00     32251.43
  248.92        3346.00           6806        6014.00     26208.42
  248.95        3346.25           6810        4164.00     18133.88
  248.98        3346.50           6814        2862.00     12453.34
  249.01        3346.75           6818        1958.00      8510.31
  249.03        3347.00           6821        1294.00      5614.66
  249.06        3347.25           6825         421.00      1808.29
  249.09        3347.50           6829         103.00       421.98
  249.12        3347.75           6833          37.00       134.26
  249.14        3348.00           6836          37.00       134.26
  249.17        3348.25           6840          38.00       138.62
  249.20        3348.50           6844          28.00        95.03
  249.22        3348.75           6848          35.00       125.55
  249.25        3349.00           6851          38.00       138.62
  249.28        3349.25           6855          33.00       116.83
  249.31        3349.50           6859          33.00       116.83
  249.33        3349.75           6863          34.00       121.19
  249.36        3350.00           6867          33.00       116.83
  249.39        3350.25           6870          40.00       147.34
  249.42        3350.50           6874          39.00       142.98
  249.44        3350.75           6878          36.00       129.90
  249.47        3351.00           6882          35.00       125.55
HL scan finished at 04:10:06
end
