************************************************************
  HL Scan of (1) Internal mercury lamp
************************************************************
Integration time is 0.2294 seconds per sample
dh261018Tamanrasset 22.79-5.529 4.974364pr865
************************************************************
Dead Time -------------------------  2.8E-08 
Number of Cycles Used -------------  4 
Starting Wavelength (Angstroms) ---  3331 
Final Wavelength (Angstoms) -------  3351 
Wavelength Increment (Angstroms) --  .25 
Filter Wheel #1 Position ---------- (1) Ground quartz diffuser (ND=2.32)
Filter Wheel #2 Position ---------- (0) Clear Aperture



************************************************************
HL scan start time = 04:08:51
Dark Count =  3.1 


Time (GMT)  Wavelength (Ang)  Step Number  Raw Counts  Counts/Second

  249.36        3331.00           6581          33.00       130.34
  249.58        3331.25           6585          25.00        95.47
  249.61        3331.50           6589          32.00       125.98
  249.63        3331.75           6593          34.00       134.70
  249.66        3332.00           6596          28.00       108.54
  249.69        3332.25           6600          29.00       112.90
  249.72        3332.50           6604          26.00        99.83
  249.74        3332.75           6608          31.00       121.62
  249.77        3333.00           6611          30.00       117.26
  249.80        3333.25           6615          24.00        91.11
  249.83        3333.50           6619          31.00       121.62
  249.85        3333.75           6623          30.00       117.26
  249.88        3334.00           6626          30.00       117.26
  249.91        3334.25           6630          35.00       139.06
  249.93        3334.50           6634          32.00       125.98
  249.96        3334.75           6638          31.00       121.62
  249.99        3335.00           6641          27.00       104.19
  250.02        3335.25           6645          33.00       130.34
  250.04        3335.50           6649          33.00       130.34
  250.07        3335.75           6653          36.00       143.42
  250.10        3336.00           6656          48.00       195.73
  250.12        3336.25           6660         139.00       592.42
  250.15        3336.50           6664         408.00      1765.13
  250.18        3336.75           6668         744.00      3230.02
  250.21        3337.00           6671        1052.00      4572.95
  250.23        3337.25           6675        2159.00      9400.47
  250.26        3337.50           6679        3605.00     15708.30
  250.29        3337.75           6683        5044.00     21987.82
  250.31        3338.00           6686        6345.00     27667.02
  250.34        3338.25           6690        7880.00     34370.03
  250.37        3338.50           6694        9458.00     41263.43
  250.40        3338.75           6698       11121.00     48531.03
  250.42        3339.00           6701       12248.00     53457.91
  250.45        3339.25           6705       13845.00     60441.80
  250.48        3339.50           6709       15454.00     67480.91
  250.51        3339.75           6713       17076.00     74579.74
  250.53        3340.00           6716       18311.00     79986.71
  250.56        3340.25           6720       20039.00     87554.84
  250.59        3340.50           6724       21614.00     94455.68
  250.62        3340.75           6728       23329.00    101973.00
  250.64        3341.00           6731       24233.00    105936.70
  250.67        3341.25           6735       25651.00    112155.90
  250.70        3341.50           6739       26815.00    117262.80
  250.72        3341.75           6743       27873.00    121905.80
  250.75        3342.00           6746       27914.00    122085.80
  250.78        3342.25           6750       27741.00    121326.50
  250.81        3342.50           6754       27353.00    119623.60
  250.83        3342.75           6758       26212.00    114617.00
  250.86        3343.00           6761       24767.00    108278.50
  250.89        3343.25           6765       23329.00    101973.00
  250.92        3343.50           6769       21798.00     95262.05
  250.94        3343.75           6773       20321.00     88790.22
  250.97        3344.00           6776       19059.00     83262.34
  251.00        3344.25           6780       17519.00     76519.05
  251.02        3344.50           6784       15870.00     69301.31
  251.05        3344.75           6788       14096.00     61539.69
  251.08        3345.00           6791       13081.00     57100.38
  251.11        3345.25           6795       11427.00     49868.63
  251.13        3345.50           6799        8895.00     38803.69
  251.16        3345.75           6803        7079.00     30871.92
  251.19        3346.00           6806        5992.00     26125.91
  251.21        3346.25           6810        4473.00     19495.82
  251.24        3346.50           6814        2964.00     12911.82
  251.27        3346.75           6818        2271.00      9888.96
  251.30        3347.00           6821        1600.00      6962.56
  251.32        3347.25           6825         697.00      3025.10
  251.35        3347.50           6829         201.00       862.71
  251.38        3347.75           6833          50.00       204.45
  251.41        3348.00           6836          36.00       143.42
  251.43        3348.25           6840          34.00       134.70
  251.46        3348.50           6844          27.00       104.19
  251.49        3348.75           6848          27.00       104.19
  251.51        3349.00           6851          27.00       104.19
  251.54        3349.25           6855          35.00       139.06
  251.57        3349.50           6859          31.00       121.62
  251.60        3349.75           6863          32.00       125.98
  251.62        3350.00           6867          33.00       130.34
  251.65        3350.25           6870          31.00       121.62
  251.68        3350.50           6874          28.00       108.54
  251.70        3350.75           6878          25.00        95.47
  251.73        3351.00           6882          28.00       108.54
HL scan finished at 04:12:21
end
