************************************************************
  HL Scan of (1) Internal mercury lamp
************************************************************
Integration time is 0.2294 seconds per sample
dh171018Tamanrasset 22.79-5.529 4.974364pr865
************************************************************
Dead Time -------------------------  2.8E-08 
Number of Cycles Used -------------  4 
Starting Wavelength (Angstroms) ---  3331 
Final Wavelength (Angstoms) -------  3351 
Wavelength Increment (Angstroms) --  .25 
Filter Wheel #1 Position ---------- (1) Ground quartz diffuser (ND=2.32)
Filter Wheel #2 Position ---------- (0) Clear Aperture



************************************************************
HL scan start time = 04:04:34
Dark Count =  4.1 


Time (GMT)  Wavelength (Ang)  Step Number  Raw Counts  Counts/Second

  245.07        3331.00           6581          26.00        95.47
  245.29        3331.25           6585          33.00       125.98
  245.32        3331.50           6589          34.00       130.34
  245.35        3331.75           6593          23.00        82.39
  245.37        3332.00           6596          28.00       104.19
  245.40        3332.25           6600          31.00       117.26
  245.43        3332.50           6604          28.00       104.19
  245.46        3332.75           6608          26.00        95.47
  245.48        3333.00           6611          31.00       117.26
  245.51        3333.25           6615          30.00       112.90
  245.54        3333.50           6619          34.00       130.34
  245.56        3333.75           6623          29.00       108.54
  245.59        3334.00           6626          24.00        86.75
  245.62        3334.25           6630          30.00       112.90
  245.65        3334.50           6634          29.00       108.54
  245.67        3334.75           6638          30.00       112.90
  245.70        3335.00           6641          34.00       130.34
  245.73        3335.25           6645          32.00       121.62
  245.76        3335.50           6649          37.00       143.42
  245.78        3335.75           6653          50.00       200.09
  245.81        3336.00           6656         115.00       483.44
  245.84        3336.25           6660         322.00      1385.84
  245.86        3336.50           6664         663.00      2872.51
  245.89        3336.75           6668        1251.00      5436.31
  245.92        3337.00           6671        1982.00      8624.14
  245.95        3337.25           6675        3386.00     14748.46
  245.97        3337.50           6679        5025.00     21900.52
  246.00        3337.75           6683        6718.00     29291.23
  246.03        3338.00           6686        8061.00     35156.21
  246.06        3338.25           6690        9837.00     42915.10
  246.08        3338.50           6694       11581.00     50537.47
  246.11        3338.75           6698       13209.00     57655.78
  246.14        3339.00           6701       14431.00     63000.76
  246.16        3339.25           6705       16302.00     71187.53
  246.19        3339.50           6709       18134.00     79207.30
  246.22        3339.75           6713       19680.00     85977.88
  246.25        3340.00           6716       21036.00     91918.49
  246.27        3340.25           6720       22829.00     99776.62
  246.30        3340.50           6724       24466.00    106954.10
  246.33        3340.75           6728       26217.00    114634.60
  246.36        3341.00           6731       27553.00    120497.00
  246.38        3341.25           6735       28813.00    126027.70
  246.41        3341.50           6739       29965.00    131085.80
  246.44        3341.75           6743       30471.00    133307.90
  246.47        3342.00           6746       30521.00    133527.50
  246.49        3342.25           6750       30163.00    131955.30
  246.52        3342.50           6754       28893.00    126378.90
  246.55        3342.75           6758       27056.00    118315.90
  246.58        3343.00           6761       25845.00    113002.60
  246.60        3343.25           6765       24269.00    106090.20
  246.63        3343.50           6769       22583.00     98698.28
  246.66        3343.75           6773       20869.00     91186.75
  246.69        3344.00           6776       19490.00     85145.65
  246.71        3344.25           6780       17905.00     78204.63
  246.74        3344.50           6784       16092.00     70268.46
  246.77        3344.75           6788       14303.00     62440.82
  246.79        3345.00           6791       12833.00     56011.49
  246.82        3345.25           6795       10854.00     47359.62
  246.85        3345.50           6799        8579.00     37418.88
  246.88        3345.75           6803        6319.00     27549.14
  246.90        3346.00           6806        5083.00     22153.67
  246.93        3346.25           6810        3523.00     15346.17
  246.96        3346.50           6814        2683.00     11681.68
  246.98        3346.75           6818        1708.00      7429.18
  247.01        3347.00           6821         937.00      4067.16
  247.04        3347.25           6825         302.00      1298.65
  247.07        3347.50           6829          67.00       274.20
  247.09        3347.75           6833          37.00       143.42
  247.12        3348.00           6836          38.00       147.78
  247.15        3348.25           6840          33.00       125.98
  247.18        3348.50           6844          33.00       125.98
  247.20        3348.75           6848          37.00       143.42
  247.23        3349.00           6851          28.00       104.19
  247.26        3349.25           6855          35.00       134.70
  247.28        3349.50           6859          31.00       117.26
  247.31        3349.75           6863          34.00       130.34
  247.34        3350.00           6867          31.00       117.26
  247.37        3350.25           6870          31.00       117.26
  247.39        3350.50           6874          35.00       134.70
  247.42        3350.75           6878          33.00       125.98
  247.45        3351.00           6882          30.00       112.90
HL scan finished at 04:08:04
end
