************************************************************
  HL Scan of (1) Internal mercury lamp
************************************************************
Integration time is 0.2294 seconds per sample
dh241018Tamanrasset 22.79-5.529 4.974364pr865
************************************************************
Dead Time -------------------------  2.8E-08 
Number of Cycles Used -------------  4 
Starting Wavelength (Angstroms) ---  3331 
Final Wavelength (Angstoms) -------  3351 
Wavelength Increment (Angstroms) --  .25 
Filter Wheel #1 Position ---------- (1) Ground quartz diffuser (ND=2.32)
Filter Wheel #2 Position ---------- (0) Clear Aperture



************************************************************
HL scan start time = 04:08:03
Dark Count =  4.4 


Time (GMT)  Wavelength (Ang)  Step Number  Raw Counts  Counts/Second

  248.57        3331.00           6581          30.00       111.60
  248.79        3331.25           6585          25.00        89.80
  248.81        3331.50           6589          26.00        94.16
  248.84        3331.75           6593          31.00       115.96
  248.87        3332.00           6596          30.00       111.60
  248.90        3332.25           6600          36.00       137.75
  248.92        3332.50           6604          36.00       137.75
  248.95        3332.75           6608          30.00       111.60
  248.98        3333.00           6611          31.00       115.96
  249.00        3333.25           6615          25.00        89.80
  249.03        3333.50           6619          28.00       102.88
  249.06        3333.75           6623          26.00        94.16
  249.09        3334.00           6626          33.00       124.67
  249.11        3334.25           6630          32.00       120.31
  249.14        3334.50           6634          32.00       120.31
  249.17        3334.75           6638          32.00       120.31
  249.19        3335.00           6641          32.00       120.31
  249.22        3335.25           6645          39.00       150.83
  249.25        3335.50           6649          34.00       129.03
  249.28        3335.75           6653          44.00       172.63
  249.30        3336.00           6656         117.00       490.85
  249.33        3336.25           6660         387.00      1667.91
  249.36        3336.50           6664        1017.00      4414.67
  249.39        3336.75           6668        1633.00      7100.80
  249.41        3337.00           6671        2117.00      9211.62
  249.44        3337.25           6675        3708.00     16152.03
  249.47        3337.50           6679        5463.00     23810.99
  249.49        3337.75           6683        7188.00     31342.23
  249.52        3338.00           6686        8573.00     37391.35
  249.55        3338.25           6690       10438.00     45540.16
  249.58        3338.50           6694       12158.00     53058.72
  249.60        3338.75           6698       14011.00     61162.20
  249.63        3339.00           6701       15289.00     66753.25
  249.66        3339.25           6705       17225.00     75226.29
  249.69        3339.50           6709       19158.00     83690.22
  249.71        3339.75           6713       20915.00     91386.99
  249.74        3340.00           6716       22499.00     98328.76
  249.77        3340.25           6720       24241.00    105966.10
  249.80        3340.50           6724       26078.00    114023.50
  249.82        3340.75           6728       27740.00    121316.40
  249.85        3341.00           6731       29116.00    127356.60
  249.88        3341.25           6735       30436.00    133152.90
  249.91        3341.50           6739       31302.00    136956.60
  249.93        3341.75           6743       32029.00    140150.50
  249.96        3342.00           6746       32066.00    140313.00
  249.99        3342.25           6750       31546.00    138028.50
  250.01        3342.50           6754       30166.00    131967.10
  250.04        3342.75           6758       28364.00    124055.30
  250.07        3343.00           6761       26906.00    117656.40
  250.10        3343.25           6765       25031.00    109430.70
  250.12        3343.50           6769       23508.00    102752.00
  250.15        3343.75           6773       21864.00     95545.59
  250.18        3344.00           6776       20342.00     88876.52
  250.21        3344.25           6780       18579.00     81154.56
  250.23        3344.50           6784       16650.00     72709.35
  250.26        3344.75           6788       14827.00     64731.87
  250.29        3345.00           6791       13463.00     58765.32
  250.32        3345.25           6795       11679.00     50964.57
  250.34        3345.50           6799        8934.00     38968.39
  250.37        3345.75           6803        6539.00     28508.36
  250.40        3346.00           6806        5142.00     22409.87
  250.42        3346.25           6810        3612.00     15733.17
  250.45        3346.50           6814        2632.00     11457.91
  250.48        3346.75           6818        1639.00      7126.97
  250.51        3347.00           6821        1001.00      4344.91
  250.53        3347.25           6825         285.00      1223.23
  250.56        3347.50           6829          71.00       290.32
  250.59        3347.75           6833          31.00       115.96
  250.62        3348.00           6836          33.00       124.67
  250.64        3348.25           6840          38.00       146.47
  250.67        3348.50           6844          36.00       137.75
  250.70        3348.75           6848          30.00       111.60
  250.72        3349.00           6851          33.00       124.67
  250.75        3349.25           6855          30.00       111.60
  250.78        3349.50           6859          35.00       133.39
  250.81        3349.75           6863          33.00       124.67
  250.83        3350.00           6867          32.00       120.31
  250.86        3350.25           6870          31.00       115.96
  250.89        3350.50           6874          29.00       107.24
  250.91        3350.75           6878          37.00       142.11
  250.94        3351.00           6882          30.00       111.60
HL scan finished at 04:11:34
end
