************************************************************
  HL Scan of (1) Internal mercury lamp
************************************************************
Integration time is 0.2294 seconds per sample
dh181018Tamanrasset 22.79-5.529 4.974364pr865
************************************************************
Dead Time -------------------------  2.8E-08 
Number of Cycles Used -------------  4 
Starting Wavelength (Angstroms) ---  3331 
Final Wavelength (Angstoms) -------  3351 
Wavelength Increment (Angstroms) --  .25 
Filter Wheel #1 Position ---------- (1) Ground quartz diffuser (ND=2.32)
Filter Wheel #2 Position ---------- (0) Clear Aperture



************************************************************
HL scan start time = 04:06:01
Dark Count =  2.6 


Time (GMT)  Wavelength (Ang)  Step Number  Raw Counts  Counts/Second

  246.52        3331.00           6581          32.00       128.16
  246.74        3331.25           6585          31.00       123.80
  246.77        3331.50           6589          30.00       119.44
  246.80        3331.75           6593          30.00       119.44
  246.82        3332.00           6596          28.00       110.72
  246.85        3332.25           6600          30.00       119.44
  246.88        3332.50           6604          28.00       110.72
  246.90        3332.75           6608          29.00       115.08
  246.93        3333.00           6611          30.00       119.44
  246.96        3333.25           6615          34.00       136.88
  246.99        3333.50           6619          31.00       123.80
  247.01        3333.75           6623          34.00       136.88
  247.04        3334.00           6626          30.00       119.44
  247.07        3334.25           6630          26.00       102.01
  247.10        3334.50           6634          34.00       136.88
  247.12        3334.75           6638          31.00       123.80
  247.15        3335.00           6641          32.00       128.16
  247.18        3335.25           6645          36.00       145.60
  247.20        3335.50           6649          42.00       171.75
  247.23        3335.75           6653          38.00       154.32
  247.26        3336.00           6656          78.00       328.69
  247.29        3336.25           6660         310.00      1340.07
  247.31        3336.50           6664         847.00      3681.29
  247.34        3336.75           6668        1479.00      6437.08
  247.37        3337.00           6671        1884.00      8203.28
  247.39        3337.25           6675        3257.00     14192.21
  247.42        3337.50           6679        4932.00     21501.17
  247.45        3337.75           6683        6670.00     29088.20
  247.48        3338.00           6686        7944.00     34651.74
  247.50        3338.25           6690        9859.00     43017.78
  247.53        3338.50           6694       11544.00     50382.28
  247.56        3338.75           6698       13230.00     57754.18
  247.59        3339.00           6701       14605.00     63768.51
  247.61        3339.25           6705       16569.00     72362.69
  247.64        3339.50           6709       18243.00     79691.15
  247.67        3339.75           6713       20101.00     87828.63
  247.69        3340.00           6716       21391.00     93480.64
  247.72        3340.25           6720       23213.00    101466.60
  247.75        3340.50           6724       24826.00    108539.50
  247.78        3340.75           6728       26594.00    116295.30
  247.80        3341.00           6731       27977.00    122364.50
  247.83        3341.25           6735       29370.00    128479.70
  247.86        3341.50           6739       30577.00    133780.00
  247.89        3341.75           6743       31221.00    136608.70
  247.91        3342.00           6746       31141.00    136257.30
  247.94        3342.25           6750       30545.00    133639.50
  247.97        3342.50           6754       29461.00    128879.20
  247.99        3342.75           6758       27521.00    120363.10
  248.02        3343.00           6761       26333.00    115150.10
  248.05        3343.25           6765       24449.00    106886.10
  248.08        3343.50           6769       23143.00    101159.70
  248.10        3343.75           6773       21294.00     93055.57
  248.13        3344.00           6776       20085.00     87758.53
  248.16        3344.25           6780       18322.00     80037.06
  248.19        3344.50           6784       16369.00     71487.34
  248.21        3344.75           6788       14682.00     64105.38
  248.24        3345.00           6791       13204.00     57640.48
  248.27        3345.25           6795       11279.00     49223.86
  248.29        3345.50           6799        8866.00     38679.18
  248.32        3345.75           6803        6650.00     29000.87
  248.35        3346.00           6806        5362.00     23377.99
  248.38        3346.25           6810        3718.00     16203.52
  248.40        3346.50           6814        2592.00     11291.28
  248.43        3346.75           6818        1583.00      6890.61
  248.46        3347.00           6821        1078.00      4688.50
  248.49        3347.25           6825         367.00      1588.56
  248.51        3347.50           6829          92.00       389.72
  248.54        3347.75           6833          37.00       149.96
  248.57        3348.00           6836          36.00       145.60
  248.59        3348.25           6840          33.00       132.52
  248.62        3348.50           6844          37.00       149.96
  248.65        3348.75           6848          30.00       119.44
  248.68        3349.00           6851          30.00       119.44
  248.70        3349.25           6855          34.00       136.88
  248.73        3349.50           6859          34.00       136.88
  248.76        3349.75           6863          36.00       145.60
  248.78        3350.00           6867          36.00       145.60
  248.81        3350.25           6870          35.00       141.24
  248.84        3350.50           6874          34.00       136.88
  248.87        3350.75           6878          32.00       128.16
  248.89        3351.00           6882          32.00       128.16
HL scan finished at 04:09:31
end
