************************************************************
  HL Scan of (1) Internal mercury lamp
************************************************************
Integration time is 0.2294 seconds per sample
dh231018Tamanrasset 22.79-5.529 4.974364pr865
************************************************************
Dead Time -------------------------  2.8E-08 
Number of Cycles Used -------------  4 
Starting Wavelength (Angstroms) ---  3331 
Final Wavelength (Angstoms) -------  3351 
Wavelength Increment (Angstroms) --  .25 
Filter Wheel #1 Position ---------- (1) Ground quartz diffuser (ND=2.32)
Filter Wheel #2 Position ---------- (0) Clear Aperture



************************************************************
HL scan start time = 04:08:11
Dark Count =  4.7 


Time (GMT)  Wavelength (Ang)  Step Number  Raw Counts  Counts/Second

  248.70        3331.00           6581          27.00        97.21
  248.92        3331.25           6585          28.00       101.57
  248.94        3331.50           6589          37.00       140.80
  248.97        3331.75           6593          29.00       105.93
  249.00        3332.00           6596          30.00       110.29
  249.02        3332.25           6600          25.00        88.49
  249.05        3332.50           6604          33.00       123.37
  249.08        3332.75           6608          30.00       110.29
  249.11        3333.00           6611          30.00       110.29
  249.13        3333.25           6615          26.00        92.85
  249.16        3333.50           6619          34.00       127.72
  249.19        3333.75           6623          30.00       110.29
  249.21        3334.00           6626          26.00        92.85
  249.24        3334.25           6630          28.00       101.57
  249.27        3334.50           6634          29.00       105.93
  249.30        3334.75           6638          31.00       114.65
  249.32        3335.00           6641          32.00       119.01
  249.35        3335.25           6645          37.00       140.80
  249.38        3335.50           6649          39.00       149.52
  249.41        3335.75           6653          44.00       171.32
  249.43        3336.00           6656         131.00       550.58
  249.46        3336.25           6660         395.00      1701.48
  249.49        3336.50           6664        1036.00      4496.21
  249.51        3336.75           6668        1652.00      7182.35
  249.54        3337.00           6671        2151.00      9358.60
  249.57        3337.25           6675        3731.00     16251.07
  249.60        3337.50           6679        5559.00     24228.73
  249.62        3337.75           6683        7458.00     32520.01
  249.65        3338.00           6686        8836.00     38538.95
  249.68        3338.25           6690       10652.00     46474.13
  249.71        3338.50           6694       12564.00     54832.60
  249.73        3338.75           6698       14564.00     63579.96
  249.76        3339.00           6701       15853.00     69219.91
  249.79        3339.25           6705       17865.00     78026.87
  249.81        3339.50           6709       19907.00     86969.59
  249.84        3339.75           6713       21699.00     94821.16
  249.87        3340.00           6716       23064.00    100804.20
  249.90        3340.25           6720       24946.00    109056.60
  249.92        3340.50           6724       27065.00    118352.80
  249.95        3340.75           6728       28792.00    125932.80
  249.98        3341.00           6731       30030.00    131368.60
  250.01        3341.25           6735       31444.00    137579.10
  250.03        3341.50           6739       32442.00    141963.80
  250.06        3341.75           6743       33035.00    144569.60
  250.09        3342.00           6746       33040.00    144591.60
  250.11        3342.25           6750       32373.00    141660.60
  250.14        3342.50           6754       31016.00    135699.00
  250.17        3342.75           6758       29257.00    127974.30
  250.20        3343.00           6761       27974.00    122342.10
  250.22        3343.25           6765       25833.00    112947.30
  250.25        3343.50           6769       24573.00    107420.70
  250.28        3343.75           6773       22591.00     98730.72
  250.31        3344.00           6776       20986.00     91696.78
  250.33        3344.25           6780       19304.00     84328.36
  250.36        3344.50           6784       17552.00     76656.51
  250.39        3344.75           6788       15434.00     67386.41
  250.41        3345.00           6791       14019.00     61195.88
  250.44        3345.25           6795       11961.00     52196.11
  250.47        3345.50           6799        9085.00     39626.77
  250.50        3345.75           6803        6859.00     29904.28
  250.52        3346.00           6806        5409.00     23573.97
  250.55        3346.25           6810        3846.00     16752.85
  250.58        3346.50           6814        2826.00     12302.84
  250.61        3346.75           6818        1654.00      7191.07
  250.63        3347.00           6821        1037.00      4500.57
  250.66        3347.25           6825         342.00      1470.42
  250.69        3347.50           6829          77.00       315.17
  250.71        3347.75           6833          44.00       171.32
  250.74        3348.00           6836          32.00       119.01
  250.77        3348.25           6840          33.00       123.37
  250.80        3348.50           6844          36.00       136.44
  250.82        3348.75           6848          29.00       105.93
  250.85        3349.00           6851          30.00       110.29
  250.88        3349.25           6855          33.00       123.37
  250.91        3349.50           6859          33.00       123.37
  250.93        3349.75           6863          38.00       145.16
  250.96        3350.00           6867          33.00       123.37
  250.99        3350.25           6870          38.00       145.16
  251.01        3350.50           6874          37.00       140.80
  251.04        3350.75           6878          32.00       119.01
  251.07        3351.00           6882          36.00       136.44
HL scan finished at 04:11:41
end
