************************************************************
  HL Scan of (1) Internal mercury lamp
************************************************************
Integration time is 0.2294 seconds per sample
dh191018Tamanrasset 22.79-5.529 4.974364pr865
************************************************************
Dead Time -------------------------  2.8E-08 
Number of Cycles Used -------------  4 
Starting Wavelength (Angstroms) ---  3331 
Final Wavelength (Angstoms) -------  3351 
Wavelength Increment (Angstroms) --  .25 
Filter Wheel #1 Position ---------- (1) Ground quartz diffuser (ND=2.32)
Filter Wheel #2 Position ---------- (0) Clear Aperture



************************************************************
HL scan start time = 04:06:03
Dark Count =  4.3 


Time (GMT)  Wavelength (Ang)  Step Number  Raw Counts  Counts/Second

  246.56        3331.00           6581          33.00       125.11
  246.78        3331.25           6585          29.00       107.67
  246.80        3331.50           6589          31.00       116.39
  246.83        3331.75           6593          27.00        98.95
  246.86        3332.00           6596          27.00        98.95
  246.88        3332.25           6600          30.00       112.03
  246.91        3332.50           6604          30.00       112.03
  246.94        3332.75           6608          32.00       120.75
  246.97        3333.00           6611          24.00        85.88
  246.99        3333.25           6615          24.00        85.88
  247.02        3333.50           6619          26.00        94.59
  247.05        3333.75           6623          28.00       103.31
  247.07        3334.00           6626          27.00        98.95
  247.10        3334.25           6630          27.00        98.95
  247.13        3334.50           6634          30.00       112.03
  247.16        3334.75           6638          31.00       116.39
  247.18        3335.00           6641          33.00       125.11
  247.21        3335.25           6645          37.00       142.55
  247.24        3335.50           6649          42.00       164.34
  247.26        3335.75           6653          44.00       173.06
  247.29        3336.00           6656          79.00       325.64
  247.32        3336.25           6660         340.00      1463.44
  247.35        3336.50           6664         920.00      3992.16
  247.37        3336.75           6668        1457.00      6333.73
  247.40        3337.00           6671        1882.00      8187.14
  247.43        3337.25           6675        3351.00     14594.89
  247.45        3337.50           6679        4961.00     21620.33
  247.48        3337.75           6683        6639.00     28945.42
  247.51        3338.00           6686        8013.00     34945.69
  247.54        3338.25           6690        9731.00     42451.05
  247.56        3338.50           6694       11564.00     50462.28
  247.59        3338.75           6698       13287.00     57996.03
  247.62        3339.00           6701       14505.00     63323.60
  247.65        3339.25           6705       16204.00     70757.75
  247.67        3339.50           6709       17911.00     78230.03
  247.70        3339.75           6713       19928.00     87063.33
  247.73        3340.00           6716       21131.00     92333.88
  247.76        3340.25           6720       22706.00     99236.56
  247.78        3340.50           6724       24598.00    107532.10
  247.81        3340.75           6728       26393.00    115405.90
  247.84        3341.00           6731       27423.00    119925.60
  247.86        3341.25           6735       28838.00    126136.50
  247.89        3341.50           6739       29953.00    131032.20
  247.92        3341.75           6743       30449.00    133210.40
  247.95        3342.00           6746       30581.00    133790.20
  247.97        3342.25           6750       29896.00    130781.90
  248.00        3342.50           6754       28844.00    126162.90
  248.03        3342.75           6758       26918.00    117709.50
  248.06        3343.00           6761       25873.00    113124.50
  248.08        3343.25           6765       24116.00    105418.40
  248.11        3343.50           6769       22680.00     99122.58
  248.14        3343.75           6773       20849.00     91098.25
  248.17        3344.00           6776       19596.00     85609.06
  248.19        3344.25           6780       17880.00     78094.29
  248.22        3344.50           6784       16165.00     70587.07
  248.25        3344.75           6788       14245.00     62186.22
  248.28        3345.00           6791       12936.00     56461.03
  248.30        3345.25           6795       10978.00     47900.74
  248.33        3345.50           6799        8636.00     37667.00
  248.36        3345.75           6803        6443.00     28089.65
  248.39        3346.00           6806        5062.00     22061.14
  248.41        3346.25           6810        3448.00     15018.08
  248.44        3346.50           6814        2374.00     10332.98
  248.47        3346.75           6818        1514.00      6582.29
  248.49        3347.00           6821        1014.00      4402.03
  248.52        3347.25           6825         305.00      1310.86
  248.55        3347.50           6829          68.00       277.68
  248.58        3347.75           6833          40.00       155.62
  248.60        3348.00           6836          36.00       138.19
  248.63        3348.25           6840          33.00       125.11
  248.66        3348.50           6844          34.00       129.47
  248.68        3348.75           6848          35.00       133.83
  248.71        3349.00           6851          31.00       116.39
  248.74        3349.25           6855          33.00       125.11
  248.77        3349.50           6859          27.00        98.95
  248.79        3349.75           6863          37.00       142.55
  248.82        3350.00           6867          30.00       112.03
  248.85        3350.25           6870          26.00        94.59
  248.87        3350.50           6874          36.00       138.19
  248.90        3350.75           6878          30.00       112.03
  248.93        3351.00           6882          36.00       138.19
HL scan finished at 04:09:33
end
