************************************************************
  HL Scan of (1) Internal mercury lamp
************************************************************
Integration time is 0.2294 seconds per sample
dh221018Tamanrasset 22.79-5.529 4.974364pr865
************************************************************
Dead Time -------------------------  2.8E-08 
Number of Cycles Used -------------  4 
Starting Wavelength (Angstroms) ---  3331 
Final Wavelength (Angstoms) -------  3351 
Wavelength Increment (Angstroms) --  .25 
Filter Wheel #1 Position ---------- (1) Ground quartz diffuser (ND=2.32)
Filter Wheel #2 Position ---------- (0) Clear Aperture



************************************************************
HL scan start time = 04:07:02
Dark Count =  5.9 


Time (GMT)  Wavelength (Ang)  Step Number  Raw Counts  Counts/Second

  247.55        3331.00           6581          34.00       122.49
  247.77        3331.25           6585          31.00       109.42
  247.79        3331.50           6589          31.00       109.42
  247.82        3331.75           6593          33.00       118.13
  247.85        3332.00           6596          39.00       144.29
  247.88        3332.25           6600          30.00       105.06
  247.90        3332.50           6604          30.00       105.06
  247.93        3332.75           6608          36.00       131.21
  247.96        3333.00           6611          33.00       118.13
  247.99        3333.25           6615          30.00       105.06
  248.01        3333.50           6619          23.00        74.54
  248.04        3333.75           6623          39.00       144.29
  248.07        3334.00           6626          33.00       118.13
  248.09        3334.25           6630          31.00       109.42
  248.12        3334.50           6634          38.00       139.93
  248.15        3334.75           6638          34.00       122.49
  248.18        3335.00           6641          41.00       153.01
  248.20        3335.25           6645          34.00       122.49
  248.23        3335.50           6649          34.00       122.49
  248.26        3335.75           6653          56.00       218.40
  248.28        3336.00           6656         127.00       527.91
  248.31        3336.25           6660         412.00      1770.36
  248.34        3336.50           6664        1146.00      4970.61
  248.37        3336.75           6668        1853.00      8053.69
  248.39        3337.00           6671        2407.00     10469.94
  248.42        3337.25           6675        4203.00     18305.37
  248.45        3337.50           6679        6082.00     26506.59
  248.48        3337.75           6683        8137.00     35480.31
  248.50        3338.00           6686        9779.00     42653.79
  248.53        3338.25           6690       11825.00     51596.29
  248.56        3338.50           6694       14151.00     61768.03
  248.58        3338.75           6698       16072.00     70173.06
  248.61        3339.00           6701       17607.00     76892.05
  248.64        3339.25           6705       19992.00     87336.68
  248.67        3339.50           6709       22200.00     97011.63
  248.69        3339.75           6713       24398.00    106648.00
  248.72        3340.00           6716       26168.00    114411.70
  248.75        3340.25           6720       28306.00    123794.10
  248.78        3340.50           6724       30288.00    132496.30
  248.80        3340.75           6728       32242.00    141079.70
  248.83        3341.00           6731       33857.00    148177.20
  248.86        3341.25           6735       35499.00    155396.10
  248.89        3341.50           6739       36667.00    160533.00
  248.91        3341.75           6743       37358.00    163572.70
  248.94        3342.00           6746       37330.00    163449.50
  248.97        3342.25           6750       36828.00    161241.20
  249.00        3342.50           6754       35354.00    154758.50
  249.02        3342.75           6758       33130.00    144981.90
  249.05        3343.00           6761       31703.00    138711.60
  249.08        3343.25           6765       29563.00    129312.60
  249.10        3343.50           6769       27811.00    121621.40
  249.13        3343.75           6773       25629.00    112047.10
  249.16        3344.00           6776       23918.00    104543.20
  249.19        3344.25           6780       21858.00     95512.72
  249.21        3344.50           6784       19813.00     86552.57
  249.24        3344.75           6788       17447.00     76191.57
  249.27        3345.00           6791       15742.00     68728.91
  249.30        3345.25           6795       13564.00     59200.49
  249.32        3345.50           6799       10182.00     44414.84
  249.35        3345.75           6803        7816.00     34078.27
  249.38        3346.00           6806        6229.00     27148.36
  249.40        3346.25           6810        4297.00     18715.56
  249.43        3346.50           6814        3093.00     13462.36
  249.46        3346.75           6818        1885.00      8193.25
  249.49        3347.00           6821        1156.00      5014.22
  249.51        3347.25           6825         354.00      1517.50
  249.54        3347.50           6829          77.00       309.94
  249.57        3347.75           6833          45.00       170.45
  249.60        3348.00           6836          34.00       122.49
  249.62        3348.25           6840          34.00       122.49
  249.65        3348.50           6844          37.00       135.57
  249.68        3348.75           6848          34.00       122.49
  249.70        3349.00           6851          37.00       135.57
  249.73        3349.25           6855          38.00       139.93
  249.76        3349.50           6859          37.00       135.57
  249.79        3349.75           6863          32.00       113.78
  249.81        3350.00           6867          38.00       139.93
  249.84        3350.25           6870          36.00       131.21
  249.87        3350.50           6874          38.00       139.93
  249.89        3350.75           6878          34.00       122.49
  249.92        3351.00           6882          32.00       113.78
HL scan finished at 04:10:33
end
