************************************************************
  HL Scan of (1) Internal mercury lamp
************************************************************
Integration time is 0.2294 seconds per sample
dh021118Tamanrasset 22.79-5.529 4.974364pr865
************************************************************
Dead Time -------------------------  2.8E-08 
Number of Cycles Used -------------  4 
Starting Wavelength (Angstroms) ---  3331 
Final Wavelength (Angstoms) -------  3351 
Wavelength Increment (Angstroms) --  .25 
Filter Wheel #1 Position ---------- (1) Ground quartz diffuser (ND=2.32)
Filter Wheel #2 Position ---------- (0) Clear Aperture



************************************************************
HL scan start time = 04:11:32
Dark Count =  4.4 


Time (GMT)  Wavelength (Ang)  Step Number  Raw Counts  Counts/Second

  252.05        3331.00           6581          26.00        94.16
  252.27        3331.25           6585          27.00        98.52
  252.30        3331.50           6589          27.00        98.52
  252.33        3331.75           6593          27.00        98.52
  252.35        3332.00           6596          27.00        98.52
  252.38        3332.25           6600          27.00        98.52
  252.41        3332.50           6604          23.00        81.08
  252.43        3332.75           6608          29.00       107.24
  252.46        3333.00           6611          35.00       133.39
  252.49        3333.25           6615          30.00       111.60
  252.51        3333.50           6619          28.00       102.88
  252.54        3333.75           6623          34.00       129.03
  252.57        3334.00           6626          30.00       111.60
  252.60        3334.25           6630          32.00       120.31
  252.62        3334.50           6634          33.00       124.67
  252.65        3334.75           6638          26.00        94.16
  252.68        3335.00           6641          32.00       120.31
  252.70        3335.25           6645          32.00       120.31
  252.73        3335.50           6649          36.00       137.75
  252.76        3335.75           6653          40.00       155.19
  252.79        3336.00           6656          69.00       281.61
  252.81        3336.25           6660         258.00      1105.53
  252.84        3336.50           6664         707.00      3063.04
  252.87        3336.75           6668        1143.00      4964.07
  252.90        3337.00           6671        1587.00      6900.20
  252.92        3337.25           6675        2878.00     12530.99
  252.95        3337.50           6679        4406.00     19197.76
  252.98        3337.75           6683        5874.00     25605.10
  253.00        3338.00           6686        7173.00     31276.73
  253.03        3338.25           6690        8839.00     38553.36
  253.06        3338.50           6694       10419.00     45457.12
  253.09        3338.75           6698       11886.00     51869.53
  253.11        3339.00           6701       13104.00     57195.28
  253.14        3339.25           6705       14812.00     64666.24
  253.17        3339.50           6709       16483.00     71978.40
  253.20        3339.75           6713       18107.00     79087.76
  253.22        3340.00           6716       19358.00     84566.18
  253.25        3340.25           6720       20909.00     91360.69
  253.28        3340.50           6724       22572.00     98648.74
  253.31        3340.75           6728       24088.00    105295.20
  253.33        3341.00           6731       25310.00    110654.40
  253.36        3341.25           6735       26436.00    115594.10
  253.39        3341.50           6739       27727.00    121259.30
  253.42        3341.75           6743       28164.00    123177.40
  253.44        3342.00           6746       28174.00    123221.30
  253.47        3342.25           6750       27939.00    122189.80
  253.50        3342.50           6754       27176.00    118841.20
  253.53        3342.75           6758       25559.00    111746.70
  253.55        3343.00           6761       24154.00    105584.60
  253.58        3343.25           6765       22603.00     98784.63
  253.61        3343.50           6769       21274.00     92960.05
  253.63        3343.75           6773       19810.00     86546.01
  253.66        3344.00           6776       18414.00     80432.03
  253.69        3344.25           6780       16690.00     72884.43
  253.72        3344.50           6784       15130.00     66057.56
  253.74        3344.75           6788       13551.00     59150.20
  253.77        3345.00           6791       12158.00     53058.72
  253.80        3345.25           6795       10623.00     46348.69
  253.83        3345.50           6799        8272.00     36076.53
  253.85        3345.75           6803        6035.00     26307.95
  253.88        3346.00           6806        4861.00     21183.44
  253.91        3346.25           6810        3560.00     15506.30
  253.93        3346.50           6814        2438.00     10611.70
  253.96        3346.75           6818        1431.00      6219.92
  253.99        3347.00           6821         962.00      4174.86
  254.02        3347.25           6825         296.00      1271.19
  254.04        3347.50           6829          77.00       316.48
  254.07        3347.75           6833          40.00       155.19
  254.10        3348.00           6836          35.00       133.39
  254.12        3348.25           6840          31.00       115.96
  254.15        3348.50           6844          33.00       124.67
  254.18        3348.75           6848          33.00       124.67
  254.21        3349.00           6851          26.00        94.16
  254.23        3349.25           6855          30.00       111.60
  254.26        3349.50           6859          37.00       142.11
  254.29        3349.75           6863          29.00       107.24
  254.32        3350.00           6867          29.00       107.24
  254.34        3350.25           6870          32.00       120.31
  254.37        3350.50           6874          37.00       142.11
  254.40        3350.75           6878          26.00        94.16
  254.42        3351.00           6882          30.00       111.60
HL scan finished at 04:15:03
end
