************************************************************
  HL Scan of (1) Internal mercury lamp
************************************************************
Integration time is 0.2294 seconds per sample
dh311018Tamanrasset 22.79-5.529 4.974364pr865
************************************************************
Dead Time -------------------------  2.8E-08 
Number of Cycles Used -------------  4 
Starting Wavelength (Angstroms) ---  3331 
Final Wavelength (Angstoms) -------  3351 
Wavelength Increment (Angstroms) --  .25 
Filter Wheel #1 Position ---------- (1) Ground quartz diffuser (ND=2.32)
Filter Wheel #2 Position ---------- (0) Clear Aperture



************************************************************
HL scan start time = 04:11:37
Dark Count =  3.7 


Time (GMT)  Wavelength (Ang)  Step Number  Raw Counts  Counts/Second

  252.13        3331.00           6581          30.00       114.65
  252.35        3331.25           6585          32.00       123.37
  252.37        3331.50           6589          27.00       101.57
  252.40        3331.75           6593          30.00       114.65
  252.43        3332.00           6596          34.00       132.08
  252.46        3332.25           6600          30.00       114.65
  252.48        3332.50           6604          30.00       114.65
  252.51        3332.75           6608          31.00       119.01
  252.54        3333.00           6611          30.00       114.65
  252.57        3333.25           6615          28.00       105.93
  252.59        3333.50           6619          31.00       119.01
  252.62        3333.75           6623          30.00       114.65
  252.65        3334.00           6626          34.00       132.08
  252.67        3334.25           6630          34.00       132.08
  252.70        3334.50           6634          29.00       110.29
  252.73        3334.75           6638          36.00       140.80
  252.76        3335.00           6641          32.00       123.37
  252.78        3335.25           6645          36.00       140.80
  252.81        3335.50           6649          40.00       158.24
  252.84        3335.75           6653          65.00       267.22
  252.86        3336.00           6656         164.00       698.79
  252.89        3336.25           6660         497.00      2150.52
  252.92        3336.50           6664        1018.00      4422.08
  252.95        3336.75           6668        1825.00      7941.17
  252.97        3337.00           6671        2429.00     10575.49
  253.00        3337.25           6675        3985.00     17363.72
  253.03        3337.50           6679        5786.00     25224.00
  253.05        3337.75           6683        7589.00     33096.48
  253.08        3338.00           6686        8988.00     39207.36
  253.11        3338.25           6690       10810.00     47169.06
  253.14        3338.50           6694       12651.00     55217.40
  253.16        3338.75           6698       14515.00     63369.98
  253.19        3339.00           6701       15813.00     69049.24
  253.22        3339.25           6705       17841.00     77926.18
  253.25        3339.50           6709       19799.00     86500.88
  253.27        3339.75           6713       21580.00     94304.06
  253.30        3340.00           6716       22977.00    100427.20
  253.33        3340.25           6720       24760.00    108245.20
  253.36        3340.50           6724       26500.00    115878.00
  253.38        3340.75           6728       28542.00    124839.70
  253.41        3341.00           6731       29645.00    129682.30
  253.44        3341.25           6735       30931.00    135330.10
  253.46        3341.50           6739       32056.00    140272.20
  253.49        3341.75           6743       32366.00    141634.30
  253.52        3342.00           6746       32321.00    141436.50
  253.55        3342.25           6750       31667.00    138563.10
  253.57        3342.50           6754       30320.00    132646.50
  253.60        3342.75           6758       28302.00    123786.20
  253.63        3343.00           6761       26934.00    117782.30
  253.66        3343.25           6765       25330.00    110745.20
  253.68        3343.50           6769       23645.00    103355.80
  253.71        3343.75           6773       21703.00     94843.07
  253.74        3344.00           6776       20226.00     88371.41
  253.76        3344.25           6780       18385.00     80308.11
  253.79        3344.50           6784       16659.00     72751.81
  253.82        3344.75           6788       14671.00     64052.44
  253.85        3345.00           6791       12912.00     56358.71
  253.87        3345.25           6795       10565.00     46098.26
  253.90        3345.50           6799        8426.00     36752.27
  253.93        3345.75           6803        6333.00     27612.01
  253.96        3346.00           6806        4882.00     21278.15
  253.98        3346.25           6810        3236.00     14095.80
  254.01        3346.50           6814        2210.00      9620.29
  254.04        3346.75           6818        1406.00      6113.95
  254.06        3347.00           6821         767.00      3327.69
  254.09        3347.25           6825         197.00       842.65
  254.12        3347.50           6829          54.00       219.27
  254.15        3347.75           6833          39.00       153.88
  254.17        3348.00           6836          33.00       127.72
  254.20        3348.25           6840          42.00       166.96
  254.23        3348.50           6844          32.00       123.37
  254.26        3348.75           6848          34.00       132.08
  254.28        3349.00           6851          32.00       123.37
  254.31        3349.25           6855          32.00       123.37
  254.34        3349.50           6859          32.00       123.37
  254.36        3349.75           6863          33.00       127.72
  254.39        3350.00           6867          32.00       123.37
  254.42        3350.25           6870          33.00       127.72
  254.45        3350.50           6874          33.00       127.72
  254.47        3350.75           6878          30.00       114.65
  254.50        3351.00           6882          40.00       158.24
HL scan finished at 04:15:07
end
