************************************************************
  HL Scan of (1) Internal mercury lamp
************************************************************
Integration time is 0.2294 seconds per sample
dh051118Tamanrasset 22.79-5.529 4.974364pr865
************************************************************
Dead Time -------------------------  2.8E-08 
Number of Cycles Used -------------  4 
Starting Wavelength (Angstroms) ---  3331 
Final Wavelength (Angstoms) -------  3351 
Wavelength Increment (Angstroms) --  .25 
Filter Wheel #1 Position ---------- (1) Ground quartz diffuser (ND=2.32)
Filter Wheel #2 Position ---------- (0) Clear Aperture



************************************************************
HL scan start time = 04:14:20
Dark Count =  3.3 


Time (GMT)  Wavelength (Ang)  Step Number  Raw Counts  Counts/Second

  254.84        3331.00           6581          28.00       107.67
  255.06        3331.25           6585          28.00       107.67
  255.09        3331.50           6589          25.00        94.59
  255.12        3331.75           6593          30.00       116.39
  255.14        3332.00           6596          28.00       107.67
  255.17        3332.25           6600          23.00        85.88
  255.20        3332.50           6604          32.00       125.11
  255.22        3332.75           6608          29.00       112.03
  255.25        3333.00           6611          33.00       129.47
  255.28        3333.25           6615          29.00       112.03
  255.31        3333.50           6619          30.00       116.39
  255.33        3333.75           6623          24.00        90.24
  255.36        3334.00           6626          25.00        94.59
  255.39        3334.25           6630          30.00       116.39
  255.41        3334.50           6634          27.00       103.31
  255.44        3334.75           6638          28.00       107.67
  255.47        3335.00           6641          31.00       120.75
  255.50        3335.25           6645          30.00       116.39
  255.52        3335.50           6649          28.00       107.67
  255.55        3335.75           6653          36.00       142.55
  255.58        3336.00           6656          43.00       173.06
  255.60        3336.25           6660         167.00       713.62
  255.63        3336.50           6664         547.00      2370.25
  255.66        3336.75           6668         937.00      4070.65
  255.69        3337.00           6671        1333.00      5797.37
  255.71        3337.25           6675        2458.00     10703.73
  255.74        3337.50           6679        3895.00     16972.76
  255.77        3337.75           6683        5406.00     23566.99
  255.80        3338.00           6686        6421.00     27997.97
  255.82        3338.25           6690        8047.00     35098.56
  255.85        3338.50           6694        9501.00     41450.44
  255.88        3338.75           6698       11032.00     48141.14
  255.90        3339.00           6701       12300.00     53684.39
  255.93        3339.25           6705       13898.00     60672.74
  255.96        3339.50           6709       15379.00     67151.87
  255.99        3339.75           6713       16994.00     74219.90
  256.01        3340.00           6716       18242.00     79683.69
  256.04        3340.25           6720       19686.00     86007.66
  256.07        3340.50           6724       21150.00     92421.51
  256.10        3340.75           6728       22500.00     98337.97
  256.12        3341.00           6731       23583.00    103085.70
  256.15        3341.25           6735       25015.00    109365.40
  256.18        3341.50           6739       26097.00    114111.60
  256.21        3341.75           6743       26435.00    115594.50
  256.23        3342.00           6746       26638.00    116485.20
  256.26        3342.25           6750       26491.00    115840.30
  256.29        3342.50           6754       25678.00    112273.50
  256.31        3342.75           6758       24514.00    107168.10
  256.34        3343.00           6761       23276.00    101739.70
  256.37        3343.25           6765       21817.00     95344.44
  256.40        3343.50           6769       20437.00     89297.54
  256.43        3343.75           6773       19007.00     83033.72
  256.45        3344.00           6776       17783.00     77673.98
  256.48        3344.25           6780       16263.00     71020.34
  256.51        3344.50           6784       14803.00     64631.68
  256.53        3344.75           6788       13156.00     57427.49
  256.56        3345.00           6791       11981.00     52289.67
  256.59        3345.25           6795       10486.00     45754.75
  256.62        3345.50           6799        8274.00     36090.07
  256.64        3345.75           6803        6097.00     26583.43
  256.67        3346.00           6806        5032.00     21934.57
  256.70        3346.25           6810        3791.00     16518.97
  256.73        3346.50           6814        2913.00     12688.47
  256.75        3346.75           6818        1833.00      7977.81
  256.78        3347.00           6821        1254.00      5452.88
  256.81        3347.25           6825         481.00      2082.51
  256.83        3347.50           6829         109.00       460.77
  256.86        3347.75           6833          36.00       142.55
  256.89        3348.00           6836          28.00       107.67
  256.92        3348.25           6840          27.00       103.31
  256.94        3348.50           6844          31.00       120.75
  256.97        3348.75           6848          34.00       133.83
  257.00        3349.00           6851          30.00       116.39
  257.02        3349.25           6855          28.00       107.67
  257.05        3349.50           6859          29.00       112.03
  257.08        3349.75           6863          28.00       107.67
  257.11        3350.00           6867          33.00       129.47
  257.13        3350.25           6870          28.00       107.67
  257.16        3350.50           6874          35.00       138.19
  257.19        3350.75           6878          31.00       120.75
  257.21        3351.00           6882          34.00       133.83
HL scan finished at 04:17:50
end
