************************************************************
  HL Scan of (1) Internal mercury lamp
************************************************************
Integration time is 0.2294 seconds per sample
dh291018Tamanrasset 22.79-5.529 4.974364pr865
************************************************************
Dead Time -------------------------  2.8E-08 
Number of Cycles Used -------------  4 
Starting Wavelength (Angstroms) ---  3331 
Final Wavelength (Angstoms) -------  3351 
Wavelength Increment (Angstroms) --  .25 
Filter Wheel #1 Position ---------- (1) Ground quartz diffuser (ND=2.32)
Filter Wheel #2 Position ---------- (0) Clear Aperture



************************************************************
HL scan start time = 04:10:03
Dark Count =  3.9 


Time (GMT)  Wavelength (Ang)  Step Number  Raw Counts  Counts/Second

  250.56        3331.00           6581          29.00       109.42
  250.78        3331.25           6585          29.00       109.42
  250.81        3331.50           6589          29.00       109.42
  250.84        3331.75           6593          26.00        96.34
  250.86        3332.00           6596          30.00       113.78
  250.89        3332.25           6600          33.00       126.85
  250.92        3332.50           6604          34.00       131.21
  250.94        3332.75           6608          33.00       126.85
  250.97        3333.00           6611          27.00       100.70
  251.00        3333.25           6615          33.00       126.85
  251.03        3333.50           6619          32.00       122.49
  251.05        3333.75           6623          35.00       135.57
  251.08        3334.00           6626          28.00       105.06
  251.11        3334.25           6630          27.00       100.70
  251.13        3334.50           6634          33.00       126.85
  251.16        3334.75           6638          32.00       122.49
  251.19        3335.00           6641          35.00       135.57
  251.22        3335.25           6645          40.00       157.37
  251.24        3335.50           6649          38.00       148.65
  251.27        3335.75           6653          41.00       161.73
  251.30        3336.00           6656          50.00       200.96
  251.32        3336.25           6660         214.00       915.89
  251.35        3336.50           6664         671.00      2908.26
  251.38        3336.75           6668        1068.00      4639.23
  251.41        3337.00           6671        1440.00      6261.34
  251.43        3337.25           6675        2782.00     12114.40
  251.46        3337.50           6679        4443.00     19361.41
  251.49        3337.75           6683        6072.00     26471.67
  251.52        3338.00           6686        7208.00     31431.75
  251.54        3338.25           6690        9088.00     39643.37
  251.57        3338.50           6694       10773.00     47006.47
  251.60        3338.75           6698       12327.00     53799.82
  251.63        3339.00           6701       13774.00     60127.74
  251.65        3339.25           6705       15458.00     67494.91
  251.68        3339.50           6709       17127.00     74799.48
  251.71        3339.75           6713       18841.00     82304.10
  251.74        3340.00           6716       20376.00     89027.66
  251.76        3340.25           6720       21929.00     95832.65
  251.79        3340.50           6724       23558.00    102973.50
  251.82        3340.75           6728       25287.00    110555.80
  251.84        3341.00           6731       26398.00    115429.60
  251.87        3341.25           6735       27866.00    121871.60
  251.90        3341.50           6739       28977.00    126748.50
  251.93        3341.75           6743       29816.00    130432.30
  251.95        3342.00           6746       29874.00    130687.00
  251.98        3342.25           6750       29647.00    129690.20
  252.01        3342.50           6754       28785.00    125905.60
  252.04        3342.75           6758       27076.00    118404.50
  252.06        3343.00           6761       25958.00    113499.20
  252.09        3343.25           6765       24377.00    106564.70
  252.12        3343.50           6769       22852.00     99878.31
  252.15        3343.75           6773       21115.00     92265.51
  252.17        3344.00           6776       19795.00     86482.49
  252.20        3344.25           6780       17831.00     77881.51
  252.23        3344.50           6784       16266.00     71030.84
  252.26        3344.75           6788       14560.00     63565.96
  252.28        3345.00           6791       13143.00     57368.01
  252.31        3345.25           6795       11405.00     49768.96
  252.34        3345.50           6799        9040.00     39433.67
  252.36        3345.75           6803        6750.00     29431.83
  252.39        3346.00           6806        5588.00     24358.81
  252.42        3346.25           6810        3978.00     17332.30
  252.45        3346.50           6814        2849.00     12406.66
  252.47        3346.75           6818        1940.00      8441.84
  252.50        3347.00           6821        1314.00      5711.90
  252.53        3347.25           6825         458.00      1979.62
  252.56        3347.50           6829         100.00       418.92
  252.58        3347.75           6833          37.00       144.29
  252.61        3348.00           6836          33.00       126.85
  252.64        3348.25           6840          31.00       118.13
  252.67        3348.50           6844          32.00       122.49
  252.69        3348.75           6848          35.00       135.57
  252.72        3349.00           6851          35.00       135.57
  252.75        3349.25           6855          35.00       135.57
  252.77        3349.50           6859          33.00       126.85
  252.80        3349.75           6863          31.00       118.13
  252.83        3350.00           6867          32.00       122.49
  252.85        3350.25           6870          31.00       118.13
  252.88        3350.50           6874          33.00       126.85
  252.91        3350.75           6878          39.00       153.01
  252.94        3351.00           6882          33.00       126.85
HL scan finished at 04:13:34
end
