************************************************************
  HL Scan of (1) Internal mercury lamp
************************************************************
Integration time is 0.2294 seconds per sample
dh031118Tamanrasset 22.79-5.529 4.974364pr865
************************************************************
Dead Time -------------------------  2.8E-08 
Number of Cycles Used -------------  4 
Starting Wavelength (Angstroms) ---  3331 
Final Wavelength (Angstoms) -------  3351 
Wavelength Increment (Angstroms) --  .25 
Filter Wheel #1 Position ---------- (1) Ground quartz diffuser (ND=2.32)
Filter Wheel #2 Position ---------- (0) Clear Aperture



************************************************************
HL scan start time = 04:13:07
Dark Count =  5.7 


Time (GMT)  Wavelength (Ang)  Step Number  Raw Counts  Counts/Second

  253.63        3331.00           6581          34.00       123.37
  253.85        3331.25           6585          24.00        79.77
  253.88        3331.50           6589          25.00        84.13
  253.91        3331.75           6593          28.00        97.21
  253.93        3332.00           6596          27.00        92.85
  253.96        3332.25           6600          29.00       101.57
  253.99        3332.50           6604          32.00       114.65
  254.01        3332.75           6608          32.00       114.65
  254.04        3333.00           6611          26.00        88.49
  254.07        3333.25           6615          26.00        88.49
  254.10        3333.50           6619          28.00        97.21
  254.12        3333.75           6623          31.00       110.29
  254.15        3334.00           6626          32.00       114.65
  254.18        3334.25           6630          31.00       110.29
  254.20        3334.50           6634          28.00        97.21
  254.23        3334.75           6638          31.00       110.29
  254.26        3335.00           6641          27.00        92.85
  254.29        3335.25           6645          34.00       123.37
  254.31        3335.50           6649          31.00       110.29
  254.34        3335.75           6653          38.00       140.80
  254.37        3336.00           6656          70.00       280.30
  254.39        3336.25           6660         258.00      1099.86
  254.42        3336.50           6664         721.00      3118.41
  254.45        3336.75           6668         985.00      4269.47
  254.48        3337.00           6671        1550.00      6733.18
  254.50        3337.25           6675        2841.00     12363.92
  254.53        3337.50           6679        4299.00     18725.16
  254.56        3337.75           6683        5804.00     25293.85
  254.58        3338.00           6686        7083.00     30878.04
  254.61        3338.25           6690        8574.00     37390.04
  254.64        3338.50           6694       10031.00     43755.85
  254.67        3338.75           6698       11492.00     50141.41
  254.69        3339.00           6701       12774.00     55746.49
  254.72        3339.25           6705       14246.00     62184.47
  254.75        3339.50           6709       15699.00     68541.63
  254.78        3339.75           6713       17418.00     76065.50
  254.80        3340.00           6716       18643.00     81429.13
  254.83        3340.25           6720       20400.00     89124.93
  254.86        3340.50           6724       21769.00     95123.56
  254.88        3340.75           6728       23191.00    101356.60
  254.91        3341.00           6731       24276.00    106113.90
  254.94        3341.25           6735       25636.00    112078.70
  254.97        3341.50           6739       26681.00    116663.40
  254.99        3341.75           6743       27173.00    118822.30
  255.02        3342.00           6746       26986.00    118001.70
  255.05        3342.25           6750       26708.00    116781.90
  255.08        3342.50           6754       25823.00    112899.10
  255.10        3342.75           6758       24348.00    106429.60
  255.13        3343.00           6761       23227.00    101514.40
  255.16        3343.25           6765       21753.00     95053.44
  255.19        3343.50           6769       20335.00     88840.16
  255.21        3343.75           6773       18626.00     81354.68
  255.24        3344.00           6776       17603.00     76875.41
  255.27        3344.25           6780       15971.00     69731.93
  255.30        3344.50           6784       14503.00     63308.73
  255.32        3344.75           6788       12786.00     55798.97
  255.35        3345.00           6791       11598.00     50604.79
  255.38        3345.25           6795       10074.00     43943.75
  255.40        3345.50           6799        7996.00     34865.32
  255.43        3345.75           6803        5775.00     25167.25
  255.46        3346.00           6806        4606.00     20064.89
  255.49        3346.25           6810        3244.00     14121.98
  255.51        3346.50           6814        2396.00     10422.83
  255.54        3346.75           6818        1597.00      6938.14
  255.57        3347.00           6821         934.00      4047.10
  255.60        3347.25           6825         312.00      1335.27
  255.62        3347.50           6829          68.00       271.58
  255.65        3347.75           6833          38.00       140.80
  255.68        3348.00           6836          34.00       123.37
  255.70        3348.25           6840          37.00       136.44
  255.73        3348.50           6844          31.00       110.29
  255.76        3348.75           6848          30.00       105.93
  255.79        3349.00           6851          27.00        92.85
  255.81        3349.25           6855          32.00       114.65
  255.84        3349.50           6859          34.00       123.37
  255.87        3349.75           6863          32.00       114.65
  255.89        3350.00           6867          33.00       119.01
  255.92        3350.25           6870          33.00       119.01
  255.95        3350.50           6874          29.00       101.57
  255.98        3350.75           6878          29.00       101.57
  256.00        3351.00           6882          30.00       105.93
HL scan finished at 04:16:37
end
