************************************************************
  HL Scan of (1) Internal mercury lamp
************************************************************
Integration time is 0.2294 seconds per sample
dh041118Tamanrasset 22.79-5.529 4.974364pr865
************************************************************
Dead Time -------------------------  2.8E-08 
Number of Cycles Used -------------  4 
Starting Wavelength (Angstroms) ---  3331 
Final Wavelength (Angstoms) -------  3351 
Wavelength Increment (Angstroms) --  .25 
Filter Wheel #1 Position ---------- (1) Ground quartz diffuser (ND=2.32)
Filter Wheel #2 Position ---------- (0) Clear Aperture



************************************************************
HL scan start time = 04:13:32
Dark Count =  4.2 


Time (GMT)  Wavelength (Ang)  Step Number  Raw Counts  Counts/Second

  254.04        3331.00           6581          27.00        99.39
  254.26        3331.25           6585          30.00       112.47
  254.29        3331.50           6589          24.00        86.31
  254.31        3331.75           6593          30.00       112.47
  254.34        3332.00           6596          23.00        81.95
  254.37        3332.25           6600          30.00       112.47
  254.39        3332.50           6604          28.00       103.75
  254.42        3332.75           6608          26.00        95.03
  254.45        3333.00           6611          32.00       121.19
  254.48        3333.25           6615          32.00       121.19
  254.50        3333.50           6619          27.00        99.39
  254.53        3333.75           6623          32.00       121.19
  254.56        3334.00           6626          30.00       112.47
  254.58        3334.25           6630          31.00       116.83
  254.61        3334.50           6634          29.00       108.11
  254.64        3334.75           6638          27.00        99.39
  254.67        3335.00           6641          34.00       129.90
  254.69        3335.25           6645          32.00       121.19
  254.72        3335.50           6649          34.00       129.90
  254.75        3335.75           6653          37.00       142.98
  254.77        3336.00           6656          57.00       230.17
  254.80        3336.25           6660         219.00       936.38
  254.83        3336.50           6664         687.00      2976.71
  254.86        3336.75           6668         958.00      4158.29
  254.88        3337.00           6671        1467.00      6377.77
  254.91        3337.25           6675        2740.00     11929.88
  254.94        3337.50           6679        4225.00     18408.79
  254.96        3337.75           6683        5722.00     24942.44
  254.99        3338.00           6686        6880.00     29998.16
  255.02        3338.25           6690        8404.00     36653.99
  255.05        3338.50           6694        9988.00     43574.49
  255.07        3338.75           6698       11550.00     50401.51
  255.10        3339.00           6701       12610.00     55035.92
  255.13        3339.25           6705       14341.00     62606.60
  255.16        3339.50           6709       15877.00     69327.12
  255.18        3339.75           6713       17561.00     76698.10
  255.21        3340.00           6716       18751.00     81908.66
  255.24        3340.25           6720       20244.00     88448.08
  255.26        3340.50           6724       21764.00     95108.22
  255.29        3340.75           6728       23198.00    101393.80
  255.32        3341.00           6731       24309.00    106265.20
  255.35        3341.25           6735       25582.00    111848.40
  255.37        3341.50           6739       26699.00    116749.00
  255.40        3341.75           6743       27320.00    119474.00
  255.43        3342.00           6746       27250.00    119166.80
  255.46        3342.25           6750       27021.00    118161.90
  255.48        3342.50           6754       26057.00    113932.20
  255.51        3342.75           6758       24530.00    107234.30
  255.54        3343.00           6761       23642.00    103340.40
  255.57        3343.25           6765       22020.00     96230.18
  255.59        3343.50           6769       20491.00     89530.18
  255.62        3343.75           6773       19024.00     83104.23
  255.65        3344.00           6776       17759.00     77564.97
  255.67        3344.25           6780       16232.00     70880.73
  255.70        3344.50           6784       14764.00     64457.12
  255.73        3344.75           6788       13202.00     57624.73
  255.76        3345.00           6791       11757.00     51306.44
  255.78        3345.25           6795       10222.00     44597.07
  255.81        3345.50           6799        7981.00     34806.35
  255.84        3345.75           6803        5923.00     25819.88
  255.87        3346.00           6806        4851.00     21140.67
  255.89        3346.25           6810        3522.00     15341.38
  255.92        3346.50           6814        2672.00     11633.26
  255.95        3346.75           6818        1784.00      7760.19
  255.97        3347.00           6821        1118.00      4855.94
  256.00        3347.25           6825         391.00      1686.22
  256.03        3347.50           6829          84.00       347.87
  256.06        3347.75           6833          34.00       129.90
  256.08        3348.00           6836          34.00       129.90
  256.11        3348.25           6840          33.00       125.55
  256.14        3348.50           6844          33.00       125.55
  256.17        3348.75           6848          28.00       103.75
  256.19        3349.00           6851          27.00        99.39
  256.22        3349.25           6855          33.00       125.55
  256.25        3349.50           6859          35.00       134.26
  256.27        3349.75           6863          29.00       108.11
  256.30        3350.00           6867          38.00       147.34
  256.33        3350.25           6870          30.00       112.47
  256.36        3350.50           6874          29.00       108.11
  256.38        3350.75           6878          36.00       138.62
  256.41        3351.00           6882          31.00       116.83
HL scan finished at 04:17:02
end
