************************************************************
  HL Scan of (1) Internal mercury lamp
************************************************************
Integration time is 0.2294 seconds per sample
dh271018Tamanrasset 22.79-5.529 4.974364pr865
************************************************************
Dead Time -------------------------  2.8E-08 
Number of Cycles Used -------------  4 
Starting Wavelength (Angstroms) ---  3331 
Final Wavelength (Angstoms) -------  3351 
Wavelength Increment (Angstroms) --  .25 
Filter Wheel #1 Position ---------- (1) Ground quartz diffuser (ND=2.32)
Filter Wheel #2 Position ---------- (0) Clear Aperture



************************************************************
HL scan start time = 04:09:01
Dark Count =  3.1 


Time (GMT)  Wavelength (Ang)  Step Number  Raw Counts  Counts/Second

  249.53        3331.00           6581          29.00       112.90
  249.74        3331.25           6585          26.00        99.83
  249.77        3331.50           6589          33.00       130.34
  249.80        3331.75           6593          28.00       108.54
  249.83        3332.00           6596          32.00       125.98
  249.85        3332.25           6600          25.00        95.47
  249.88        3332.50           6604          28.00       108.54
  249.91        3332.75           6608          29.00       112.90
  249.93        3333.00           6611          34.00       134.70
  249.96        3333.25           6615          31.00       121.62
  249.99        3333.50           6619          29.00       112.90
  250.02        3333.75           6623          28.00       108.54
  250.04        3334.00           6626          31.00       121.62
  250.07        3334.25           6630          29.00       112.90
  250.10        3334.50           6634          27.00       104.19
  250.12        3334.75           6638          25.00        95.47
  250.15        3335.00           6641          30.00       117.26
  250.18        3335.25           6645          34.00       134.70
  250.21        3335.50           6649          38.00       152.14
  250.23        3335.75           6653          33.00       130.34
  250.26        3336.00           6656          50.00       204.45
  250.29        3336.25           6660         184.00       788.60
  250.31        3336.50           6664         535.00      2318.81
  250.34        3336.75           6668         885.00      3844.79
  250.37        3337.00           6671        1380.00      6003.19
  250.40        3337.25           6675        2581.00     11241.11
  250.42        3337.50           6679        3922.00     17091.44
  250.45        3337.75           6683        5331.00     23240.49
  250.48        3338.00           6686        6455.00     28147.29
  250.51        3338.25           6690        7855.00     34260.84
  250.53        3338.50           6694        9375.00     40900.78
  250.56        3338.75           6698       10769.00     46992.49
  250.59        3339.00           6701       11776.00     51394.31
  250.61        3339.25           6705       13342.00     58241.81
  250.64        3339.50           6709       14880.00     64969.44
  250.67        3339.75           6713       16353.00     71415.12
  250.70        3340.00           6716       17454.00     76234.49
  250.73        3340.25           6720       19045.00     83201.02
  250.75        3340.50           6724       20282.00     88619.37
  250.78        3340.75           6728       21615.00     94460.06
  250.81        3341.00           6731       22628.00     98899.91
  250.84        3341.25           6735       23841.00    104217.80
  250.86        3341.50           6739       24712.00    108037.30
  250.89        3341.75           6743       25310.00    110660.10
  250.92        3342.00           6746       25471.00    111366.40
  250.94        3342.25           6750       25181.00    110094.30
  250.97        3342.50           6754       24368.00    106528.70
  251.00        3342.75           6758       23030.00    100662.10
  251.03        3343.00           6761       21734.00     94981.56
  251.05        3343.25           6765       20330.00     88829.65
  251.08        3343.50           6769       19206.00     83906.13
  251.11        3343.75           6773       17681.00     77228.28
  251.14        3344.00           6776       16563.00     72334.24
  251.16        3344.25           6780       15154.00     66168.25
  251.19        3344.50           6784       13787.00     60188.10
  251.22        3344.75           6788       12305.00     53707.12
  251.25        3345.00           6791       11112.00     48491.70
  251.27        3345.25           6795        9695.00     42298.98
  251.30        3345.50           6799        7726.00     33697.43
  251.33        3345.75           6803        5703.00     24864.30
  251.36        3346.00           6806        4568.00     19910.40
  251.38        3346.25           6810        3356.00     14621.94
  251.41        3346.50           6814        2579.00     11232.39
  251.44        3346.75           6818        1624.00      7067.22
  251.46        3347.00           6821        1019.00      4429.06
  251.49        3347.25           6825         352.00      1520.99
  251.52        3347.50           6829          97.00       409.33
  251.55        3347.75           6833          36.00       143.42
  251.57        3348.00           6836          31.00       121.62
  251.60        3348.25           6840          31.00       121.62
  251.63        3348.50           6844          31.00       121.62
  251.65        3348.75           6848          32.00       125.98
  251.68        3349.00           6851          33.00       130.34
  251.71        3349.25           6855          31.00       121.62
  251.74        3349.50           6859          30.00       117.26
  251.76        3349.75           6863          34.00       134.70
  251.79        3350.00           6867          27.00       104.19
  251.82        3350.25           6870          32.00       125.98
  251.84        3350.50           6874          24.00        91.11
  251.87        3350.75           6878          36.00       143.42
  251.90        3351.00           6882          28.00       108.54
HL scan finished at 04:12:31
end
