************************************************************
  HL Scan of (1) Internal mercury lamp
************************************************************
Integration time is 0.2294 seconds per sample
dh011118Tamanrasset 22.79-5.529 4.974364pr865
************************************************************
Dead Time -------------------------  2.8E-08 
Number of Cycles Used -------------  4 
Starting Wavelength (Angstroms) ---  3331 
Final Wavelength (Angstoms) -------  3351 
Wavelength Increment (Angstroms) --  .25 
Filter Wheel #1 Position ---------- (1) Ground quartz diffuser (ND=2.32)
Filter Wheel #2 Position ---------- (0) Clear Aperture



************************************************************
HL scan start time = 04:12:01
Dark Count =  4.4 


Time (GMT)  Wavelength (Ang)  Step Number  Raw Counts  Counts/Second

  252.53        3331.00           6581          33.00       124.67
  252.75        3331.25           6585          32.00       120.31
  252.78        3331.50           6589          32.00       120.31
  252.80        3331.75           6593          26.00        94.16
  252.83        3332.00           6596          35.00       133.39
  252.86        3332.25           6600          31.00       115.96
  252.89        3332.50           6604          35.00       133.39
  252.91        3332.75           6608          29.00       107.24
  252.94        3333.00           6611          36.00       137.75
  252.97        3333.25           6615          33.00       124.67
  252.99        3333.50           6619          33.00       124.67
  253.02        3333.75           6623          29.00       107.24
  253.05        3334.00           6626          34.00       129.03
  253.08        3334.25           6630          29.00       107.24
  253.10        3334.50           6634          32.00       120.31
  253.13        3334.75           6638          33.00       124.67
  253.16        3335.00           6641          26.00        94.16
  253.18        3335.25           6645          35.00       133.39
  253.21        3335.50           6649          41.00       159.55
  253.24        3335.75           6653          72.00       294.68
  253.27        3336.00           6656         196.00       835.24
  253.29        3336.25           6660         532.00      2300.06
  253.32        3336.50           6664        1130.00      4907.39
  253.35        3336.75           6668        1827.00      7946.84
  253.37        3337.00           6671        2624.00     11423.01
  253.40        3337.25           6675        4259.00     18556.29
  253.43        3337.50           6679        6108.00     26626.64
  253.46        3337.75           6683        7950.00     34670.09
  253.48        3338.00           6686        9307.00     40598.00
  253.51        3338.25           6690       11179.00     48778.87
  253.54        3338.50           6694       13037.00     56902.28
  253.57        3338.75           6698       14954.00     65287.51
  253.59        3339.00           6701       16408.00     71650.15
  253.62        3339.25           6705       18126.00     79170.95
  253.65        3339.50           6709       20044.00     87571.05
  253.67        3339.75           6713       22143.00     96768.38
  253.70        3340.00           6716       23481.00    102633.70
  253.73        3340.25           6720       25458.00    111303.60
  253.76        3340.50           6724       27359.00    119644.30
  253.78        3340.75           6728       28931.00    126544.40
  253.81        3341.00           6731       30235.00    132270.10
  253.84        3341.25           6735       31744.00    138898.40
  253.87        3341.50           6739       32561.00    142488.00
  253.89        3341.75           6743       33024.00    144522.60
  253.92        3342.00           6746       32817.00    143613.00
  253.95        3342.25           6750       32172.00    140778.80
  253.97        3342.50           6754       30525.00    133543.80
  254.00        3342.75           6758       28429.00    124340.60
  254.03        3343.00           6761       26990.00    118025.00
  254.06        3343.25           6765       25369.00    110913.20
  254.08        3343.50           6769       23659.00    103414.10
  254.11        3343.75           6773       21762.00     95098.58
  254.14        3344.00           6776       20404.00     89148.13
  254.17        3344.25           6780       18604.00     81264.03
  254.19        3344.50           6784       16701.00     72932.56
  254.22        3344.75           6788       14809.00     64653.12
  254.25        3345.00           6791       13125.00     57287.11
  254.28        3345.25           6795       10955.00     47799.77
  254.30        3345.50           6799        8452.00     36862.79
  254.33        3345.75           6803        6069.00     26456.38
  254.36        3346.00           6806        4802.00     20925.95
  254.38        3346.25           6810        3158.00     13752.46
  254.41        3346.50           6814        2140.00      9311.93
  254.44        3346.75           6818        1334.00      5796.93
  254.47        3347.00           6821         730.00      3163.31
  254.49        3347.25           6825         184.00       782.93
  254.52        3347.50           6829          50.00       198.78
  254.55        3347.75           6833          46.00       181.34
  254.57        3348.00           6836          39.00       150.83
  254.60        3348.25           6840          30.00       111.60
  254.63        3348.50           6844          26.00        94.16
  254.66        3348.75           6848          35.00       133.39
  254.68        3349.00           6851          25.00        89.80
  254.71        3349.25           6855          37.00       142.11
  254.74        3349.50           6859          33.00       124.67
  254.76        3349.75           6863          34.00       129.03
  254.79        3350.00           6867          29.00       107.24
  254.82        3350.25           6870          34.00       129.03
  254.85        3350.50           6874          39.00       150.83
  254.87        3350.75           6878          34.00       129.03
  254.90        3351.00           6882          39.00       150.83
HL scan finished at 04:15:31
end
