************************************************************
  HL Scan of (1) Internal mercury lamp
************************************************************
Integration time is 0.2294 seconds per sample
dh301018Tamanrasset 22.79-5.529 4.974364pr865
************************************************************
Dead Time -------------------------  2.8E-08 
Number of Cycles Used -------------  4 
Starting Wavelength (Angstroms) ---  3331 
Final Wavelength (Angstoms) -------  3351 
Wavelength Increment (Angstroms) --  .25 
Filter Wheel #1 Position ---------- (1) Ground quartz diffuser (ND=2.32)
Filter Wheel #2 Position ---------- (0) Clear Aperture



************************************************************
HL scan start time = 04:11:04
Dark Count =  5.3 


Time (GMT)  Wavelength (Ang)  Step Number  Raw Counts  Counts/Second

  251.57        3331.00           6581          32.00       116.39
  251.79        3331.25           6585          33.00       120.75
  251.82        3331.50           6589          30.00       107.67
  251.85        3331.75           6593          34.00       125.11
  251.87        3332.00           6596          30.00       107.67
  251.90        3332.25           6600          29.00       103.31
  251.93        3332.50           6604          32.00       116.39
  251.95        3332.75           6608          29.00       103.31
  251.98        3333.00           6611          26.00        90.24
  252.01        3333.25           6615          26.00        90.24
  252.04        3333.50           6619          25.00        85.88
  252.06        3333.75           6623          29.00       103.31
  252.09        3334.00           6626          31.00       112.03
  252.12        3334.25           6630          32.00       116.39
  252.14        3334.50           6634          28.00        98.95
  252.17        3334.75           6638          34.00       125.11
  252.20        3335.00           6641          30.00       107.67
  252.23        3335.25           6645          44.00       168.70
  252.25        3335.50           6649          35.00       129.47
  252.28        3335.75           6653          37.00       138.19
  252.31        3336.00           6656          73.00       295.12
  252.33        3336.25           6660         238.00      1014.41
  252.36        3336.50           6664         666.00      2880.35
  252.39        3336.75           6668        1034.00      4484.87
  252.42        3337.00           6671        1570.00      6822.14
  252.44        3337.25           6675        2942.00     12806.25
  252.47        3337.50           6679        4627.00     20158.28
  252.50        3337.75           6683        6299.00     27456.59
  252.52        3338.00           6686        7616.00     33207.41
  252.55        3338.25           6690        9595.00     41852.42
  252.58        3338.50           6694       11335.00     49456.85
  252.61        3338.75           6698       13048.00     56946.44
  252.63        3339.00           6701       14452.00     63087.37
  252.66        3339.25           6705       16202.00     70744.62
  252.69        3339.50           6709       18157.00     79302.75
  252.72        3339.75           6713       20031.00     87510.16
  252.74        3340.00           6716       21249.00     92846.55
  252.77        3340.25           6720       23022.00    100617.40
  252.80        3340.50           6724       24899.00    108847.80
  252.83        3340.75           6728       26754.00    116985.50
  252.85        3341.00           6731       27973.00    122335.10
  252.88        3341.25           6735       29245.00    127919.00
  252.91        3341.50           6739       30557.00    133680.40
  252.94        3341.75           6743       31279.00    136851.70
  252.96        3342.00           6746       31469.00    137686.30
  252.99        3342.25           6750       31038.00    135793.00
  253.02        3342.50           6754       30114.00    131734.80
  253.04        3342.75           6758       28260.00    123594.80
  253.07        3343.00           6761       27189.00    118894.30
  253.10        3343.25           6765       25323.00    110707.50
  253.13        3343.50           6769       23771.00    103901.20
  253.15        3343.75           6773       21915.00     95765.16
  253.18        3344.00           6776       20661.00     90270.16
  253.21        3344.25           6780       18831.00     82254.18
  253.24        3344.50           6784       17091.00     74635.76
  253.26        3344.75           6788       15098.00     65913.61
  253.29        3345.00           6791       13740.00     59972.90
  253.32        3345.25           6795       11801.00     51493.99
  253.35        3345.50           6799        9018.00     39331.43
  253.37        3345.75           6803        6904.00     30098.16
  253.40        3346.00           6806        5696.00     24824.14
  253.43        3346.25           6810        4136.00     18015.63
  253.46        3346.50           6814        3239.00     14101.91
  253.48        3346.75           6818        2069.00      8998.34
  253.51        3347.00           6821        1361.00      5910.74
  253.54        3347.25           6825         507.00      2187.14
  253.56        3347.50           6829         129.00       539.24
  253.59        3347.75           6833          40.00       151.26
  253.62        3348.00           6836          35.00       129.47
  253.65        3348.25           6840          37.00       138.19
  253.67        3348.50           6844          33.00       120.75
  253.70        3348.75           6848          32.00       116.39
  253.73        3349.00           6851          38.00       142.55
  253.75        3349.25           6855          27.00        94.59
  253.78        3349.50           6859          30.00       107.67
  253.81        3349.75           6863          33.00       120.75
  253.84        3350.00           6867          33.00       120.75
  253.86        3350.25           6870          28.00        98.95
  253.89        3350.50           6874          33.00       120.75
  253.92        3350.75           6878          31.00       112.03
  253.94        3351.00           6882          32.00       116.39
HL scan finished at 04:14:34
end
