************************************************************
  HL Scan of (1) Internal mercury lamp
************************************************************
Integration time is 0.2294 seconds per sample
dh061118Tamanrasset 22.79-5.529 4.974364pr865
************************************************************
Dead Time -------------------------  2.8E-08 
Number of Cycles Used -------------  4 
Starting Wavelength (Angstroms) ---  3331 
Final Wavelength (Angstoms) -------  3351 
Wavelength Increment (Angstroms) --  .25 
Filter Wheel #1 Position ---------- (1) Ground quartz diffuser (ND=2.32)
Filter Wheel #2 Position ---------- (0) Clear Aperture



************************************************************
HL scan start time = 04:14:56
Dark Count =  3.2 


Time (GMT)  Wavelength (Ang)  Step Number  Raw Counts  Counts/Second

  255.44        3331.00           6581          28.00       108.11
  255.66        3331.25           6585          31.00       121.19
  255.68        3331.50           6589          29.00       112.47
  255.71        3331.75           6593          32.00       125.55
  255.74        3332.00           6596          30.00       116.83
  255.77        3332.25           6600          25.00        95.03
  255.79        3332.50           6604          25.00        95.03
  255.82        3332.75           6608          26.00        99.39
  255.85        3333.00           6611          27.00       103.75
  255.87        3333.25           6615          31.00       121.19
  255.90        3333.50           6619          32.00       125.55
  255.93        3333.75           6623          29.00       112.47
  255.96        3334.00           6626          24.00        90.67
  255.98        3334.25           6630          34.00       134.26
  256.01        3334.50           6634          29.00       112.47
  256.04        3334.75           6638          33.00       129.90
  256.06        3335.00           6641          29.00       112.47
  256.09        3335.25           6645          35.00       138.62
  256.12        3335.50           6649          34.00       134.26
  256.15        3335.75           6653          39.00       156.06
  256.17        3336.00           6656          93.00       391.46
  256.20        3336.25           6660         249.00      1071.52
  256.23        3336.50           6664         480.00      2078.59
  256.26        3336.75           6668         916.00      3979.52
  256.28        3337.00           6671        1584.00      6892.35
  256.31        3337.25           6675        2951.00     12854.67
  256.34        3337.50           6679        4467.00     19469.20
  256.36        3337.75           6683        6021.00     26252.07
  256.39        3338.00           6686        7272.00     31714.29
  256.42        3338.25           6690        8829.00     38514.92
  256.45        3338.50           6694       10402.00     45388.08
  256.47        3338.75           6698       12021.00     52464.99
  256.50        3339.00           6701       13180.00     57532.89
  256.53        3339.25           6705       14912.00     65109.00
  256.56        3339.50           6709       16547.00     72263.78
  256.58        3339.75           6713       18101.00     79066.75
  256.61        3340.00           6716       19292.00     84282.37
  256.64        3340.25           6720       20813.00     90945.34
  256.67        3340.50           6724       22492.00     98303.34
  256.69        3340.75           6728       23999.00    104910.20
  256.72        3341.00           6731       25208.00    110212.30
  256.75        3341.25           6735       26516.00    115950.40
  256.77        3341.50           6739       27513.00    120325.40
  256.80        3341.75           6743       28166.00    123191.40
  256.83        3342.00           6746       27893.00    121993.20
  256.86        3342.25           6750       27608.00    120742.30
  256.88        3342.50           6754       26534.00    116029.40
  256.91        3342.75           6758       24986.00    109238.60
  256.94        3343.00           6761       23969.00    104778.60
  256.97        3343.25           6765       22535.00     98491.83
  256.99        3343.50           6769       20973.00     91646.39
  257.02        3343.75           6773       19343.00     84505.74
  257.05        3344.00           6776       18111.00     79110.53
  257.07        3344.25           6780       16532.00     72198.12
  257.10        3344.50           6784       15031.00     65629.65
  257.13        3344.75           6788       13273.00     57939.60
  257.16        3345.00           6791       11937.00     52097.74
  257.18        3345.25           6795       10149.00     44282.43
  257.21        3345.50           6799        8246.00     35968.20
  257.24        3345.75           6803        6069.00     26461.62
  257.27        3346.00           6806        4895.00     21337.07
  257.29        3346.25           6810        3526.00     15363.19
  257.32        3346.50           6814        2780.00     12108.73
  257.35        3346.75           6818        1755.00      7638.08
  257.37        3347.00           6821         969.00      4210.61
  257.40        3347.25           6825         307.00      1324.37
  257.43        3347.50           6829          64.00       265.04
  257.46        3347.75           6833          31.00       121.19
  257.48        3348.00           6836          37.00       147.34
  257.51        3348.25           6840          34.00       134.26
  257.54        3348.50           6844          30.00       116.83
  257.57        3348.75           6848          32.00       125.55
  257.59        3349.00           6851          36.00       142.98
  257.62        3349.25           6855          31.00       121.19
  257.65        3349.50           6859          27.00       103.75
  257.67        3349.75           6863          33.00       129.90
  257.70        3350.00           6867          30.00       116.83
  257.73        3350.25           6870          34.00       134.26
  257.76        3350.50           6874          30.00       116.83
  257.78        3350.75           6878          33.00       129.90
  257.81        3351.00           6882          32.00       125.55
HL scan finished at 04:18:26
end
