************************************************************
  HL Scan of (1) Internal mercury lamp
************************************************************
Integration time is 0.2294 seconds per sample
dh121118Tamanrasset 22.79-5.529 4.974364pr865
************************************************************
Dead Time -------------------------  2.8E-08 
Number of Cycles Used -------------  4 
Starting Wavelength (Angstroms) ---  3331 
Final Wavelength (Angstoms) -------  3351 
Wavelength Increment (Angstroms) --  .25 
Filter Wheel #1 Position ---------- (1) Ground quartz diffuser (ND=2.32)
Filter Wheel #2 Position ---------- (0) Clear Aperture



************************************************************
HL scan start time = 04:17:30
Dark Count =  4.7 


Time (GMT)  Wavelength (Ang)  Step Number  Raw Counts  Counts/Second

  258.02        3331.00           6581          30.00       110.29
  258.24        3331.25           6585          27.00        97.21
  258.26        3331.50           6589          32.00       119.01
  258.29        3331.75           6593          33.00       123.37
  258.32        3332.00           6596          26.00        92.85
  258.34        3332.25           6600          28.00       101.57
  258.37        3332.50           6604          32.00       119.01
  258.40        3332.75           6608          26.00        92.85
  258.43        3333.00           6611          27.00        97.21
  258.45        3333.25           6615          28.00       101.57
  258.48        3333.50           6619          21.00        71.06
  258.51        3333.75           6623          31.00       114.65
  258.53        3334.00           6626          32.00       119.01
  258.56        3334.25           6630          30.00       110.29
  258.59        3334.50           6634          32.00       119.01
  258.62        3334.75           6638          30.00       110.29
  258.64        3335.00           6641          31.00       114.65
  258.67        3335.25           6645          27.00        97.21
  258.70        3335.50           6649          28.00       101.57
  258.72        3335.75           6653          39.00       149.52
  258.75        3336.00           6656          46.00       180.04
  258.78        3336.25           6660         133.00       559.29
  258.81        3336.50           6664         446.00      1923.82
  258.83        3336.75           6668         744.00      3223.05
  258.86        3337.00           6671        1175.00      5102.30
  258.89        3337.25           6675        2230.00      9703.16
  258.92        3337.50           6679        3500.00     15243.21
  258.94        3337.75           6683        4865.00     21199.59
  258.97        3338.00           6686        5881.00     25634.35
  259.00        3338.25           6690        7326.00     31943.55
  259.03        3338.50           6694        8761.00     38211.31
  259.05        3338.75           6698       10051.00     43847.61
  259.08        3339.00           6701       11136.00     48589.60
  259.11        3339.25           6705       12714.00     55488.50
  259.13        3339.50           6709       13948.00     60885.32
  259.16        3339.75           6713       15366.00     67088.85
  259.19        3340.00           6716       16440.00     71788.90
  259.22        3340.25           6720       18008.00     78652.98
  259.24        3340.50           6724       19326.00     84424.71
  259.27        3340.75           6728       20522.00     89663.81
  259.30        3341.00           6731       21520.00     94036.74
  259.33        3341.25           6735       22898.00    100076.50
  259.35        3341.50           6739       23704.00    103610.10
  259.38        3341.75           6743       24462.00    106933.90
  259.41        3342.00           6746       24504.00    107118.10
  259.43        3342.25           6750       24326.00    106337.50
  259.46        3342.50           6754       23717.00    103667.10
  259.49        3342.75           6758       22558.00     98586.07
  259.52        3343.00           6761       21415.00     93576.60
  259.54        3343.25           6765       19976.00     87271.85
  259.57        3343.50           6769       18787.00     82064.11
  259.60        3343.75           6773       17213.00     75172.45
  259.63        3344.00           6776       16162.00     70572.18
  259.65        3344.25           6780       14816.00     64682.43
  259.68        3344.50           6784       13260.00     57876.19
  259.71        3344.75           6788       12049.00     52580.85
  259.74        3345.00           6791       10873.00     47440.05
  259.76        3345.25           6795        9502.00     41448.68
  259.79        3345.50           6799        7639.00     33310.48
  259.82        3345.75           6803        5611.00     24455.71
  259.84        3346.00           6806        4555.00     19846.68
  259.87        3346.25           6810        3467.00     15099.23
  259.90        3346.50           6814        2685.00     11687.78
  259.93        3346.75           6818        1784.00      7758.01
  259.95        3347.00           6821        1123.00      4875.56
  259.98        3347.25           6825         402.00      1731.99
  260.01        3347.50           6829         108.00       450.31
  260.04        3347.75           6833          30.00       110.29
  260.06        3348.00           6836          31.00       114.65
  260.09        3348.25           6840          36.00       136.44
  260.12        3348.50           6844          30.00       110.29
  260.14        3348.75           6848          28.00       101.57
  260.17        3349.00           6851          31.00       114.65
  260.20        3349.25           6855          33.00       123.37
  260.23        3349.50           6859          29.00       105.93
  260.25        3349.75           6863          32.00       119.01
  260.28        3350.00           6867          33.00       123.37
  260.31        3350.25           6870          30.00       110.29
  260.33        3350.50           6874          37.00       140.80
  260.36        3350.75           6878          30.00       110.29
  260.39        3351.00           6882          29.00       105.93
HL scan finished at 04:21:01
end
