************************************************************
  HL Scan of (1) Internal mercury lamp
************************************************************
Integration time is 0.2294 seconds per sample
dh141118Tamanrasset 22.79-5.529 4.974364pr865
************************************************************
Dead Time -------------------------  2.8E-08 
Number of Cycles Used -------------  4 
Starting Wavelength (Angstroms) ---  3331 
Final Wavelength (Angstoms) -------  3351 
Wavelength Increment (Angstroms) --  .25 
Filter Wheel #1 Position ---------- (1) Ground quartz diffuser (ND=2.32)
Filter Wheel #2 Position ---------- (0) Clear Aperture



************************************************************
HL scan start time = 04:18:29
Dark Count =  6.3 


Time (GMT)  Wavelength (Ang)  Step Number  Raw Counts  Counts/Second

  259.00        3331.00           6581          30.00       103.31
  259.22        3331.25           6585          30.00       103.31
  259.25        3331.50           6589          31.00       107.67
  259.27        3331.75           6593          29.00        98.95
  259.30        3332.00           6596          29.00        98.95
  259.33        3332.25           6600          25.00        81.52
  259.36        3332.50           6604          30.00       103.31
  259.38        3332.75           6608          32.00       112.03
  259.41        3333.00           6611          28.00        94.59
  259.44        3333.25           6615          31.00       107.67
  259.46        3333.50           6619          28.00        94.59
  259.49        3333.75           6623          29.00        98.95
  259.52        3334.00           6626          33.00       116.39
  259.55        3334.25           6630          26.00        85.88
  259.57        3334.50           6634          30.00       103.31
  259.60        3334.75           6638          30.00       103.31
  259.63        3335.00           6641          25.00        81.52
  259.65        3335.25           6645          33.00       116.39
  259.68        3335.50           6649          31.00       107.67
  259.71        3335.75           6653          39.00       142.55
  259.74        3336.00           6656          49.00       186.14
  259.76        3336.25           6660         135.00       561.04
  259.79        3336.50           6664         482.00      2073.79
  259.82        3336.75           6668         843.00      3647.71
  259.85        3337.00           6671        1234.00      5352.59
  259.87        3337.25           6675        2320.00     10088.73
  259.90        3337.50           6679        3642.00     15855.77
  259.93        3337.75           6683        5010.00     21825.45
  259.95        3338.00           6686        6013.00     26203.62
  259.98        3338.25           6690        7668.00     33430.15
  260.01        3338.50           6694        9015.00     39313.96
  260.04        3338.75           6698       10278.00     44832.62
  260.06        3339.00           6701       11360.00     49561.76
  260.09        3339.25           6705       12805.00     55879.43
  260.12        3339.50           6709       14214.00     62041.87
  260.15        3339.75           6713       15561.00     67935.12
  260.17        3340.00           6716       16557.00     72293.97
  260.20        3340.25           6720       18093.00     79018.13
  260.23        3340.50           6724       19639.00     85788.64
  260.26        3340.75           6728       20767.00     90730.21
  260.28        3341.00           6731       21756.00     95063.94
  260.31        3341.25           6735       22958.00    100332.50
  260.34        3341.50           6739       23691.00    103546.10
  260.36        3341.75           6743       24637.00    107694.40
  260.39        3342.00           6746       24550.00    107312.80
  260.42        3342.25           6750       24370.00    106523.40
  260.45        3342.50           6754       23734.00    103734.60
  260.47        3342.75           6758       22201.00     97014.26
  260.50        3343.00           6761       21299.00     93061.28
  260.53        3343.25           6765       19917.00     87006.38
  260.56        3343.50           6769       18750.00     81895.08
  260.58        3343.75           6773       17226.00     75222.35
  260.61        3344.00           6776       16163.00     70569.56
  260.64        3344.25           6780       14856.00     64850.44
  260.67        3344.50           6784       13296.00     58026.64
  260.69        3344.75           6788       11940.00     52097.31
  260.72        3345.00           6791       10831.00     47249.48
  260.75        3345.25           6795        9435.00     41148.95
  260.77        3345.50           6799        7431.00     32395.11
  260.80        3345.75           6803        5704.00     24854.70
  260.83        3346.00           6806        4626.00     20149.55
  260.86        3346.25           6810        3438.00     14965.73
  260.88        3346.50           6814        2414.00     10498.73
  260.91        3346.75           6818        1548.00      6721.84
  260.94        3347.00           6821        1047.00      4537.19
  260.97        3347.25           6825         393.00      1685.78
  260.99        3347.50           6829          80.00       321.28
  261.02        3347.75           6833          33.00       116.39
  261.05        3348.00           6836          35.00       125.11
  261.07        3348.25           6840          32.00       112.03
  261.10        3348.50           6844          29.00        98.95
  261.13        3348.75           6848          31.00       107.67
  261.16        3349.00           6851          35.00       125.11
  261.18        3349.25           6855          29.00        98.95
  261.21        3349.50           6859          28.00        94.59
  261.24        3349.75           6863          29.00        98.95
  261.26        3350.00           6867          37.00       133.83
  261.29        3350.25           6870          34.00       120.75
  261.32        3350.50           6874          31.00       107.67
  261.35        3350.75           6878          31.00       107.67
  261.37        3351.00           6882          30.00       103.31
HL scan finished at 04:22:00
end
