************************************************************
  HL Scan of (1) Internal mercury lamp
************************************************************
Integration time is 0.2294 seconds per sample
dh111118Tamanrasset 22.79-5.529 4.974364pr865
************************************************************
Dead Time -------------------------  2.8E-08 
Number of Cycles Used -------------  4 
Starting Wavelength (Angstroms) ---  3331 
Final Wavelength (Angstoms) -------  3351 
Wavelength Increment (Angstroms) --  .25 
Filter Wheel #1 Position ---------- (1) Ground quartz diffuser (ND=2.32)
Filter Wheel #2 Position ---------- (0) Clear Aperture



************************************************************
HL scan start time = 04:16:54
Dark Count =  3.1 


Time (GMT)  Wavelength (Ang)  Step Number  Raw Counts  Counts/Second

  257.41        3331.00           6581          36.00       143.42
  257.63        3331.25           6585          31.00       121.62
  257.65        3331.50           6589          29.00       112.90
  257.68        3331.75           6593          32.00       125.98
  257.71        3332.00           6596          25.00        95.47
  257.74        3332.25           6600          28.00       108.54
  257.76        3332.50           6604          30.00       117.26
  257.79        3332.75           6608          25.00        95.47
  257.82        3333.00           6611          25.00        95.47
  257.84        3333.25           6615          34.00       134.70
  257.87        3333.50           6619          29.00       112.90
  257.90        3333.75           6623          30.00       117.26
  257.93        3334.00           6626          22.00        82.39
  257.95        3334.25           6630          24.00        91.11
  257.98        3334.50           6634          25.00        95.47
  258.01        3334.75           6638          26.00        99.83
  258.03        3335.00           6641          28.00       108.54
  258.06        3335.25           6645          31.00       121.62
  258.09        3335.50           6649          30.00       117.26
  258.12        3335.75           6653          30.00       117.26
  258.14        3336.00           6656          81.00       339.58
  258.17        3336.25           6660         194.00       832.19
  258.20        3336.50           6664         419.00      1813.08
  258.22        3336.75           6668         918.00      3988.68
  258.25        3337.00           6671        1470.00      6395.65
  258.28        3337.25           6675        2593.00     11293.46
  258.31        3337.50           6679        3922.00     17091.44
  258.33        3337.75           6683        5270.00     22974.23
  258.36        3338.00           6686        6304.00     27488.02
  258.39        3338.25           6690        7736.00     33741.11
  258.42        3338.50           6694        9098.00     39690.56
  258.44        3338.75           6698       10575.00     46144.59
  258.47        3339.00           6701       11563.00     50463.15
  258.50        3339.25           6705       13023.00     56846.74
  258.52        3339.50           6709       14477.00     63206.36
  258.55        3339.75           6713       15779.00     68903.08
  258.58        3340.00           6716       16906.00     73835.59
  258.61        3340.25           6720       18364.00     80218.78
  258.63        3340.50           6724       19681.00     85986.64
  258.66        3340.75           6728       21050.00     91984.21
  258.69        3341.00           6731       21980.00     96059.69
  258.72        3341.25           6735       23117.00    101043.50
  258.74        3341.50           6739       24009.00    104954.50
  258.77        3341.75           6743       24294.00    106204.20
  258.80        3342.00           6746       24551.00    107331.20
  258.82        3342.25           6750       24169.00    105656.10
  258.85        3342.50           6754       23004.00    100548.20
  258.88        3342.75           6758       21858.00     95524.99
  258.91        3343.00           6761       20698.00     90441.91
  258.93        3343.25           6765       19568.00     85491.68
  258.96        3343.50           6769       18280.00     79850.96
  258.99        3343.75           6773       16891.00     73769.93
  259.02        3344.00           6776       15686.00     68496.11
  259.04        3344.25           6780       14525.00     63416.35
  259.07        3344.50           6784       13033.00     56890.47
  259.10        3344.75           6788       11556.00     50432.55
  259.13        3345.00           6791       10390.00     45336.07
  259.15        3345.25           6795        8812.00     38441.10
  259.18        3345.50           6799        6961.00     30356.66
  259.21        3345.75           6803        5173.00     22550.85
  259.23        3346.00           6806        4077.00     17767.77
  259.26        3346.25           6810        3018.00     13147.39
  259.29        3346.50           6814        2176.00      9474.61
  259.32        3346.75           6818        1445.00      6286.64
  259.34        3347.00           6821         841.00      3652.95
  259.37        3347.25           6825         261.00      1124.27
  259.40        3347.50           6829          53.00       217.53
  259.42        3347.75           6833          34.00       134.70
  259.45        3348.00           6836          35.00       139.06
  259.48        3348.25           6840          31.00       121.62
  259.51        3348.50           6844          33.00       130.34
  259.53        3348.75           6848          32.00       125.98
  259.56        3349.00           6851          29.00       112.90
  259.59        3349.25           6855          28.00       108.54
  259.61        3349.50           6859          27.00       104.19
  259.64        3349.75           6863          34.00       134.70
  259.67        3350.00           6867          33.00       130.34
  259.70        3350.25           6870          28.00       108.54
  259.72        3350.50           6874          30.00       117.26
  259.75        3350.75           6878          29.00       112.90
  259.78        3351.00           6882          30.00       117.26
HL scan finished at 04:20:24
end
