************************************************************
  HL Scan of (1) Internal mercury lamp
************************************************************
Integration time is 0.2294 seconds per sample
dh131118Tamanrasset 22.79-5.529 4.974364pr865
************************************************************
Dead Time -------------------------  2.8E-08 
Number of Cycles Used -------------  4 
Starting Wavelength (Angstroms) ---  3331 
Final Wavelength (Angstoms) -------  3351 
Wavelength Increment (Angstroms) --  .25 
Filter Wheel #1 Position ---------- (1) Ground quartz diffuser (ND=2.32)
Filter Wheel #2 Position ---------- (0) Clear Aperture



************************************************************
HL scan start time = 04:18:31
Dark Count =  5.3 


Time (GMT)  Wavelength (Ang)  Step Number  Raw Counts  Counts/Second

  259.03        3331.00           6581          29.00       103.31
  259.25        3331.25           6585          25.00        85.88
  259.27        3331.50           6589          26.00        90.24
  259.30        3331.75           6593          28.00        98.95
  259.33        3332.00           6596          21.00        68.44
  259.36        3332.25           6600          36.00       133.83
  259.38        3332.50           6604          25.00        85.88
  259.41        3332.75           6608          26.00        90.24
  259.44        3333.00           6611          32.00       116.39
  259.46        3333.25           6615          26.00        90.24
  259.49        3333.50           6619          30.00       107.67
  259.52        3333.75           6623          30.00       107.67
  259.55        3334.00           6626          27.00        94.59
  259.57        3334.25           6630          32.00       116.39
  259.60        3334.50           6634          28.00        98.95
  259.63        3334.75           6638          29.00       103.31
  259.65        3335.00           6641          28.00        98.95
  259.68        3335.25           6645          27.00        94.59
  259.71        3335.50           6649          40.00       151.26
  259.74        3335.75           6653          31.00       112.03
  259.76        3336.00           6656          53.00       207.93
  259.79        3336.25           6660         197.00       835.68
  259.82        3336.50           6664         596.00      2575.16
  259.84        3336.75           6668         945.00      4096.81
  259.87        3337.00           6671        1357.00      5893.30
  259.90        3337.25           6675        2612.00     11366.74
  259.93        3337.50           6679        3871.00     16859.31
  259.95        3337.75           6683        5218.00     22737.66
  259.98        3338.00           6686        6262.00     27295.05
  260.01        3338.25           6690        7794.00     33984.81
  260.04        3338.50           6694        9169.00     39991.14
  260.06        3338.75           6698       10656.00     46488.99
  260.09        3339.00           6701       11618.00     50693.97
  260.12        3339.25           6705       13094.00     57147.61
  260.14        3339.50           6709       14637.00     63896.70
  260.17        3339.75           6713       15972.00     69738.05
  260.20        3340.00           6716       17102.00     74683.91
  260.23        3340.25           6720       18498.00     80795.91
  260.25        3340.50           6724       19952.00     87164.08
  260.28        3340.75           6728       21246.00     92833.41
  260.31        3341.00           6731       22304.00     97470.09
  260.34        3341.25           6735       23357.00    102086.10
  260.36        3341.50           6739       24287.00    106163.90
  260.39        3341.75           6743       24910.00    108896.10
  260.42        3342.00           6746       24797.00    108400.50
  260.45        3342.25           6750       24580.00    107448.80
  260.47        3342.50           6754       23574.00    103037.50
  260.50        3342.75           6758       22131.00     96711.84
  260.53        3343.00           6761       21164.00     92474.09
  260.56        3343.25           6765       19866.00     86787.35
  260.58        3343.50           6769       18616.00     81312.65
  260.61        3343.75           6773       17219.00     75196.08
  260.64        3344.00           6776       16162.00     70569.56
  260.66        3344.25           6780       14756.00     64417.31
  260.69        3344.50           6784       13356.00     58293.42
  260.72        3344.75           6788       11834.00     51638.26
  260.75        3345.00           6791       10620.00     46331.65
  260.77        3345.25           6795        9261.00     40393.09
  260.80        3345.50           6799        7387.00     32207.33
  260.83        3345.75           6803        5346.00     23296.36
  260.86        3346.00           6806        4379.00     19076.01
  260.88        3346.25           6810        3273.00     14250.24
  260.91        3346.50           6814        2438.00     10607.77
  260.94        3346.75           6818        1629.00      7079.43
  260.96        3347.00           6821        1006.00      4362.78
  260.99        3347.25           6825         344.00      1476.52
  261.02        3347.50           6829          81.00       329.99
  261.05        3347.75           6833          39.00       146.91
  261.07        3348.00           6836          32.00       116.39
  261.10        3348.25           6840          33.00       120.75
  261.13        3348.50           6844          32.00       116.39
  261.15        3348.75           6848          31.00       112.03
  261.18        3349.00           6851          26.00        90.24
  261.21        3349.25           6855          32.00       116.39
  261.24        3349.50           6859          30.00       107.67
  261.26        3349.75           6863          33.00       120.75
  261.29        3350.00           6867          30.00       107.67
  261.32        3350.25           6870          30.00       107.67
  261.34        3350.50           6874          29.00       103.31
  261.37        3350.75           6878          31.00       112.03
  261.40        3351.00           6882          31.00       112.03
HL scan finished at 04:22:01
end
