************************************************************
  HL Scan of (1) Internal mercury lamp
************************************************************
Integration time is 0.2294 seconds per sample
dh151118Tamanrasset 22.79-5.529 4.974364pr865
************************************************************
Dead Time -------------------------  2.8E-08 
Number of Cycles Used -------------  4 
Starting Wavelength (Angstroms) ---  3331 
Final Wavelength (Angstoms) -------  3351 
Wavelength Increment (Angstroms) --  .25 
Filter Wheel #1 Position ---------- (1) Ground quartz diffuser (ND=2.32)
Filter Wheel #2 Position ---------- (0) Clear Aperture



************************************************************
HL scan start time = 04:19:53
Dark Count =  4.6 


Time (GMT)  Wavelength (Ang)  Step Number  Raw Counts  Counts/Second

  260.39        3331.00           6581          24.00        84.57
  260.61        3331.25           6585          26.00        93.29
  260.63        3331.50           6589          32.00       119.44
  260.66        3331.75           6593          25.00        88.93
  260.69        3332.00           6596          28.00       102.01
  260.71        3332.25           6600          31.00       115.08
  260.74        3332.50           6604          30.00       110.72
  260.77        3332.75           6608          25.00        88.93
  260.80        3333.00           6611          24.00        84.57
  260.82        3333.25           6615          30.00       110.72
  260.85        3333.50           6619          31.00       115.08
  260.88        3333.75           6623          27.00        97.65
  260.90        3334.00           6626          31.00       115.08
  260.93        3334.25           6630          32.00       119.44
  260.96        3334.50           6634          30.00       110.72
  260.99        3334.75           6638          26.00        93.29
  261.01        3335.00           6641          36.00       136.88
  261.04        3335.25           6645          30.00       110.72
  261.07        3335.50           6649          29.00       106.36
  261.09        3335.75           6653          35.00       132.52
  261.12        3336.00           6656          47.00       184.83
  261.15        3336.25           6660         204.00       869.25
  261.18        3336.50           6664         576.00      2491.02
  261.20        3336.75           6668         808.00      3502.52
  261.23        3337.00           6671        1313.00      5704.49
  261.26        3337.25           6675        2505.00     10903.07
  261.29        3337.50           6679        3876.00     16884.18
  261.31        3337.75           6683        5205.00     22683.98
  261.34        3338.00           6686        6349.00     27677.94
  261.37        3338.25           6690        7724.00     33682.15
  261.39        3338.50           6694        9072.00     39570.41
  261.42        3338.75           6698       10603.00     46260.41
  261.45        3339.00           6701       11677.00     50954.96
  261.48        3339.25           6705       13097.00     57163.79
  261.50        3339.50           6709       14610.00     63781.64
  261.53        3339.75           6713       16061.00     70130.61
  261.56        3340.00           6716       17068.00     74538.15
  261.59        3340.25           6720       18517.00     80882.18
  261.61        3340.50           6724       19989.00     87329.24
  261.64        3340.75           6728       21364.00     93353.56
  261.67        3341.00           6731       22236.00     97175.12
  261.69        3341.25           6735       23583.00    103080.00
  261.72        3341.50           6739       24580.00    107451.80
  261.75        3341.75           6743       25091.00    109693.00
  261.78        3342.00           6746       25036.00    109451.80
  261.80        3342.25           6750       24742.00    108162.30
  261.83        3342.50           6754       24023.00    105009.30
  261.86        3342.75           6758       22596.00     98753.07
  261.89        3343.00           6761       21703.00     94839.14
  261.91        3343.25           6765       20108.00     87850.53
  261.94        3343.50           6769       18751.00     81906.90
  261.97        3343.75           6773       17560.00     76691.98
  262.00        3344.00           6776       16303.00     71189.72
  262.02        3344.25           6780       14987.00     65431.02
  262.05        3344.50           6784       13607.00     59394.25
  262.08        3344.75           6788       12055.00     52607.52
  262.11        3345.00           6791       10827.00     47239.43
  262.13        3345.25           6795        9458.00     41256.88
  262.16        3345.50           6799        7558.00     32957.17
  262.19        3345.75           6803        5623.00     24508.53
  262.22        3346.00           6806        4441.00     19349.63
  262.24        3346.25           6810        3300.00     14371.08
  262.27        3346.50           6814        2471.00     10754.76
  262.30        3346.75           6818        1668.00      7252.56
  262.32        3347.00           6821        1046.00      4540.25
  262.35        3347.25           6825         374.00      1610.36
  262.38        3347.50           6829          94.00       389.72
  262.41        3347.75           6833          34.00       128.16
  262.43        3348.00           6836          34.00       128.16
  262.46        3348.25           6840          30.00       110.72
  262.49        3348.50           6844          31.00       115.08
  262.51        3348.75           6848          28.00       102.01
  262.54        3349.00           6851          34.00       128.16
  262.57        3349.25           6855          32.00       119.44
  262.60        3349.50           6859          31.00       115.08
  262.62        3349.75           6863          29.00       106.36
  262.65        3350.00           6867          30.00       110.72
  262.68        3350.25           6870          26.00        93.29
  262.70        3350.50           6874          31.00       115.08
  262.73        3350.75           6878          27.00        97.65
  262.76        3351.00           6882          29.00       106.36
HL scan finished at 04:23:23
end
