************************************************************
  HL Scan of (1) Internal mercury lamp
************************************************************
Integration time is 0.2294 seconds per sample
dh091118Tamanrasset 22.79-5.529 4.974364pr865
************************************************************
Dead Time -------------------------  2.8E-08 
Number of Cycles Used -------------  4 
Starting Wavelength (Angstroms) ---  3331 
Final Wavelength (Angstoms) -------  3351 
Wavelength Increment (Angstroms) --  .25 
Filter Wheel #1 Position ---------- (1) Ground quartz diffuser (ND=2.32)
Filter Wheel #2 Position ---------- (0) Clear Aperture



************************************************************
HL scan start time = 04:16:44
Dark Count =  4.1 


Time (GMT)  Wavelength (Ang)  Step Number  Raw Counts  Counts/Second

  257.24        3331.00           6581          30.00       112.90
  257.46        3331.25           6585          29.00       108.54
  257.49        3331.50           6589          29.00       108.54
  257.51        3331.75           6593          28.00       104.19
  257.54        3332.00           6596          26.00        95.47
  257.57        3332.25           6600          27.00        99.83
  257.60        3332.50           6604          30.00       112.90
  257.62        3332.75           6608          28.00       104.19
  257.65        3333.00           6611          27.00        99.83
  257.68        3333.25           6615          31.00       117.26
  257.70        3333.50           6619          25.00        91.11
  257.73        3333.75           6623          29.00       108.54
  257.76        3334.00           6626          27.00        99.83
  257.79        3334.25           6630          33.00       125.98
  257.81        3334.50           6634          32.00       121.62
  257.84        3334.75           6638          28.00       104.19
  257.87        3335.00           6641          34.00       130.34
  257.89        3335.25           6645          34.00       130.34
  257.92        3335.50           6649          36.00       139.06
  257.95        3335.75           6653          37.00       143.42
  257.98        3336.00           6656          58.00       234.96
  258.00        3336.25           6660         178.00       758.08
  258.03        3336.50           6664         584.00      2528.08
  258.06        3336.75           6668         906.00      3931.99
  258.08        3337.00           6671        1477.00      6421.82
  258.11        3337.25           6675        2740.00     11930.32
  258.14        3337.50           6679        4181.00     18217.22
  258.17        3337.75           6683        5565.00     24257.54
  258.19        3338.00           6686        6734.00     29361.10
  258.22        3338.25           6690        8356.00     36444.76
  258.25        3338.50           6694        9903.00     43203.50
  258.28        3338.75           6698       11348.00     49518.92
  258.30        3339.00           6701       12316.00     53750.85
  258.33        3339.25           6705       13988.00     61062.91
  258.36        3339.50           6709       15626.00     68229.18
  258.38        3339.75           6713       17167.00     74973.71
  258.41        3340.00           6716       18292.00     79899.13
  258.44        3340.25           6720       19911.00     86989.74
  258.47        3340.50           6724       21261.00     92904.40
  258.49        3340.75           6728       22858.00     99903.75
  258.52        3341.00           6731       23746.00    103796.90
  258.55        3341.25           6735       25216.00    110243.40
  258.58        3341.50           6739       26032.00    113823.00
  258.60        3341.75           6743       26617.00    116389.60
  258.63        3342.00           6746       26751.00    116977.60
  258.66        3342.25           6750       26329.00    115126.00
  258.68        3342.50           6754       25535.00    111642.70
  258.71        3342.75           6758       24149.00    105564.00
  258.74        3343.00           6761       23071.00    100837.50
  258.77        3343.25           6765       21534.00     94100.72
  258.79        3343.50           6769       20038.00     87546.08
  258.82        3343.75           6773       18459.00     80630.40
  258.85        3344.00           6776       17285.00     75490.27
  258.88        3344.25           6780       15812.00     69043.12
  258.90        3344.50           6784       14185.00     61924.64
  258.93        3344.75           6788       12676.00     55324.96
  258.96        3345.00           6791       11391.00     49706.89
  258.99        3345.25           6795        9924.00     43295.26
  259.01        3345.50           6799        7723.00     33679.96
  259.04        3345.75           6803        5705.00     24868.66
  259.07        3346.00           6806        4618.00     20124.24
  259.09        3346.25           6810        3479.00     15154.21
  259.12        3346.50           6814        2537.00     11044.83
  259.15        3346.75           6818        1559.00      6779.40
  259.18        3347.00           6821         905.00      3927.63
  259.20        3347.25           6825         309.00      1329.17
  259.23        3347.50           6829          72.00       295.99
  259.26        3347.75           6833          35.00       134.70
  259.29        3348.00           6836          34.00       130.34
  259.31        3348.25           6840          26.00        95.47
  259.34        3348.50           6844          32.00       121.62
  259.37        3348.75           6848          34.00       130.34
  259.39        3349.00           6851          28.00       104.19
  259.42        3349.25           6855          32.00       121.62
  259.45        3349.50           6859          33.00       125.98
  259.47        3349.75           6863          33.00       125.98
  259.50        3350.00           6867          29.00       108.54
  259.53        3350.25           6870          32.00       121.62
  259.56        3350.50           6874          29.00       108.54
  259.58        3350.75           6878          33.00       125.98
  259.61        3351.00           6882          32.00       121.62
HL scan finished at 04:20:14
end
