************************************************************
  HL Scan of (1) Internal mercury lamp
************************************************************
Integration time is 0.2294 seconds per sample
dh081118Tamanrasset 22.79-5.529 4.974364pr865
************************************************************
Dead Time -------------------------  2.8E-08 
Number of Cycles Used -------------  4 
Starting Wavelength (Angstroms) ---  3331 
Final Wavelength (Angstoms) -------  3351 
Wavelength Increment (Angstroms) --  .25 
Filter Wheel #1 Position ---------- (1) Ground quartz diffuser (ND=2.32)
Filter Wheel #2 Position ---------- (0) Clear Aperture



************************************************************
HL scan start time = 04:16:00
Dark Count =  3.2 


Time (GMT)  Wavelength (Ang)  Step Number  Raw Counts  Counts/Second

  256.51        3331.00           6581          35.00       138.62
  256.73        3331.25           6585          31.00       121.19
  256.75        3331.50           6589          27.00       103.75
  256.78        3331.75           6593          26.00        99.39
  256.81        3332.00           6596          32.00       125.55
  256.84        3332.25           6600          32.00       125.55
  256.86        3332.50           6604          26.00        99.39
  256.89        3332.75           6608          27.00       103.75
  256.92        3333.00           6611          31.00       121.19
  256.94        3333.25           6615          30.00       116.83
  256.97        3333.50           6619          27.00       103.75
  257.00        3333.75           6623          32.00       125.55
  257.03        3334.00           6626          30.00       116.83
  257.05        3334.25           6630          30.00       116.83
  257.08        3334.50           6634          29.00       112.47
  257.11        3334.75           6638          30.00       116.83
  257.13        3335.00           6641          23.00        86.31
  257.16        3335.25           6645          32.00       125.55
  257.19        3335.50           6649          36.00       142.98
  257.22        3335.75           6653          36.00       142.98
  257.24        3336.00           6656          50.00       204.01
  257.27        3336.25           6660         174.00       744.57
  257.30        3336.50           6664         470.00      2034.99
  257.33        3336.75           6668         701.00      3042.11
  257.35        3337.00           6671        1176.00      5113.20
  257.38        3337.25           6675        2284.00      9945.23
  257.41        3337.50           6679        3630.00     15816.94
  257.43        3337.75           6683        5076.00     22127.05
  257.46        3338.00           6686        6221.00     27125.22
  257.49        3338.25           6690        7659.00     33404.38
  257.52        3338.50           6694        9270.00     40441.58
  257.54        3338.75           6698       10842.00     47311.11
  257.57        3339.00           6701       11913.00     51992.82
  257.60        3339.25           6705       13344.00     58250.12
  257.63        3339.50           6709       14847.00     64824.62
  257.65        3339.75           6713       16508.00     72093.07
  257.68        3340.00           6716       17667.00     77166.56
  257.71        3340.25           6720       19178.00     83783.06
  257.73        3340.50           6724       20541.00     89753.62
  257.76        3340.75           6728       22120.00     96672.84
  257.79        3341.00           6731       23076.00    100863.40
  257.82        3341.25           6735       24413.00    106725.60
  257.84        3341.50           6739       25544.00    111686.10
  257.87        3341.75           6743       26138.00    114292.00
  257.90        3342.00           6746       26358.00    115257.20
  257.93        3342.25           6750       26240.00    114739.40
  257.95        3342.50           6754       25465.00    111339.60
  257.98        3342.75           6758       24066.00    105204.00
  258.01        3343.00           6761       23080.00    100880.90
  258.04        3343.25           6765       21668.00     94691.89
  258.06        3343.50           6769       20301.00     88702.16
  258.09        3343.75           6773       18587.00     81194.85
  258.12        3344.00           6776       17523.00     76536.13
  258.14        3344.25           6780       16225.00     70854.47
  258.17        3344.50           6784       14458.00     63122.80
  258.20        3344.75           6788       13031.00     56881.28
  258.23        3345.00           6791       11709.00     51100.96
  258.25        3345.25           6795       10183.00     44431.00
  258.28        3345.50           6799        8183.00     35693.02
  258.31        3345.75           6803        6121.00     26688.64
  258.34        3346.00           6806        4966.00     21646.94
  258.36        3346.25           6810        3685.00     16056.91
  258.39        3346.50           6814        2974.00     12955.00
  258.42        3346.75           6818        1971.00      8580.09
  258.44        3347.00           6821        1331.00      5789.08
  258.47        3347.25           6825         482.00      2087.31
  258.50        3347.50           6829         125.00       530.96
  258.53        3347.75           6833          43.00       173.50
  258.55        3348.00           6836          33.00       129.90
  258.58        3348.25           6840          32.00       125.55
  258.61        3348.50           6844          35.00       138.62
  258.64        3348.75           6848          30.00       116.83
  258.66        3349.00           6851          31.00       121.19
  258.69        3349.25           6855          28.00       108.11
  258.72        3349.50           6859          30.00       116.83
  258.74        3349.75           6863          29.00       112.47
  258.77        3350.00           6867          38.00       151.70
  258.80        3350.25           6870          31.00       121.19
  258.82        3350.50           6874          30.00       116.83
  258.85        3350.75           6878          32.00       125.55
  258.88        3351.00           6882          30.00       116.83
HL scan finished at 04:19:30
end
