************************************************************
  HL Scan of (1) Internal mercury lamp
************************************************************
Integration time is 0.2294 seconds per sample
dh101118Tamanrasset 22.79-5.529 4.974364pr865
************************************************************
Dead Time -------------------------  2.8E-08 
Number of Cycles Used -------------  4 
Starting Wavelength (Angstroms) ---  3331 
Final Wavelength (Angstoms) -------  3351 
Wavelength Increment (Angstroms) --  .25 
Filter Wheel #1 Position ---------- (1) Ground quartz diffuser (ND=2.32)
Filter Wheel #2 Position ---------- (0) Clear Aperture



************************************************************
HL scan start time = 04:16:32
Dark Count =  4.5 


Time (GMT)  Wavelength (Ang)  Step Number  Raw Counts  Counts/Second

  257.04        3331.00           6581          27.00        98.08
  257.26        3331.25           6585          34.00       128.60
  257.29        3331.50           6589          31.00       115.52
  257.32        3331.75           6593          27.00        98.08
  257.34        3332.00           6596          24.00        85.00
  257.37        3332.25           6600          29.00       106.80
  257.40        3332.50           6604          27.00        98.08
  257.43        3332.75           6608          24.00        85.00
  257.45        3333.00           6611          29.00       106.80
  257.48        3333.25           6615          28.00       102.44
  257.51        3333.50           6619          29.00       106.80
  257.53        3333.75           6623          31.00       115.52
  257.56        3334.00           6626          31.00       115.52
  257.59        3334.25           6630          26.00        93.72
  257.62        3334.50           6634          26.00        93.72
  257.64        3334.75           6638          25.00        89.36
  257.67        3335.00           6641          29.00       106.80
  257.70        3335.25           6645          36.00       137.32
  257.72        3335.50           6649          34.00       128.60
  257.75        3335.75           6653          39.00       150.39
  257.78        3336.00           6656          51.00       202.70
  257.81        3336.25           6660         183.00       778.13
  257.83        3336.50           6664         555.00      2399.90
  257.86        3336.75           6668         892.00      3869.21
  257.89        3337.00           6671        1379.00      5992.72
  257.91        3337.25           6675        2536.00     11038.72
  257.94        3337.50           6679        3952.00     17216.23
  257.97        3337.75           6683        5325.00     23208.19
  258.00        3338.00           6686        6443.00     28088.78
  258.02        3338.25           6690        7926.00     34564.83
  258.05        3338.50           6694        9271.00     40440.27
  258.08        3338.75           6698       10664.00     46527.45
  258.10        3339.00           6701       11695.00     51034.08
  258.13        3339.25           6705       12998.00     56731.29
  258.16        3339.50           6709       14596.00     63720.83
  258.19        3339.75           6713       16198.00     70730.62
  258.21        3340.00           6716       17224.00     75221.48
  258.24        3340.25           6720       18547.00     81014.00
  258.27        3340.50           6724       20088.00     87763.35
  258.30        3340.75           6728       21391.00     93472.31
  258.32        3341.00           6731       22378.00     97797.96
  258.35        3341.25           6735       23548.00    102927.00
  258.38        3341.50           6739       24547.00    107307.60
  258.41        3341.75           6743       25136.00    109890.80
  258.43        3342.00           6746       25373.00    110930.30
  258.46        3342.25           6750       24767.00    108272.40
  258.49        3342.50           6754       24212.00    105838.50
  258.51        3342.75           6758       22877.00     99985.29
  258.54        3343.00           6761       21844.00     95457.50
  258.57        3343.25           6765       20249.00     88468.66
  258.60        3343.50           6769       19044.00     83190.51
  258.62        3343.75           6773       17693.00     77274.69
  258.65        3344.00           6776       16551.00     72275.59
  258.68        3344.25           6780       15080.00     65838.35
  258.71        3344.50           6784       13667.00     59657.11
  258.73        3344.75           6788       12124.00     52909.63
  258.76        3345.00           6791       11117.00     48507.43
  258.79        3345.25           6795        9590.00     41834.07
  258.81        3345.50           6799        7777.00     33914.06
  258.84        3345.75           6803        5689.00     24797.07
  258.87        3346.00           6806        4496.00     19590.08
  258.90        3346.25           6810        3310.00     14415.15
  258.92        3346.50           6814        2429.00     10572.01
  258.95        3346.75           6818        1598.00      6947.73
  258.98        3347.00           6821         981.00      4257.26
  259.01        3347.25           6825         348.00      1497.45
  259.03        3347.50           6829          85.00       350.92
  259.06        3347.75           6833          36.00       137.32
  259.09        3348.00           6836          34.00       128.60
  259.12        3348.25           6840          29.00       106.80
  259.14        3348.50           6844          32.00       119.88
  259.17        3348.75           6848          28.00       102.44
  259.20        3349.00           6851          31.00       115.52
  259.22        3349.25           6855          27.00        98.08
  259.25        3349.50           6859          31.00       115.52
  259.28        3349.75           6863          30.00       111.16
  259.31        3350.00           6867          27.00        98.08
  259.33        3350.25           6870          30.00       111.16
  259.36        3350.50           6874          30.00       111.16
  259.39        3350.75           6878          29.00       106.80
  259.41        3351.00           6882          30.00       111.16
HL scan finished at 04:20:02
end
