************************************************************
  HL Scan of (1) Internal mercury lamp
************************************************************
Integration time is 0.2294 seconds per sample
dh071118Tamanrasset 22.79-5.529 4.974364pr865
************************************************************
Dead Time -------------------------  2.8E-08 
Number of Cycles Used -------------  4 
Starting Wavelength (Angstroms) ---  3331 
Final Wavelength (Angstoms) -------  3351 
Wavelength Increment (Angstroms) --  .25 
Filter Wheel #1 Position ---------- (1) Ground quartz diffuser (ND=2.32)
Filter Wheel #2 Position ---------- (0) Clear Aperture



************************************************************
HL scan start time = 04:15:49
Dark Count =  4.3 


Time (GMT)  Wavelength (Ang)  Step Number  Raw Counts  Counts/Second

  256.32        3331.00           6581          29.00       107.67
  256.54        3331.25           6585          27.00        98.95
  256.57        3331.50           6589          28.00       103.31
  256.60        3331.75           6593          27.00        98.95
  256.62        3332.00           6596          24.00        85.88
  256.65        3332.25           6600          31.00       116.39
  256.68        3332.50           6604          28.00       103.31
  256.71        3332.75           6608          30.00       112.03
  256.73        3333.00           6611          27.00        98.95
  256.76        3333.25           6615          33.00       125.11
  256.79        3333.50           6619          28.00       103.31
  256.82        3333.75           6623          27.00        98.95
  256.84        3334.00           6626          28.00       103.31
  256.87        3334.25           6630          28.00       103.31
  256.90        3334.50           6634          24.00        85.88
  256.92        3334.75           6638          30.00       112.03
  256.95        3335.00           6641          25.00        90.24
  256.98        3335.25           6645          30.00       112.03
  257.01        3335.50           6649          31.00       116.39
  257.03        3335.75           6653          35.00       133.83
  257.06        3336.00           6656          63.00       255.89
  257.09        3336.25           6660         233.00       996.98
  257.11        3336.50           6664         740.00      3207.35
  257.14        3336.75           6668        1292.00      5614.22
  257.17        3337.00           6671        1613.00      7014.02
  257.20        3337.25           6675        2865.00     12474.72
  257.22        3337.50           6679        4308.00     18770.55
  257.25        3337.75           6683        5789.00     25234.48
  257.28        3338.00           6686        6900.00     30085.05
  257.31        3338.25           6690        8476.00     36968.07
  257.33        3338.50           6694       10063.00     43901.80
  257.36        3338.75           6698       11467.00     50038.24
  257.39        3339.00           6701       12776.00     55761.37
  257.41        3339.25           6705       14211.00     62037.49
  257.44        3339.50           6709       15830.00     69121.01
  257.47        3339.75           6713       17458.00     76246.74
  257.50        3340.00           6716       18611.00     81295.13
  257.52        3340.25           6720       20072.00     87694.14
  257.55        3340.50           6724       21524.00     94056.01
  257.58        3340.75           6728       23073.00    100845.40
  257.61        3341.00           6731       24076.00    105243.00
  257.63        3341.25           6735       25450.00    111269.00
  257.66        3341.50           6739       26426.00    115550.70
  257.69        3341.75           6743       26926.00    117744.60
  257.72        3342.00           6746       26678.00    116656.40
  257.74        3342.25           6750       26348.00    115208.50
  257.77        3342.50           6754       25537.00    111650.60
  257.80        3342.75           6758       23958.00    104725.60
  257.82        3343.00           6761       22847.00     99854.65
  257.85        3343.25           6765       21148.00     92408.36
  257.88        3343.50           6769       20174.00     88140.97
  257.91        3343.75           6773       18434.00     80520.05
  257.93        3344.00           6776       17193.00     75086.65
  257.96        3344.25           6780       15696.00     68534.62
  257.99        3344.50           6784       14110.00     61595.68
  258.02        3344.75           6788       12585.00     54926.17
  258.04        3345.00           6791       11260.00     49133.37
  258.07        3345.25           6795        9826.00     42866.15
  258.10        3345.50           6799        7570.00     33010.88
  258.12        3345.75           6803        5561.00     24239.20
  258.15        3346.00           6806        4471.00     19481.85
  258.18        3346.25           6810        3159.00     13757.26
  258.21        3346.50           6814        2188.00      9521.72
  258.23        3346.75           6818        1287.00      5592.42
  258.26        3347.00           6821         831.00      3604.11
  258.29        3347.25           6825         263.00      1127.76
  258.32        3347.50           6829          50.00       199.22
  258.34        3347.75           6833          35.00       133.83
  258.37        3348.00           6836          30.00       112.03
  258.40        3348.25           6840          32.00       120.75
  258.42        3348.50           6844          26.00        94.59
  258.45        3348.75           6848          32.00       120.75
  258.48        3349.00           6851          29.00       107.67
  258.51        3349.25           6855          30.00       112.03
  258.53        3349.50           6859          29.00       107.67
  258.56        3349.75           6863          34.00       129.47
  258.59        3350.00           6867          33.00       125.11
  258.61        3350.25           6870          28.00       103.31
  258.64        3350.50           6874          32.00       120.75
  258.67        3350.75           6878          25.00        90.24
  258.70        3351.00           6882          32.00       120.75
HL scan finished at 04:19:19
end
