************************************************************
  HL Scan of (1) Internal mercury lamp
************************************************************
Integration time is 0.2294 seconds per sample
dh231118Tamanrasset 22.79-5.529 4.974364pr865
************************************************************
Dead Time -------------------------  2.8E-08 
Number of Cycles Used -------------  4 
Starting Wavelength (Angstroms) ---  3331 
Final Wavelength (Angstoms) -------  3351 
Wavelength Increment (Angstroms) --  .25 
Filter Wheel #1 Position ---------- (1) Ground quartz diffuser (ND=2.32)
Filter Wheel #2 Position ---------- (0) Clear Aperture



************************************************************
HL scan start time = 04:25:21
Dark Count =  3.8 


Time (GMT)  Wavelength (Ang)  Step Number  Raw Counts  Counts/Second

  265.86        3331.00           6581          28.00       105.49
  266.08        3331.25           6585          30.00       114.21
  266.11        3331.50           6589          25.00        92.42
  266.13        3331.75           6593          26.00        96.77
  266.16        3332.00           6596          31.00       118.57
  266.19        3332.25           6600          30.00       114.21
  266.22        3332.50           6604          30.00       114.21
  266.24        3332.75           6608          29.00       109.85
  266.27        3333.00           6611          29.00       109.85
  266.30        3333.25           6615          32.00       122.93
  266.32        3333.50           6619          30.00       114.21
  266.35        3333.75           6623          25.00        92.42
  266.38        3334.00           6626          24.00        88.06
  266.41        3334.25           6630          37.00       144.73
  266.43        3334.50           6634          30.00       114.21
  266.46        3334.75           6638          28.00       105.49
  266.49        3335.00           6641          33.00       127.29
  266.51        3335.25           6645          33.00       127.29
  266.54        3335.50           6649          37.00       144.73
  266.57        3335.75           6653          47.00       188.32
  266.60        3336.00           6656          66.00       271.14
  266.62        3336.25           6660         259.00      1112.50
  266.65        3336.50           6664         773.00      3353.41
  266.68        3336.75           6668        1129.00      4905.64
  266.70        3337.00           6671        1700.00      7395.60
  266.73        3337.25           6675        3072.00     13379.90
  266.76        3337.50           6679        4562.00     19881.16
  266.79        3337.75           6683        6057.00     26406.62
  266.81        3338.00           6686        7261.00     31663.63
  266.84        3338.25           6690        8891.00     38783.16
  266.87        3338.50           6694       10438.00     45542.79
  266.89        3338.75           6698       11975.00     52261.25
  266.92        3339.00           6701       13197.00     57604.61
  266.95        3339.25           6705       14739.00     64349.50
  266.98        3339.50           6709       16454.00     71854.10
  267.00        3339.75           6713       17971.00     78494.91
  267.03        3340.00           6716       19176.00     83771.68
  267.06        3340.25           6720       20651.00     90232.91
  267.09        3340.50           6724       22332.00     97599.40
  267.11        3340.75           6728       23846.00    104236.70
  267.14        3341.00           6731       24788.00    108367.60
  267.17        3341.25           6735       26205.00    114583.30
  267.20        3341.50           6739       27235.00    119102.70
  267.22        3341.75           6743       27463.00    120103.30
  267.25        3342.00           6746       27427.00    119945.30
  267.28        3342.25           6750       26843.00    117382.60
  267.30        3342.50           6754       26111.00    114170.90
  267.33        3342.75           6758       24422.00    106762.40
  267.36        3343.00           6761       23462.00    102553.00
  267.39        3343.25           6765       21728.00     94952.19
  267.41        3343.50           6769       20481.00     89488.11
  267.44        3343.75           6773       18851.00     82348.33
  267.47        3344.00           6776       17336.00     75714.85
  267.50        3344.25           6780       15964.00     69709.60
  267.52        3344.50           6784       14387.00     62809.59
  267.55        3344.75           6788       12741.00     55610.50
  267.58        3345.00           6791       11506.00     50210.91
  267.60        3345.25           6795        9934.00     43340.28
  267.63        3345.50           6799        7740.00     33755.52
  267.66        3345.75           6803        5725.00     24957.28
  267.69        3346.00           6806        4527.00     19728.42
  267.71        3346.25           6810        3296.00     14357.12
  267.74        3346.50           6814        2289.00      9964.42
  267.77        3346.75           6818        1425.00      6196.37
  267.80        3347.00           6821         896.00      3889.70
  267.82        3347.25           6825         270.00      1160.46
  267.85        3347.50           6829          54.00       218.83
  267.88        3347.75           6833          34.00       131.65
  267.90        3348.00           6836          32.00       122.93
  267.93        3348.25           6840          34.00       131.65
  267.96        3348.50           6844          29.00       109.85
  267.99        3348.75           6848          31.00       118.57
  268.01        3349.00           6851          28.00       105.49
  268.04        3349.25           6855          33.00       127.29
  268.07        3349.50           6859          32.00       122.93
  268.09        3349.75           6863          31.00       118.57
  268.12        3350.00           6867          31.00       118.57
  268.15        3350.25           6870          32.00       122.93
  268.18        3350.50           6874          34.00       131.65
  268.20        3350.75           6878          31.00       118.57
  268.23        3351.00           6882          31.00       118.57
HL scan finished at 04:28:51
end
