************************************************************
  HL Scan of (1) Internal mercury lamp
************************************************************
Integration time is 0.2294 seconds per sample
dh221118Tamanrasset 22.79-5.529 4.974364pr865
************************************************************
Dead Time -------------------------  2.8E-08 
Number of Cycles Used -------------  4 
Starting Wavelength (Angstroms) ---  3331 
Final Wavelength (Angstoms) -------  3351 
Wavelength Increment (Angstroms) --  .25 
Filter Wheel #1 Position ---------- (1) Ground quartz diffuser (ND=2.32)
Filter Wheel #2 Position ---------- (0) Clear Aperture



************************************************************
HL scan start time = 04:24:52
Dark Count =  5.4 


Time (GMT)  Wavelength (Ang)  Step Number  Raw Counts  Counts/Second

  265.37        3331.00           6581          32.00       115.96
  265.59        3331.25           6585          27.00        94.16
  265.62        3331.50           6589          29.00       102.88
  265.64        3331.75           6593          32.00       115.96
  265.67        3332.00           6596          27.00        94.16
  265.70        3332.25           6600          27.00        94.16
  265.72        3332.50           6604          29.00       102.88
  265.75        3332.75           6608          24.00        81.08
  265.78        3333.00           6611          24.00        81.08
  265.81        3333.25           6615          27.00        94.16
  265.83        3333.50           6619          33.00       120.31
  265.86        3333.75           6623          32.00       115.96
  265.89        3334.00           6626          29.00       102.88
  265.91        3334.25           6630          27.00        94.16
  265.94        3334.50           6634          27.00        94.16
  265.97        3334.75           6638          30.00       107.24
  266.00        3335.00           6641          29.00       102.88
  266.02        3335.25           6645          28.00        98.52
  266.05        3335.50           6649          33.00       120.31
  266.08        3335.75           6653          40.00       150.83
  266.10        3336.00           6656          52.00       203.14
  266.13        3336.25           6660         213.00       904.99
  266.16        3336.50           6664         555.00      2395.98
  266.19        3336.75           6668         867.00      3756.28
  266.21        3337.00           6671        1335.00      5796.93
  266.24        3337.25           6675        2487.00     10821.07
  266.27        3337.50           6679        3871.00     16858.87
  266.30        3337.75           6683        5165.00     22505.90
  266.32        3338.00           6686        6322.00     27556.57
  266.35        3338.25           6690        7840.00     34185.28
  266.38        3338.50           6694        9273.00     40445.08
  266.41        3338.75           6698       10724.00     46785.75
  266.43        3339.00           6701       11838.00     51655.31
  266.46        3339.25           6705       13400.00     58485.41
  266.49        3339.50           6709       14734.00     64320.62
  266.51        3339.75           6713       16276.00     71068.04
  266.54        3340.00           6716       17363.00     75826.03
  266.57        3340.25           6720       19027.00     83112.11
  266.60        3340.50           6724       20333.00     88832.71
  266.62        3340.75           6728       21703.00     94835.62
  266.65        3341.00           6731       22866.00     99933.12
  266.68        3341.25           6735       23973.00    104786.50
  266.71        3341.50           6739       24927.00    108970.20
  266.73        3341.75           6743       25575.00    111812.50
  266.76        3342.00           6746       25666.00    112211.60
  266.79        3342.25           6750       25391.00    111005.40
  266.82        3342.50           6754       24494.00    107071.20
  266.84        3342.75           6758       23030.00    100652.10
  266.87        3343.00           6761       22251.00     97237.36
  266.90        3343.25           6765       20952.00     91544.72
  266.92        3343.50           6769       19676.00     85954.66
  266.95        3343.75           6773       18017.00     78689.32
  266.98        3344.00           6776       16972.00     74114.41
  267.01        3344.25           6780       15430.00     67365.83
  267.03        3344.50           6784       14006.00     61135.95
  267.06        3344.75           6788       12416.00     54182.40
  267.09        3345.00           6791       11363.00     49578.81
  267.12        3345.25           6795        9739.00     42481.19
  267.14        3345.50           6799        7887.00     34390.56
  267.17        3345.75           6803        5932.00     25853.93
  267.20        3346.00           6806        4722.00     20572.44
  267.23        3346.25           6810        3313.00     14424.31
  267.25        3346.50           6814        2497.00     10864.68
  267.28        3346.75           6818        1786.00      7763.68
  267.31        3347.00           6821        1157.00      5020.76
  267.33        3347.25           6825         409.00      1759.46
  267.36        3347.50           6829          98.00       403.67
  267.39        3347.75           6833          34.00       124.67
  267.42        3348.00           6836          37.00       137.75
  267.44        3348.25           6840          31.00       111.60
  267.47        3348.50           6844          36.00       133.39
  267.50        3348.75           6848          30.00       107.24
  267.52        3349.00           6851          31.00       111.60
  267.55        3349.25           6855          32.00       115.96
  267.58        3349.50           6859          33.00       120.31
  267.61        3349.75           6863          33.00       120.31
  267.63        3350.00           6867          27.00        94.16
  267.66        3350.25           6870          30.00       107.24
  267.69        3350.50           6874          26.00        89.80
  267.72        3350.75           6878          33.00       120.31
  267.74        3351.00           6882          30.00       107.24
HL scan finished at 04:28:22
end
