************************************************************
  HL Scan of (1) Internal mercury lamp
************************************************************
Integration time is 0.2294 seconds per sample
dh181118Tamanrasset 22.79-5.529 4.974364pr865
************************************************************
Dead Time -------------------------  2.8E-08 
Number of Cycles Used -------------  4 
Starting Wavelength (Angstroms) ---  3331 
Final Wavelength (Angstoms) -------  3351 
Wavelength Increment (Angstroms) --  .25 
Filter Wheel #1 Position ---------- (1) Ground quartz diffuser (ND=2.32)
Filter Wheel #2 Position ---------- (0) Clear Aperture



************************************************************
HL scan start time = 04:21:53
Dark Count =  4.6 


Time (GMT)  Wavelength (Ang)  Step Number  Raw Counts  Counts/Second

  262.40        3331.00           6581          30.00       110.72
  262.62        3331.25           6585          28.00       102.01
  262.64        3331.50           6589          26.00        93.29
  262.67        3331.75           6593          30.00       110.72
  262.70        3332.00           6596          28.00       102.01
  262.72        3332.25           6600          32.00       119.44
  262.75        3332.50           6604          29.00       106.36
  262.78        3332.75           6608          32.00       119.44
  262.81        3333.00           6611          27.00        97.65
  262.83        3333.25           6615          29.00       106.36
  262.86        3333.50           6619          31.00       115.08
  262.89        3333.75           6623          34.00       128.16
  262.91        3334.00           6626          27.00        97.65
  262.94        3334.25           6630          28.00       102.01
  262.97        3334.50           6634          27.00        97.65
  263.00        3334.75           6638          32.00       119.44
  263.02        3335.00           6641          26.00        93.29
  263.05        3335.25           6645          34.00       128.16
  263.08        3335.50           6649          34.00       128.16
  263.10        3335.75           6653          30.00       110.72
  263.13        3336.00           6656          43.00       167.39
  263.16        3336.25           6660         146.00       616.40
  263.19        3336.50           6664         426.00      1837.06
  263.21        3336.75           6668         722.00      3127.56
  263.24        3337.00           6671        1192.00      5176.86
  263.27        3337.25           6675        2351.00     10231.35
  263.30        3337.50           6679        3575.00     15570.87
  263.32        3337.75           6683        4945.00     21549.18
  263.35        3338.00           6686        6048.00     26363.83
  263.38        3338.25           6690        7402.00     32275.89
  263.40        3338.50           6694        8710.00     37988.95
  263.43        3338.75           6698       10080.00     43974.78
  263.46        3339.00           6701       11110.00     48476.40
  263.49        3339.25           6705       12555.00     54793.68
  263.51        3339.50           6709       14065.00     61397.53
  263.54        3339.75           6713       15512.00     67728.15
  263.57        3340.00           6716       16584.00     72419.59
  263.60        3340.25           6720       17983.00     78543.96
  263.62        3340.50           6724       19351.00     84534.64
  263.65        3340.75           6728       20746.00     90645.65
  263.68        3341.00           6731       21789.00     95216.02
  263.71        3341.25           6735       22792.00     99612.24
  263.73        3341.50           6739       23920.00    104557.60
  263.76        3341.75           6743       24170.00    105653.90
  263.79        3342.00           6746       24439.00    106833.50
  263.81        3342.25           6750       24243.00    105974.00
  263.84        3342.50           6754       23510.00    102759.90
  263.87        3342.75           6758       22223.00     97118.14
  263.90        3343.00           6761       21285.00     93007.37
  263.92        3343.25           6765       19802.00     86510.09
  263.95        3343.50           6769       18598.00     81236.90
  263.98        3343.75           6773       17363.00     75829.54
  264.01        3344.00           6776       16042.00     70047.46
  264.03        3344.25           6780       14621.00     63829.76
  264.06        3344.50           6784       13258.00     57867.89
  264.09        3344.75           6788       11762.00     51326.55
  264.11        3345.00           6791       10674.00     46570.72
  264.14        3345.25           6795        9299.00     40562.18
  264.17        3345.50           6799        7335.00     31983.30
  264.20        3345.75           6803        5453.00     23766.47
  264.22        3346.00           6806        4406.00     19196.89
  264.25        3346.25           6810        3484.00     15173.84
  264.28        3346.50           6814        2688.00     11701.31
  264.31        3346.75           6818        1695.00      7370.31
  264.33        3347.00           6821        1076.00      4671.06
  264.36        3347.25           6825         384.00      1653.96
  264.39        3347.50           6829          95.00       394.08
  264.41        3347.75           6833          31.00       115.08
  264.44        3348.00           6836          36.00       136.88
  264.47        3348.25           6840          32.00       119.44
  264.50        3348.50           6844          27.00        97.65
  264.52        3348.75           6848          37.00       141.24
  264.55        3349.00           6851          25.00        88.93
  264.58        3349.25           6855          30.00       110.72
  264.60        3349.50           6859          31.00       115.08
  264.63        3349.75           6863          30.00       110.72
  264.66        3350.00           6867          39.00       149.96
  264.69        3350.25           6870          32.00       119.44
  264.71        3350.50           6874          31.00       115.08
  264.74        3350.75           6878          25.00        88.93
  264.77        3351.00           6882          30.00       110.72
HL scan finished at 04:25:23
end
