************************************************************
  HL Scan of (1) Internal mercury lamp
************************************************************
Integration time is 0.2294 seconds per sample
dh171118Tamanrasset 22.79-5.529 4.974364pr865
************************************************************
Dead Time -------------------------  2.8E-08 
Number of Cycles Used -------------  4 
Starting Wavelength (Angstroms) ---  3331 
Final Wavelength (Angstoms) -------  3351 
Wavelength Increment (Angstroms) --  .25 
Filter Wheel #1 Position ---------- (1) Ground quartz diffuser (ND=2.32)
Filter Wheel #2 Position ---------- (0) Clear Aperture



************************************************************
HL scan start time = 04:20:31
Dark Count =  3.9 


Time (GMT)  Wavelength (Ang)  Step Number  Raw Counts  Counts/Second

  261.02        3331.00           6581          32.00       122.49
  261.24        3331.25           6585          31.00       118.13
  261.27        3331.50           6589          29.00       109.42
  261.29        3331.75           6593          34.00       131.21
  261.32        3332.00           6596          29.00       109.42
  261.35        3332.25           6600          22.00        78.90
  261.38        3332.50           6604          29.00       109.42
  261.40        3332.75           6608          26.00        96.34
  261.43        3333.00           6611          30.00       113.78
  261.46        3333.25           6615          32.00       122.49
  261.48        3333.50           6619          33.00       126.85
  261.51        3333.75           6623          28.00       105.06
  261.54        3334.00           6626          33.00       126.85
  261.57        3334.25           6630          31.00       118.13
  261.59        3334.50           6634          31.00       118.13
  261.62        3334.75           6638          30.00       113.78
  261.65        3335.00           6641          36.00       139.93
  261.67        3335.25           6645          32.00       122.49
  261.70        3335.50           6649          29.00       109.42
  261.73        3335.75           6653          37.00       144.29
  261.76        3336.00           6656          53.00       214.04
  261.78        3336.25           6660         194.00       828.70
  261.81        3336.50           6664         590.00      2555.11
  261.84        3336.75           6668         922.00      4002.63
  261.86        3337.00           6671        1315.00      5716.26
  261.89        3337.25           6675        2597.00     11307.42
  261.92        3337.50           6679        4156.00     18109.01
  261.95        3337.75           6683        5677.00     24747.31
  261.97        3338.00           6686        6989.00     30475.43
  262.00        3338.25           6690        8497.00     37061.54
  262.03        3338.50           6694       10088.00     44012.79
  262.06        3338.75           6698       11753.00     51290.26
  262.08        3339.00           6701       12886.00     56244.13
  262.11        3339.25           6705       14638.00     63907.19
  262.14        3339.50           6709       16276.00     71074.61
  262.17        3339.75           6713       18000.00     78621.45
  262.19        3340.00           6716       19141.00     83617.96
  262.22        3340.25           6720       20738.00     90613.66
  262.25        3340.50           6724       22538.00     98501.90
  262.27        3340.75           6728       23969.00    104775.60
  262.30        3341.00           6731       25055.00    109538.20
  262.33        3341.25           6735       26334.00    115148.80
  262.36        3341.50           6739       27620.00    120791.90
  262.38        3341.75           6743       28012.00    122512.40
  262.41        3342.00           6746       28281.00    123693.10
  262.44        3342.25           6750       28001.00    122464.10
  262.47        3342.50           6754       27113.00    118566.90
  262.49        3342.75           6758       25704.00    112384.90
  262.52        3343.00           6761       24503.00    107117.20
  262.55        3343.25           6765       22932.00    100229.00
  262.58        3343.50           6769       21418.00     93593.24
  262.60        3343.75           6773       19701.00     86070.74
  262.63        3344.00           6776       18505.00     80832.71
  262.66        3344.25           6780       16957.00     74055.32
  262.68        3344.50           6784       15490.00     67634.94
  262.71        3344.75           6788       13770.00     60110.24
  262.74        3345.00           6791       12506.00     54582.49
  262.77        3345.25           6795       10825.00     47233.75
  262.79        3345.50           6799        8621.00     37603.22
  262.82        3345.75           6803        6477.00     28239.85
  262.85        3346.00           6806        5231.00     22800.52
  262.88        3346.25           6810        3801.00     16559.99
  262.90        3346.50           6814        2906.00     12655.31
  262.93        3346.75           6818        2010.00      8747.13
  262.96        3347.00           6821        1305.00      5672.65
  262.99        3347.25           6825         494.00      2136.57
  263.01        3347.50           6829         118.00       497.39
  263.04        3347.75           6833          38.00       148.65
  263.07        3348.00           6836          32.00       122.49
  263.09        3348.25           6840          33.00       126.85
  263.12        3348.50           6844          34.00       131.21
  263.15        3348.75           6848          32.00       122.49
  263.17        3349.00           6851          33.00       126.85
  263.20        3349.25           6855          27.00       100.70
  263.23        3349.50           6859          32.00       122.49
  263.26        3349.75           6863          29.00       109.42
  263.28        3350.00           6867          35.00       135.57
  263.31        3350.25           6870          33.00       126.85
  263.34        3350.50           6874          34.00       131.21
  263.36        3350.75           6878          30.00       113.78
  263.39        3351.00           6882          35.00       135.57
HL scan finished at 04:24:01
end
