************************************************************
  HL Scan of (1) Internal mercury lamp
************************************************************
Integration time is 0.2294 seconds per sample
dh161118Tamanrasset 22.79-5.529 4.974364pr865
************************************************************
Dead Time -------------------------  2.8E-08 
Number of Cycles Used -------------  4 
Starting Wavelength (Angstroms) ---  3331 
Final Wavelength (Angstoms) -------  3351 
Wavelength Increment (Angstroms) --  .25 
Filter Wheel #1 Position ---------- (1) Ground quartz diffuser (ND=2.32)
Filter Wheel #2 Position ---------- (0) Clear Aperture



************************************************************
HL scan start time = 04:21:24
Dark Count =  4.1 


Time (GMT)  Wavelength (Ang)  Step Number  Raw Counts  Counts/Second

  261.92        3331.00           6581          30.00       112.90
  262.14        3331.25           6585          23.00        82.39
  262.17        3331.50           6589          27.00        99.83
  262.19        3331.75           6593          32.00       121.62
  262.22        3332.00           6596          29.00       108.54
  262.25        3332.25           6600          25.00        91.11
  262.27        3332.50           6604          25.00        91.11
  262.30        3332.75           6608          27.00        99.83
  262.33        3333.00           6611          27.00        99.83
  262.35        3333.25           6615          29.00       108.54
  262.38        3333.50           6619          29.00       108.54
  262.41        3333.75           6623          26.00        95.47
  262.44        3334.00           6626          33.00       125.98
  262.46        3334.25           6630          25.00        91.11
  262.49        3334.50           6634          28.00       104.19
  262.52        3334.75           6638          28.00       104.19
  262.55        3335.00           6641          31.00       117.26
  262.57        3335.25           6645          36.00       139.06
  262.60        3335.50           6649          34.00       130.34
  262.63        3335.75           6653          34.00       130.34
  262.65        3336.00           6656          49.00       195.73
  262.68        3336.25           6660         169.00       718.85
  262.71        3336.50           6664         541.00      2340.61
  262.74        3336.75           6668         789.00      3421.86
  262.76        3337.00           6671        1259.00      5471.20
  262.79        3337.25           6675        2425.00     10556.30
  262.82        3337.50           6679        3756.00     16362.77
  262.84        3337.75           6683        5072.00     22105.66
  262.87        3338.00           6686        6102.00     26601.76
  262.90        3338.25           6690        7638.00     33308.73
  262.93        3338.50           6694        9059.00     39515.81
  262.95        3338.75           6698       10386.00     45314.22
  262.98        3339.00           6701       11435.00     49899.23
  263.01        3339.25           6705       12881.00     56221.39
  263.04        3339.50           6709       14167.00     61845.89
  263.06        3339.75           6713       15580.00     68027.90
  263.09        3340.00           6716       16868.00     73664.86
  263.12        3340.25           6720       18195.00     79474.40
  263.14        3340.50           6724       19656.00     85872.75
  263.17        3340.75           6728       20965.00     91607.38
  263.20        3341.00           6731       22000.00     96142.96
  263.23        3341.25           6735       23044.00    100719.10
  263.25        3341.50           6739       24059.00    105169.30
  263.28        3341.75           6743       24507.00    107133.90
  263.31        3342.00           6746       24914.00    108918.90
  263.34        3342.25           6750       24500.00    107103.20
  263.36        3342.50           6754       23851.00    104257.30
  263.39        3342.75           6758       22437.00     98058.32
  263.42        3343.00           6761       21445.00     93710.71
  263.45        3343.25           6765       19907.00     86972.22
  263.47        3343.50           6769       18723.00     81786.47
  263.50        3343.75           6773       17419.00     76076.88
  263.53        3344.00           6776       16188.00     70688.60
  263.55        3344.25           6780       14821.00     64706.94
  263.58        3344.50           6784       13523.00     59029.05
  263.61        3344.75           6788       11988.00     52316.78
  263.64        3345.00           6791       10866.00     47412.08
  263.66        3345.25           6795        9309.00     40608.05
  263.69        3345.50           6799        7484.00     32636.18
  263.72        3345.75           6803        5509.00     24013.09
  263.75        3346.00           6806        4366.00     19024.52
  263.77        3346.25           6810        3233.00     14080.97
  263.80        3346.50           6814        2422.00     10543.22
  263.83        3346.75           6818        1596.00      6940.76
  263.86        3347.00           6821         971.00      4215.41
  263.88        3347.25           6825         319.00      1372.76
  263.91        3347.50           6829          73.00       300.35
  263.94        3347.75           6833          35.00       134.70
  263.96        3348.00           6836          29.00       108.54
  263.99        3348.25           6840          35.00       134.70
  264.02        3348.50           6844          32.00       121.62
  264.04        3348.75           6848          28.00       104.19
  264.07        3349.00           6851          34.00       130.34
  264.10        3349.25           6855          27.00        99.83
  264.13        3349.50           6859          28.00       104.19
  264.15        3349.75           6863          28.00       104.19
  264.18        3350.00           6867          29.00       108.54
  264.21        3350.25           6870          30.00       112.90
  264.24        3350.50           6874          27.00        99.83
  264.26        3350.75           6878          28.00       104.19
  264.29        3351.00           6882          36.00       139.06
HL scan finished at 04:24:55
end
