************************************************************
  HL Scan of (1) Internal mercury lamp
************************************************************
Integration time is 0.2294 seconds per sample
dh191118Tamanrasset 22.79-5.529 4.974364pr865
************************************************************
Dead Time -------------------------  2.8E-08 
Number of Cycles Used -------------  4 
Starting Wavelength (Angstroms) ---  3331 
Final Wavelength (Angstoms) -------  3351 
Wavelength Increment (Angstroms) --  .25 
Filter Wheel #1 Position ---------- (1) Ground quartz diffuser (ND=2.32)
Filter Wheel #2 Position ---------- (0) Clear Aperture



************************************************************
HL scan start time = 04:22:23
Dark Count =  5.4 


Time (GMT)  Wavelength (Ang)  Step Number  Raw Counts  Counts/Second

  262.89        3331.00           6581          32.00       115.96
  263.11        3331.25           6585          27.00        94.16
  263.14        3331.50           6589          26.00        89.80
  263.17        3331.75           6593          28.00        98.52
  263.19        3332.00           6596          25.00        85.44
  263.22        3332.25           6600          27.00        94.16
  263.25        3332.50           6604          28.00        98.52
  263.28        3332.75           6608          29.00       102.88
  263.30        3333.00           6611          34.00       124.67
  263.33        3333.25           6615          27.00        94.16
  263.36        3333.50           6619          31.00       111.60
  263.38        3333.75           6623          30.00       107.24
  263.41        3334.00           6626          25.00        85.44
  263.44        3334.25           6630          26.00        89.80
  263.47        3334.50           6634          31.00       111.60
  263.49        3334.75           6638          25.00        85.44
  263.52        3335.00           6641          35.00       129.03
  263.55        3335.25           6645          34.00       124.67
  263.57        3335.50           6649          30.00       107.24
  263.60        3335.75           6653          32.00       115.96
  263.63        3336.00           6656          52.00       203.14
  263.66        3336.25           6660         168.00       708.82
  263.68        3336.50           6664         545.00      2352.38
  263.71        3336.75           6668         940.00      4074.57
  263.74        3337.00           6671        1350.00      5862.34
  263.76        3337.25           6675        2477.00     10777.45
  263.79        3337.50           6679        3888.00     16933.05
  263.82        3337.75           6683        5238.00     22824.52
  263.85        3338.00           6686        6343.00     27648.25
  263.87        3338.25           6690        7873.00     34329.41
  263.90        3338.50           6694        9202.00     40134.88
  263.93        3338.75           6698       10706.00     46707.08
  263.96        3339.00           6701       11704.00     51069.49
  263.98        3339.25           6705       13227.00     57728.81
  264.01        3339.50           6709       14771.00     64482.49
  264.04        3339.75           6713       16129.00     70424.70
  264.06        3340.00           6716       17282.00     75471.44
  264.09        3340.25           6720       18711.00     81728.22
  264.12        3340.50           6724       20254.00     88486.62
  264.15        3340.75           6728       21615.00     94449.98
  264.17        3341.00           6731       22504.00     98346.30
  264.20        3341.25           6735       23573.00    103032.60
  264.23        3341.50           6739       24708.00    108009.70
  264.26        3341.75           6743       25381.00    110961.50
  264.28        3342.00           6746       25495.00    111461.50
  264.31        3342.25           6750       25132.00    109869.30
  264.34        3342.50           6754       24435.00    106812.40
  264.37        3342.75           6758       22997.00    100507.40
  264.39        3343.00           6761       21855.00     95501.78
  264.42        3343.25           6765       20487.00     89507.39
  264.45        3343.50           6769       19174.00     83755.91
  264.47        3343.75           6773       17693.00     77270.75
  264.50        3344.00           6776       16557.00     72297.91
  264.53        3344.25           6780       15259.00     66617.61
  264.56        3344.50           6784       13655.00     59600.69
  264.58        3344.75           6788       12292.00     53640.23
  264.61        3345.00           6791       11051.00     48215.00
  264.64        3345.25           6795        9682.00     42232.12
  264.67        3345.50           6799        7594.00     33110.90
  264.69        3345.75           6803        5762.00     25111.81
  264.72        3346.00           6806        4629.00     20166.57
  264.75        3346.25           6810        3422.00     14899.85
  264.78        3346.50           6814        2357.00     10254.04
  264.80        3346.75           6818        1406.00      6106.54
  264.83        3347.00           6821         923.00      4000.45
  264.86        3347.25           6825         309.00      1323.50
  264.89        3347.50           6829          71.00       285.97
  264.91        3347.75           6833          37.00       137.75
  264.94        3348.00           6836          42.00       159.55
  264.97        3348.25           6840          33.00       120.31
  264.99        3348.50           6844          34.00       124.67
  265.02        3348.75           6848          30.00       107.24
  265.05        3349.00           6851          26.00        89.80
  265.07        3349.25           6855          27.00        94.16
  265.10        3349.50           6859          31.00       111.60
  265.13        3349.75           6863          30.00       107.24
  265.16        3350.00           6867          29.00       102.88
  265.18        3350.25           6870          32.00       115.96
  265.21        3350.50           6874          26.00        89.80
  265.24        3350.75           6878          33.00       120.31
  265.26        3351.00           6882          29.00       102.88
HL scan finished at 04:25:53
end
