************************************************************
  HL Scan of (1) Internal mercury lamp
************************************************************
Integration time is 0.2294 seconds per sample
dh211118Tamanrasset 22.79-5.529 4.974364pr865
************************************************************
Dead Time -------------------------  2.8E-08 
Number of Cycles Used -------------  4 
Starting Wavelength (Angstroms) ---  3331 
Final Wavelength (Angstoms) -------  3351 
Wavelength Increment (Angstroms) --  .25 
Filter Wheel #1 Position ---------- (1) Ground quartz diffuser (ND=2.32)
Filter Wheel #2 Position ---------- (0) Clear Aperture



************************************************************
HL scan start time = 04:24:01
Dark Count =  4 


Time (GMT)  Wavelength (Ang)  Step Number  Raw Counts  Counts/Second

  264.53        3331.00           6581          23.00        82.82
  264.75        3331.25           6585          25.00        91.54
  264.78        3331.50           6589          28.00       104.62
  264.81        3331.75           6593          28.00       104.62
  264.83        3332.00           6596          26.00        95.90
  264.86        3332.25           6600          30.00       113.34
  264.89        3332.50           6604          29.00       108.98
  264.92        3332.75           6608          32.00       122.06
  264.94        3333.00           6611          30.00       113.34
  264.97        3333.25           6615          32.00       122.06
  265.00        3333.50           6619          27.00       100.26
  265.03        3333.75           6623          30.00       113.34
  265.05        3334.00           6626          26.00        95.90
  265.08        3334.25           6630          25.00        91.54
  265.11        3334.50           6634          28.00       104.62
  265.13        3334.75           6638          26.00        95.90
  265.16        3335.00           6641          35.00       135.14
  265.19        3335.25           6645          33.00       126.42
  265.21        3335.50           6649          32.00       122.06
  265.24        3335.75           6653          42.00       165.65
  265.27        3336.00           6656          85.00       353.10
  265.30        3336.25           6660         226.00       967.77
  265.32        3336.50           6664         493.00      2131.78
  265.35        3336.75           6668         998.00      4333.57
  265.38        3337.00           6671        1559.00      6779.84
  265.40        3337.25           6675        2817.00     12266.64
  265.43        3337.50           6679        4226.00     18414.02
  265.46        3337.75           6683        5832.00     25423.50
  265.49        3338.00           6686        7022.00     30619.09
  265.51        3338.25           6690        8438.00     36803.38
  265.54        3338.50           6694        9943.00     43378.73
  265.57        3338.75           6698       11419.00     49829.72
  265.60        3339.00           6701       12675.00     55321.03
  265.62        3339.25           6705       14145.00     61750.09
  265.65        3339.50           6709       15742.00     68737.23
  265.68        3339.75           6713       17283.00     75481.95
  265.71        3340.00           6716       18428.00     80495.09
  265.73        3340.25           6720       19891.00     86902.57
  265.76        3340.50           6724       21410.00     93557.76
  265.79        3340.75           6728       22852.00     99877.88
  265.81        3341.00           6731       24046.00    105112.70
  265.84        3341.25           6735       25306.00    110638.60
  265.87        3341.50           6739       26215.00    114626.30
  265.90        3341.75           6743       26609.00    116354.90
  265.92        3342.00           6746       26548.00    116087.30
  265.95        3342.25           6750       26210.00    114604.30
  265.98        3342.50           6754       25310.00    110656.20
  266.01        3342.75           6758       23905.00    104494.50
  266.03        3343.00           6761       22676.00     99106.38
  266.06        3343.25           6765       21319.00     93158.99
  266.09        3343.50           6769       19796.00     86486.44
  266.11        3343.75           6773       18333.00     80079.10
  266.14        3344.00           6776       17054.00     74479.49
  266.17        3344.25           6780       15592.00     68080.84
  266.20        3344.50           6784       13970.00     60984.60
  266.22        3344.75           6788       12454.00     54354.68
  266.25        3345.00           6791       11207.00     48903.01
  266.28        3345.25           6795        9570.00     41748.87
  266.31        3345.50           6799        7617.00     33217.46
  266.33        3345.75           6803        5693.00     24816.72
  266.36        3346.00           6806        4520.00     19697.00
  266.39        3346.25           6810        3237.00     14098.85
  266.41        3346.50           6814        2423.00     10548.02
  266.44        3346.75           6818        1593.00      6928.11
  266.47        3347.00           6821         904.00      3923.71
  266.50        3347.25           6825         296.00      1272.93
  266.52        3347.50           6829          53.00       213.60
  266.55        3347.75           6833          38.00       148.21
  266.58        3348.00           6836          38.00       148.21
  266.61        3348.25           6840          32.00       122.06
  266.63        3348.50           6844          34.00       130.78
  266.66        3348.75           6848          30.00       113.34
  266.69        3349.00           6851          37.00       143.85
  266.71        3349.25           6855          31.00       117.70
  266.74        3349.50           6859          29.00       108.98
  266.77        3349.75           6863          32.00       122.06
  266.80        3350.00           6867          36.00       139.49
  266.82        3350.25           6870          27.00       100.26
  266.85        3350.50           6874          31.00       117.70
  266.88        3350.75           6878          28.00       104.62
  266.90        3351.00           6882          29.00       108.98
HL scan finished at 04:27:32
end
