************************************************************
  HL Scan of (1) Internal mercury lamp
************************************************************
Integration time is 0.2294 seconds per sample
dh201118Tamanrasset 22.79-5.529 4.974364pr865
************************************************************
Dead Time -------------------------  2.8E-08 
Number of Cycles Used -------------  4 
Starting Wavelength (Angstroms) ---  3331 
Final Wavelength (Angstoms) -------  3351 
Wavelength Increment (Angstroms) --  .25 
Filter Wheel #1 Position ---------- (1) Ground quartz diffuser (ND=2.32)
Filter Wheel #2 Position ---------- (0) Clear Aperture



************************************************************
HL scan start time = 04:22:27
Dark Count =  5.3 


Time (GMT)  Wavelength (Ang)  Step Number  Raw Counts  Counts/Second

  262.97        3331.00           6581          31.00       112.03
  263.19        3331.25           6585          30.00       107.67
  263.21        3331.50           6589          31.00       112.03
  263.24        3331.75           6593          32.00       116.39
  263.27        3332.00           6596          27.00        94.59
  263.30        3332.25           6600          28.00        98.95
  263.32        3332.50           6604          30.00       107.67
  263.35        3332.75           6608          30.00       107.67
  263.38        3333.00           6611          28.00        98.95
  263.41        3333.25           6615          40.00       151.26
  263.43        3333.50           6619          28.00        98.95
  263.46        3333.75           6623          29.00       103.31
  263.49        3334.00           6626          25.00        85.88
  263.51        3334.25           6630          31.00       112.03
  263.54        3334.50           6634          30.00       107.67
  263.57        3334.75           6638          30.00       107.67
  263.60        3335.00           6641          37.00       138.19
  263.62        3335.25           6645          34.00       125.11
  263.65        3335.50           6649          33.00       120.75
  263.68        3335.75           6653          37.00       138.19
  263.70        3336.00           6656          58.00       229.73
  263.73        3336.25           6660         259.00      1105.96
  263.76        3336.50           6664         763.00      3303.27
  263.79        3336.75           6668        1242.00      5391.83
  263.81        3337.00           6671        1642.00      7136.12
  263.84        3337.25           6675        3117.00     13569.67
  263.87        3337.50           6679        4730.00     20607.79
  263.90        3337.75           6683        6350.00     27679.25
  263.92        3338.00           6686        7710.00     33617.94
  263.95        3338.25           6690        9501.00     41441.70
  263.98        3338.50           6694       11196.00     48849.25
  264.00        3338.75           6698       12949.00     56513.51
  264.03        3339.00           6701       14263.00     62260.58
  264.06        3339.25           6705       16063.00     70136.30
  264.09        3339.50           6709       17882.00     78098.66
  264.11        3339.75           6713       19843.00     86686.62
  264.14        3340.00           6716       21200.00     92631.84
  264.17        3340.25           6720       22818.00     99723.13
  264.20        3340.50           6724       24548.00    107308.40
  264.22        3340.75           6728       26268.00    114853.10
  264.25        3341.00           6731       27522.00    120355.70
  264.28        3341.25           6735       28807.00    125996.00
  264.30        3341.50           6739       30079.00    131581.10
  264.33        3341.75           6743       30725.00    134418.20
  264.36        3342.00           6746       30856.00    134993.60
  264.39        3342.25           6750       30486.00    133368.50
  264.41        3342.50           6754       29294.00    128134.10
  264.44        3342.75           6758       27706.00    121163.20
  264.47        3343.00           6761       26464.00    115713.00
  264.50        3343.25           6765       24643.00    107725.10
  264.52        3343.50           6769       23206.00    101424.10
  264.55        3343.75           6773       21472.00     93823.75
  264.58        3344.00           6776       20136.00     87970.12
  264.61        3344.25           6780       18439.00     80537.56
  264.63        3344.50           6784       16525.00     72158.29
  264.66        3344.75           6788       14840.00     64784.81
  264.69        3345.00           6791       13305.00     58070.38
  264.71        3345.25           6795       11383.00     49666.67
  264.74        3345.50           6799        9007.00     39283.38
  264.77        3345.75           6803        6703.00     29220.50
  264.80        3346.00           6806        5418.00     23610.64
  264.82        3346.25           6810        3844.00     16741.50
  264.85        3346.50           6814        2845.00     12383.11
  264.88        3346.75           6818        1877.00      8160.98
  264.91        3347.00           6821        1184.00      5138.93
  264.93        3347.25           6825         404.00      1738.10
  264.96        3347.50           6829          90.00       369.23
  264.99        3347.75           6833          37.00       138.19
  265.01        3348.00           6836          39.00       146.91
  265.04        3348.25           6840          31.00       112.03
  265.07        3348.50           6844          32.00       116.39
  265.10        3348.75           6848          32.00       116.39
  265.12        3349.00           6851          36.00       133.83
  265.15        3349.25           6855          30.00       107.67
  265.18        3349.50           6859          32.00       116.39
  265.20        3349.75           6863          34.00       125.11
  265.23        3350.00           6867          31.00       112.03
  265.26        3350.25           6870          35.00       129.47
  265.29        3350.50           6874          31.00       112.03
  265.31        3350.75           6878          27.00        94.59
  265.34        3351.00           6882          31.00       112.03
HL scan finished at 04:25:58
end
