************************************************************
  HL Scan of (1) Internal mercury lamp
************************************************************
Integration time is 0.2294 seconds per sample
dh251118Tamanrasset 22.79-5.529 4.974364pr865
************************************************************
Dead Time -------------------------  2.8E-08 
Number of Cycles Used -------------  4 
Starting Wavelength (Angstroms) ---  3331 
Final Wavelength (Angstoms) -------  3351 
Wavelength Increment (Angstroms) --  .25 
Filter Wheel #1 Position ---------- (1) Ground quartz diffuser (ND=2.32)
Filter Wheel #2 Position ---------- (0) Clear Aperture



************************************************************
HL scan start time = 04:25:56
Dark Count =  3.5 


Time (GMT)  Wavelength (Ang)  Step Number  Raw Counts  Counts/Second

  266.45        3331.00           6581          31.00       119.88
  266.66        3331.25           6585          27.00       102.44
  266.69        3331.50           6589          26.00        98.08
  266.72        3331.75           6593          26.00        98.08
  266.75        3332.00           6596          26.00        98.08
  266.77        3332.25           6600          26.00        98.08
  266.80        3332.50           6604          31.00       119.88
  266.83        3332.75           6608          30.00       115.52
  266.86        3333.00           6611          24.00        89.36
  266.88        3333.25           6615          33.00       128.60
  266.91        3333.50           6619          29.00       111.16
  266.94        3333.75           6623          28.00       106.80
  266.96        3334.00           6626          26.00        98.08
  266.99        3334.25           6630          26.00        98.08
  267.02        3334.50           6634          26.00        98.08
  267.04        3334.75           6638          31.00       119.88
  267.07        3335.00           6641          30.00       115.52
  267.10        3335.25           6645          35.00       137.32
  267.13        3335.50           6649          35.00       137.32
  267.15        3335.75           6653          42.00       167.83
  267.18        3336.00           6656          48.00       193.99
  267.21        3336.25           6660         194.00       830.45
  267.23        3336.50           6664         577.00      2500.17
  267.26        3336.75           6668         810.00      3516.04
  267.29        3337.00           6671        1282.00      5574.10
  267.32        3337.25           6675        2453.00     10681.05
  267.34        3337.50           6679        3807.00     16587.91
  267.37        3337.75           6683        5084.00     22160.65
  267.40        3338.00           6686        6132.00     26735.35
  267.43        3338.25           6690        7592.00     33110.46
  267.45        3338.50           6694        8871.00     38697.10
  267.48        3338.75           6698       10276.00     44836.12
  267.51        3339.00           6701       11421.00     49840.65
  267.53        3339.25           6705       12917.00     56381.44
  267.56        3339.50           6709       14253.00     62224.71
  267.59        3339.75           6713       15596.00     68100.53
  267.62        3340.00           6716       16728.00     73054.69
  267.64        3340.25           6720       18155.00     79301.88
  267.67        3340.50           6724       19529.00     85319.10
  267.70        3340.75           6728       20774.00     90773.14
  267.73        3341.00           6731       21791.00     95229.60
  267.75        3341.25           6735       23042.00    100713.00
  267.78        3341.50           6739       23841.00    104216.10
  267.81        3341.75           6743       24573.00    107426.00
  267.84        3342.00           6746       24532.00    107246.20
  267.86        3342.25           6750       24179.00    105698.10
  267.89        3342.50           6754       23345.00    102041.40
  267.92        3342.75           6758       21952.00     95935.22
  267.95        3343.00           6761       20880.00     91237.58
  267.97        3343.25           6765       19641.00     85809.68
  268.00        3343.50           6769       18342.00     80120.70
  268.03        3343.75           6773       16992.00     74210.28
  268.06        3344.00           6776       15868.00     69290.81
  268.08        3344.25           6780       14332.00     62570.29
  268.11        3344.50           6784       13214.00     57680.27
  268.14        3344.75           6788       11575.00     50513.86
  268.16        3345.00           6791       10436.00     45535.35
  268.19        3345.25           6795        8943.00     39011.64
  268.22        3345.50           6799        7273.00     31717.35
  268.25        3345.75           6803        5311.00     23151.45
  268.27        3346.00           6806        4173.00     18184.93
  268.30        3346.25           6810        3059.00     13324.50
  268.33        3346.50           6814        2179.00      9485.95
  268.36        3346.75           6818        1413.00      6145.35
  268.38        3347.00           6821         837.00      3633.76
  268.41        3347.25           6825         270.00      1161.76
  268.44        3347.50           6829          64.00       263.73
  268.46        3347.75           6833          42.00       167.83
  268.49        3348.00           6836          28.00       106.80
  268.52        3348.25           6840          28.00       106.80
  268.55        3348.50           6844          25.00        93.72
  268.57        3348.75           6848          28.00       106.80
  268.60        3349.00           6851          30.00       115.52
  268.63        3349.25           6855          33.00       128.60
  268.65        3349.50           6859          29.00       111.16
  268.68        3349.75           6863          36.00       141.67
  268.71        3350.00           6867          27.00       102.44
  268.74        3350.25           6870          29.00       111.16
  268.76        3350.50           6874          33.00       128.60
  268.79        3350.75           6878          30.00       115.52
  268.82        3351.00           6882          35.00       137.32
HL scan finished at 04:29:26
end
