************************************************************
  HL Scan of (1) Internal mercury lamp
************************************************************
Integration time is 0.2294 seconds per sample
dh241118Tamanrasset 22.79-5.529 4.974364pr865
************************************************************
Dead Time -------------------------  2.8E-08 
Number of Cycles Used -------------  4 
Starting Wavelength (Angstroms) ---  3331 
Final Wavelength (Angstoms) -------  3351 
Wavelength Increment (Angstroms) --  .25 
Filter Wheel #1 Position ---------- (1) Ground quartz diffuser (ND=2.32)
Filter Wheel #2 Position ---------- (0) Clear Aperture



************************************************************
HL scan start time = 04:25:26
Dark Count =  4.3 


Time (GMT)  Wavelength (Ang)  Step Number  Raw Counts  Counts/Second

  265.95        3331.00           6581          28.00       103.31
  266.16        3331.25           6585          29.00       107.67
  266.19        3331.50           6589          34.00       129.47
  266.22        3331.75           6593          31.00       116.39
  266.25        3332.00           6596          32.00       120.75
  266.27        3332.25           6600          26.00        94.59
  266.30        3332.50           6604          24.00        85.88
  266.33        3332.75           6608          27.00        98.95
  266.36        3333.00           6611          25.00        90.24
  266.38        3333.25           6615          27.00        98.95
  266.41        3333.50           6619          29.00       107.67
  266.44        3333.75           6623          30.00       112.03
  266.46        3334.00           6626          32.00       120.75
  266.49        3334.25           6630          35.00       133.83
  266.52        3334.50           6634          29.00       107.67
  266.55        3334.75           6638          31.00       116.39
  266.57        3335.00           6641          26.00        94.59
  266.60        3335.25           6645          38.00       146.91
  266.63        3335.50           6649          41.00       159.98
  266.65        3335.75           6653          36.00       138.19
  266.68        3336.00           6656          58.00       234.09
  266.71        3336.25           6660         176.00       748.49
  266.74        3336.50           6664         583.00      2522.85
  266.76        3336.75           6668         911.00      3952.92
  266.79        3337.00           6671        1360.00      5910.74
  266.82        3337.25           6675        2503.00     10895.65
  266.84        3337.50           6679        3907.00     17020.75
  266.87        3337.75           6683        5291.00     23060.66
  266.90        3338.00           6686        6436.00     28059.09
  266.93        3338.25           6690        7909.00     34491.45
  266.95        3338.50           6694        9356.00     40812.53
  266.98        3338.75           6698       10641.00     46427.80
  267.01        3339.00           6701       11834.00     51642.63
  267.04        3339.25           6705       13344.00     58245.31
  267.06        3339.50           6709       14942.00     65235.45
  267.09        3339.75           6713       16214.00     70801.52
  267.12        3340.00           6716       17392.00     75957.80
  267.15        3340.25           6720       18798.00     82114.03
  267.17        3340.50           6724       20230.00     88386.30
  267.20        3340.75           6728       21546.00     94152.41
  267.23        3341.00           6731       22476.00     98228.38
  267.25        3341.25           6735       23884.00    104401.10
  267.28        3341.50           6739       24802.00    108426.80
  267.31        3341.75           6743       25491.00    111448.80
  267.34        3342.00           6746       25523.00    111589.20
  267.36        3342.25           6750       25121.00    109825.90
  267.39        3342.50           6754       24493.00    107071.60
  267.42        3342.75           6758       23110.00    101007.60
  267.45        3343.00           6761       22068.00     96440.10
  267.47        3343.25           6765       20638.00     90173.78
  267.50        3343.50           6769       19397.00     84737.43
  267.53        3343.75           6773       17928.00     78304.45
  267.55        3344.00           6776       16824.00     73471.40
  267.58        3344.25           6780       15442.00     67423.16
  267.61        3344.50           6784       13851.00     60462.79
  267.64        3344.75           6788       12368.00     53977.34
  267.66        3345.00           6791       11135.00     48586.98
  267.69        3345.25           6795        9727.00     42433.57
  267.72        3345.50           6799        7822.00     34111.47
  267.75        3345.75           6803        5758.00     25099.15
  267.77        3346.00           6806        4474.00     19494.95
  267.80        3346.25           6810        3455.00     15048.62
  267.83        3346.50           6814        2544.00     11074.49
  267.85        3346.75           6818        1591.00      6918.08
  267.88        3347.00           6821        1053.00      4572.08
  267.91        3347.25           6825         384.00      1655.26
  267.94        3347.50           6829          85.00       351.79
  267.96        3347.75           6833          35.00       133.83
  267.99        3348.00           6836          36.00       138.19
  268.02        3348.25           6840          35.00       133.83
  268.04        3348.50           6844          30.00       112.03
  268.07        3348.75           6848          31.00       116.39
  268.10        3349.00           6851          28.00       103.31
  268.13        3349.25           6855          31.00       116.39
  268.15        3349.50           6859          31.00       116.39
  268.18        3349.75           6863          31.00       116.39
  268.21        3350.00           6867          31.00       116.39
  268.23        3350.25           6870          30.00       112.03
  268.26        3350.50           6874          31.00       116.39
  268.29        3350.75           6878          29.00       107.67
  268.32        3351.00           6882          33.00       125.11
HL scan finished at 04:28:56
end
