************************************************************
  HL Scan of (1) Internal mercury lamp
************************************************************
Integration time is 0.2294 seconds per sample
dh261118Tamanrasset 22.79-5.529 4.974364pr865
************************************************************
Dead Time -------------------------  2.8E-08 
Number of Cycles Used -------------  4 
Starting Wavelength (Angstroms) ---  3331 
Final Wavelength (Angstoms) -------  3351 
Wavelength Increment (Angstroms) --  .25 
Filter Wheel #1 Position ---------- (1) Ground quartz diffuser (ND=2.32)
Filter Wheel #2 Position ---------- (0) Clear Aperture



************************************************************
HL scan start time = 04:26:52
Dark Count =  3.6 


Time (GMT)  Wavelength (Ang)  Step Number  Raw Counts  Counts/Second

  267.38        3331.00           6581          26.00        97.65
  267.59        3331.25           6585          26.00        97.65
  267.62        3331.50           6589          27.00       102.01
  267.65        3331.75           6593          25.00        93.29
  267.68        3332.00           6596          26.00        97.65
  267.70        3332.25           6600          28.00       106.36
  267.73        3332.50           6604          20.00        71.49
  267.76        3332.75           6608          29.00       110.72
  267.78        3333.00           6611          34.00       132.52
  267.81        3333.25           6615          28.00       106.36
  267.84        3333.50           6619          28.00       106.36
  267.87        3333.75           6623          20.00        71.49
  267.89        3334.00           6626          24.00        88.93
  267.92        3334.25           6630          30.00       115.08
  267.95        3334.50           6634          25.00        93.29
  267.98        3334.75           6638          32.00       123.80
  268.00        3335.00           6641          28.00       106.36
  268.03        3335.25           6645          34.00       132.52
  268.06        3335.50           6649          36.00       141.24
  268.08        3335.75           6653          36.00       141.24
  268.11        3336.00           6656          39.00       154.32
  268.14        3336.25           6660         154.00       655.64
  268.17        3336.50           6664         466.00      2015.81
  268.19        3336.75           6668         827.00      3589.72
  268.22        3337.00           6671        1148.00      4989.36
  268.25        3337.25           6675        2277.00      9912.95
  268.27        3337.50           6679        3531.00     15383.26
  268.30        3337.75           6683        4957.00     21605.92
  268.33        3338.00           6686        5911.00     25770.11
  268.36        3338.25           6690        7313.00     31891.59
  268.38        3338.50           6694        8758.00     38203.01
  268.41        3338.75           6698       10076.00     43961.67
  268.44        3339.00           6701       11053.00     48231.62
  268.47        3339.25           6705       12332.00     53822.99
  268.49        3339.50           6709       13731.00     59940.98
  268.52        3339.75           6713       15344.00     66997.41
  268.55        3340.00           6716       16426.00     71732.43
  268.58        3340.25           6720       17697.00     77296.15
  268.60        3340.50           6724       19184.00     83807.60
  268.63        3340.75           6728       20467.00     89427.66
  268.66        3341.00           6731       21345.00     93274.68
  268.68        3341.25           6735       22583.00     98700.47
  268.71        3341.50           6739       23473.00    102602.10
  268.74        3341.75           6743       24170.00    105658.30
  268.77        3342.00           6746       24108.00    105386.40
  268.79        3342.25           6750       24017.00    104987.30
  268.82        3342.50           6754       23289.00    101795.40
  268.85        3342.75           6758       22036.00     96302.92
  268.88        3343.00           6761       20979.00     91670.91
  268.90        3343.25           6765       19723.00     86168.42
  268.93        3343.50           6769       18501.00     80816.50
  268.96        3343.75           6773       17168.00     74980.28
  268.98        3344.00           6776       15874.00     69316.63
  269.01        3344.25           6780       14621.00     63834.14
  269.04        3344.50           6784       13277.00     57955.35
  269.07        3344.75           6788       11770.00     51365.90
  269.09        3345.00           6791       10761.00     46955.33
  269.12        3345.25           6795        9281.00     40487.90
  269.15        3345.50           6799        7465.00     32555.38
  269.18        3345.75           6803        5590.00     24368.85
  269.20        3346.00           6806        4584.00     19978.04
  269.23        3346.25           6810        3503.00     15261.10
  269.26        3346.50           6814        2518.00     10964.13
  269.29        3346.75           6818        1535.00      6676.92
  269.31        3347.00           6821        1050.00      4562.05
  269.34        3347.25           6825         390.00      1684.47
  269.37        3347.50           6829          84.00       350.48
  269.39        3347.75           6833          39.00       154.32
  269.42        3348.00           6836          30.00       115.08
  269.45        3348.25           6840          36.00       141.24
  269.48        3348.50           6844          27.00       102.01
  269.50        3348.75           6848          28.00       106.36
  269.53        3349.00           6851          30.00       115.08
  269.56        3349.25           6855          26.00        97.65
  269.58        3349.50           6859          37.00       145.60
  269.61        3349.75           6863          27.00       102.01
  269.64        3350.00           6867          27.00       102.01
  269.67        3350.25           6870          25.00        93.29
  269.69        3350.50           6874          29.00       110.72
  269.72        3350.75           6878          26.00        97.65
  269.75        3351.00           6882          36.00       141.24
HL scan finished at 04:30:22
end
