************************************************************
  HL Scan of (1) Internal mercury lamp
************************************************************
Integration time is 0.2294 seconds per sample
dh051218Tamanrasset 22.79-5.529 4.974364pr865
************************************************************
Dead Time -------------------------  2.8E-08 
Number of Cycles Used -------------  4 
Starting Wavelength (Angstroms) ---  3331 
Final Wavelength (Angstoms) -------  3351 
Wavelength Increment (Angstroms) --  .25 
Filter Wheel #1 Position ---------- (1) Ground quartz diffuser (ND=2.32)
Filter Wheel #2 Position ---------- (0) Clear Aperture



************************************************************
HL scan start time = 04:31:48
Dark Count =  5.2 


Time (GMT)  Wavelength (Ang)  Step Number  Raw Counts  Counts/Second

  272.31        3331.00           6581          32.00       116.83
  272.53        3331.25           6585          31.00       112.47
  272.56        3331.50           6589          27.00        95.03
  272.59        3331.75           6593          27.00        95.03
  272.61        3332.00           6596          29.00       103.75
  272.64        3332.25           6600          27.00        95.03
  272.67        3332.50           6604          26.00        90.67
  272.70        3332.75           6608          22.00        73.23
  272.72        3333.00           6611          30.00       108.11
  272.75        3333.25           6615          25.00        86.31
  272.78        3333.50           6619          27.00        95.03
  272.80        3333.75           6623          28.00        99.39
  272.83        3334.00           6626          23.00        77.59
  272.86        3334.25           6630          28.00        99.39
  272.89        3334.50           6634          29.00       103.75
  272.91        3334.75           6638          26.00        90.67
  272.94        3335.00           6641          22.00        73.23
  272.97        3335.25           6645          31.00       112.47
  272.99        3335.50           6649          37.00       138.62
  273.02        3335.75           6653          35.00       129.90
  273.05        3336.00           6656          45.00       173.50
  273.08        3336.25           6660         147.00       618.14
  273.10        3336.50           6664         473.00      2039.35
  273.13        3336.75           6668         830.00      3595.83
  273.16        3337.00           6671        1233.00      5353.03
  273.19        3337.25           6675        2277.00      9905.97
  273.21        3337.50           6679        3595.00     15655.51
  273.24        3337.75           6683        4934.00     21498.55
  273.27        3338.00           6686        6021.00     26243.34
  273.29        3338.25           6690        7440.00     32439.22
  273.32        3338.50           6694        8760.00     38204.75
  273.35        3338.75           6698       10203.00     44509.67
  273.38        3339.00           6701       11141.00     48609.27
  273.40        3339.25           6705       12503.00     54563.69
  273.43        3339.50           6709       13973.00     60992.48
  273.46        3339.75           6713       15220.00     66447.85
  273.48        3340.00           6716       16450.00     71830.47
  273.51        3340.25           6720       17718.00     77381.09
  273.54        3340.50           6724       19112.00     83485.25
  273.57        3340.75           6728       20452.00     89354.94
  273.59        3341.00           6731       21414.00     93570.03
  273.62        3341.25           6735       22694.00     99180.02
  273.65        3341.50           6739       23366.00    102126.00
  273.68        3341.75           6743       24133.00    105489.00
  273.70        3342.00           6746       24175.00    105673.20
  273.73        3342.25           6750       23911.00    104515.50
  273.76        3342.50           6754       23116.00    101030.00
  273.79        3342.75           6758       21876.00     95594.68
  273.81        3343.00           6761       20786.00     90818.28
  273.84        3343.25           6765       19548.00     85394.88
  273.87        3343.50           6769       18391.00     80327.81
  273.89        3343.75           6773       16992.00     74202.84
  273.92        3344.00           6776       15905.00     69445.28
  273.95        3344.25           6780       14465.00     63144.68
  273.98        3344.50           6784       13171.00     57484.78
  274.00        3344.75           6788       11798.00     51481.31
  274.03        3345.00           6791       10729.00     46808.48
  274.06        3345.25           6795        9277.00     40463.43
  274.09        3345.50           6799        7410.00     32308.20
  274.11        3345.75           6803        5518.00     24047.57
  274.14        3346.00           6806        4559.00     19861.96
  274.17        3346.25           6810        3486.00     15179.95
  274.19        3346.50           6814        2575.00     11205.78
  274.22        3346.75           6818        1583.00      6879.27
  274.25        3347.00           6821        1069.00      4637.92
  274.28        3347.25           6825         369.00      1585.95
  274.30        3347.50           6829          95.00       391.46
  274.33        3347.75           6833          37.00       138.62
  274.36        3348.00           6836          33.00       121.19
  274.39        3348.25           6840          34.00       125.55
  274.41        3348.50           6844          30.00       108.11
  274.44        3348.75           6848          32.00       116.83
  274.47        3349.00           6851          29.00       103.75
  274.49        3349.25           6855          33.00       121.19
  274.52        3349.50           6859          28.00        99.39
  274.55        3349.75           6863          34.00       125.55
  274.58        3350.00           6867          28.00        99.39
  274.60        3350.25           6870          32.00       116.83
  274.63        3350.50           6874          30.00       108.11
  274.66        3350.75           6878          27.00        95.03
  274.68        3351.00           6882          30.00       108.11
HL scan finished at 04:35:18
end
