************************************************************
  HL Scan of (1) Internal mercury lamp
************************************************************
Integration time is 0.2294 seconds per sample
dh031218Tamanrasset 22.79-5.529 4.974364pr865
************************************************************
Dead Time -------------------------  2.8E-08 
Number of Cycles Used -------------  4 
Starting Wavelength (Angstroms) ---  3331 
Final Wavelength (Angstoms) -------  3351 
Wavelength Increment (Angstroms) --  .25 
Filter Wheel #1 Position ---------- (1) Ground quartz diffuser (ND=2.32)
Filter Wheel #2 Position ---------- (0) Clear Aperture



************************************************************
HL scan start time = 04:30:52
Dark Count =  4.5 


Time (GMT)  Wavelength (Ang)  Step Number  Raw Counts  Counts/Second

  271.38        3331.00           6581          26.00        93.72
  271.60        3331.25           6585          29.00       106.80
  271.62        3331.50           6589          24.00        85.00
  271.65        3331.75           6593          25.00        89.36
  271.68        3332.00           6596          29.00       106.80
  271.70        3332.25           6600          30.00       111.16
  271.73        3332.50           6604          25.00        89.36
  271.76        3332.75           6608          28.00       102.44
  271.79        3333.00           6611          26.00        93.72
  271.81        3333.25           6615          22.00        76.29
  271.84        3333.50           6619          24.00        85.00
  271.87        3333.75           6623          19.00        63.21
  271.90        3334.00           6626          28.00       102.44
  271.92        3334.25           6630          30.00       111.16
  271.95        3334.50           6634          29.00       106.80
  271.98        3334.75           6638          23.00        80.65
  272.00        3335.00           6641          28.00       102.44
  272.03        3335.25           6645          31.00       115.52
  272.06        3335.50           6649          35.00       132.96
  272.09        3335.75           6653          33.00       124.24
  272.11        3336.00           6656          56.00       224.50
  272.14        3336.25           6660         163.00       690.95
  272.17        3336.50           6664         512.00      2212.43
  272.19        3336.75           6668         866.00      3755.84
  272.22        3337.00           6671        1378.00      5988.36
  272.25        3337.25           6675        2538.00     11047.44
  272.28        3337.50           6679        3787.00     16496.29
  272.30        3337.75           6683        5066.00     22077.72
  272.33        3338.00           6686        6279.00     27372.76
  272.36        3338.25           6690        7625.00     33250.21
  272.39        3338.50           6694        9090.00     39649.49
  272.41        3338.75           6698       10358.00     45190.10
  272.44        3339.00           6701       11447.00     49949.94
  272.47        3339.25           6705       12810.00     55909.17
  272.49        3339.50           6709       14316.00     62495.93
  272.52        3339.75           6713       15675.00     68441.85
  272.55        3340.00           6716       16711.00     72975.91
  272.58        3340.25           6720       18204.00     79512.06
  272.60        3340.50           6724       19450.00     84968.69
  272.63        3340.75           6728       20763.00     90720.57
  272.66        3341.00           6731       21723.00     94927.22
  272.69        3341.25           6735       22761.00     99476.78
  272.71        3341.50           6739       23859.00    104290.60
  272.74        3341.75           6743       24332.00    106364.70
  272.77        3342.00           6746       24283.00    106149.80
  272.80        3342.25           6750       23927.00    104588.80
  272.82        3342.50           6754       23260.00    101664.30
  272.85        3342.75           6758       21805.00     95286.59
  272.88        3343.00           6761       20891.00     91281.40
  272.90        3343.25           6765       19543.00     85376.03
  272.93        3343.50           6769       18370.00     80238.93
  272.96        3343.75           6773       16897.00     73790.06
  272.99        3344.00           6776       15834.00     69137.63
  273.01        3344.25           6780       14326.00     62539.67
  273.04        3344.50           6784       13016.00     56810.00
  273.07        3344.75           6788       11777.00     51392.57
  273.10        3345.00           6791       10679.00     46593.01
  273.12        3345.25           6795        9197.00     40116.97
  273.15        3345.50           6799        7285.00     31765.38
  273.18        3345.75           6803        5389.00     23487.55
  273.21        3346.00           6806        4334.00     18883.13
  273.23        3346.25           6810        3372.00     14685.64
  273.26        3346.50           6814        2543.00     11069.25
  273.29        3346.75           6818        1581.00      6873.60
  273.32        3347.00           6821        1016.00      4409.87
  273.34        3347.25           6825         368.00      1584.64
  273.37        3347.50           6829          85.00       350.92
  273.40        3347.75           6833          39.00       150.39
  273.42        3348.00           6836          35.00       132.96
  273.45        3348.25           6840          33.00       124.24
  273.48        3348.50           6844          32.00       119.88
  273.50        3348.75           6848          34.00       128.60
  273.53        3349.00           6851          31.00       115.52
  273.56        3349.25           6855          28.00       102.44
  273.59        3349.50           6859          37.00       141.67
  273.61        3349.75           6863          33.00       124.24
  273.64        3350.00           6867          24.00        85.00
  273.67        3350.25           6870          30.00       111.16
  273.70        3350.50           6874          33.00       124.24
  273.72        3350.75           6878          28.00       102.44
  273.75        3351.00           6882          32.00       119.88
HL scan finished at 04:34:22
end
