************************************************************
  HL Scan of (1) Internal mercury lamp
************************************************************
Integration time is 0.2294 seconds per sample
dh301118Tamanrasset 22.79-5.529 4.974364pr865
************************************************************
Dead Time -------------------------  2.8E-08 
Number of Cycles Used -------------  4 
Starting Wavelength (Angstroms) ---  3331 
Final Wavelength (Angstoms) -------  3351 
Wavelength Increment (Angstroms) --  .25 
Filter Wheel #1 Position ---------- (1) Ground quartz diffuser (ND=2.32)
Filter Wheel #2 Position ---------- (0) Clear Aperture



************************************************************
HL scan start time = 04:29:51
Dark Count =  1.6 


Time (GMT)  Wavelength (Ang)  Step Number  Raw Counts  Counts/Second

  270.35        3331.00           6581          27.00       110.72
  270.57        3331.25           6585          29.00       119.44
  270.60        3331.50           6589          38.00       158.68
  270.63        3331.75           6593          29.00       119.44
  270.65        3332.00           6596          31.00       128.16
  270.68        3332.25           6600          27.00       110.72
  270.71        3332.50           6604          28.00       115.08
  270.74        3332.75           6608          21.00        84.57
  270.76        3333.00           6611          27.00       110.72
  270.79        3333.25           6615          25.00       102.01
  270.82        3333.50           6619          25.00       102.01
  270.84        3333.75           6623          26.00       106.36
  270.87        3334.00           6626          31.00       128.16
  270.90        3334.25           6630          26.00       106.36
  270.93        3334.50           6634          25.00       102.01
  270.95        3334.75           6638          30.00       123.80
  270.98        3335.00           6641          28.00       115.08
  271.01        3335.25           6645          27.00       110.72
  271.03        3335.50           6649          32.00       132.52
  271.06        3335.75           6653          36.00       149.96
  271.09        3336.00           6656          45.00       189.19
  271.12        3336.25           6660         168.00       725.39
  271.14        3336.50           6664         499.00      2168.40
  271.17        3336.75           6668         746.00      3245.28
  271.20        3337.00           6671        1236.00      5381.80
  271.22        3337.25           6675        2407.00     10488.69
  271.25        3337.50           6679        3623.00     15793.38
  271.28        3337.75           6683        4875.00     21256.76
  271.31        3338.00           6686        6027.00     26285.25
  271.33        3338.25           6690        7426.00     32393.80
  271.36        3338.50           6694        8889.00     38784.04
  271.39        3338.75           6698       10169.00     44376.82
  271.42        3339.00           6701       11273.00     49202.01
  271.44        3339.25           6705       12496.00     54548.82
  271.47        3339.50           6709       13999.00     61121.96
  271.50        3339.75           6713       15325.00     66923.03
  271.52        3340.00           6716       16450.00     71846.22
  271.55        3340.25           6720       17857.00     78005.41
  271.58        3340.50           6724       19161.00     83715.62
  271.61        3340.75           6728       20429.00     89269.94
  271.63        3341.00           6731       21633.00     94545.51
  271.66        3341.25           6735       22589.00     98735.54
  271.69        3341.50           6739       23698.00    103597.40
  271.72        3341.75           6743       24110.00    105403.90
  271.74        3342.00           6746       24160.00    105623.20
  271.77        3342.25           6750       23911.00    104531.30
  271.80        3342.50           6754       22944.00    100291.70
  271.83        3342.75           6758       21715.00     94904.88
  271.85        3343.00           6761       20838.00     91061.88
  271.88        3343.25           6765       19576.00     85533.29
  271.91        3343.50           6769       18314.00     80006.41
  271.93        3343.75           6773       16984.00     74183.58
  271.96        3344.00           6776       15827.00     69119.71
  271.99        3344.25           6780       14467.00     63169.17
  272.02        3344.50           6784       13096.00     57172.53
  272.05        3344.75           6788       11693.00     51038.01
  272.07        3345.00           6791       10524.00     45928.26
  272.10        3345.25           6795        9310.00     40623.34
  272.13        3345.50           6799        7485.00     32651.46
  272.15        3345.75           6803        5669.00     24722.43
  272.18        3346.00           6806        4558.00     19873.31
  272.21        3346.25           6810        3322.00     14480.15
  272.24        3346.50           6814        2464.00     10737.32
  272.26        3346.75           6818        1654.00      7204.59
  272.29        3347.00           6821        1081.00      4705.94
  272.32        3347.25           6825         364.00      1579.84
  272.34        3347.50           6829          92.00       394.08
  272.37        3347.75           6833          37.00       154.32
  272.40        3348.00           6836          35.00       145.60
  272.43        3348.25           6840          31.00       128.16
  272.45        3348.50           6844          27.00       110.72
  272.48        3348.75           6848          33.00       136.88
  272.51        3349.00           6851          33.00       136.88
  272.53        3349.25           6855          30.00       123.80
  272.56        3349.50           6859          30.00       123.80
  272.59        3349.75           6863          31.00       128.16
  272.62        3350.00           6867          29.00       119.44
  272.64        3350.25           6870          36.00       149.96
  272.67        3350.50           6874          28.00       115.08
  272.70        3350.75           6878          30.00       123.80
  272.72        3351.00           6882          32.00       132.52
HL scan finished at 04:33:21
end
