************************************************************
  HL Scan of (1) Internal mercury lamp
************************************************************
Integration time is 0.2294 seconds per sample
dh011218Tamanrasset 22.79-5.529 4.974364pr865
************************************************************
Dead Time -------------------------  2.8E-08 
Number of Cycles Used -------------  4 
Starting Wavelength (Angstroms) ---  3331 
Final Wavelength (Angstoms) -------  3351 
Wavelength Increment (Angstroms) --  .25 
Filter Wheel #1 Position ---------- (1) Ground quartz diffuser (ND=2.32)
Filter Wheel #2 Position ---------- (0) Clear Aperture



************************************************************
HL scan start time = 04:30:18
Dark Count =  3.8 


Time (GMT)  Wavelength (Ang)  Step Number  Raw Counts  Counts/Second

  270.82        3331.00           6581          28.00       105.49
  271.03        3331.25           6585          32.00       122.93
  271.06        3331.50           6589          27.00       101.13
  271.09        3331.75           6593          27.00       101.13
  271.12        3332.00           6596          34.00       131.65
  271.14        3332.25           6600          28.00       105.49
  271.17        3332.50           6604          28.00       105.49
  271.20        3332.75           6608          32.00       122.93
  271.22        3333.00           6611          28.00       105.49
  271.25        3333.25           6615          26.00        96.77
  271.28        3333.50           6619          27.00       101.13
  271.31        3333.75           6623          27.00       101.13
  271.33        3334.00           6626          27.00       101.13
  271.36        3334.25           6630          28.00       105.49
  271.39        3334.50           6634          30.00       114.21
  271.41        3334.75           6638          31.00       118.57
  271.44        3335.00           6641          32.00       122.93
  271.47        3335.25           6645          28.00       105.49
  271.50        3335.50           6649          28.00       105.49
  271.52        3335.75           6653          45.00       179.60
  271.55        3336.00           6656          43.00       170.88
  271.58        3336.25           6660         152.00       646.04
  271.60        3336.50           6664         519.00      2246.00
  271.63        3336.75           6668         861.00      3737.10
  271.66        3337.00           6671        1316.00      5721.06
  271.69        3337.25           6675        2414.00     10509.63
  271.71        3337.50           6679        3779.00     16464.43
  271.74        3337.75           6683        5049.00     22006.59
  271.77        3338.00           6686        6055.00     26397.89
  271.79        3338.25           6690        7642.00     33327.51
  271.82        3338.50           6694        8828.00     38507.94
  271.85        3338.75           6698       10166.00     44354.09
  271.88        3339.00           6701       11278.00     49214.24
  271.90        3339.25           6705       12745.00     55627.99
  271.93        3339.50           6709       14094.00     61527.88
  271.96        3339.75           6713       15547.00     67884.80
  271.99        3340.00           6716       16437.00     71779.70
  272.01        3340.25           6720       17934.00     78332.91
  272.04        3340.50           6724       19291.00     84275.35
  272.07        3340.75           6728       20584.00     89939.38
  272.10        3341.00           6731       21580.00     94303.59
  272.12        3341.25           6735       22775.00     99541.22
  272.15        3341.50           6739       23665.00    103443.00
  272.18        3341.75           6743       24164.00    105631.10
  272.21        3342.00           6746       24330.00    106359.00
  272.23        3342.25           6750       23823.00    104135.80
  272.26        3342.50           6754       23290.00    101798.90
  272.29        3342.75           6758       21888.00     95653.40
  272.31        3343.00           6761       20911.00     91372.09
  272.34        3343.25           6765       19536.00     85348.44
  272.37        3343.50           6769       18427.00     80491.58
  272.40        3343.75           6773       17026.00     74357.79
  272.42        3344.00           6776       16040.00     70042.21
  272.45        3344.25           6780       14596.00     63723.89
  272.48        3344.50           6784       13169.00     57482.16
  272.51        3344.75           6788       11775.00     51386.88
  272.53        3345.00           6791       10698.00     46679.11
  272.56        3345.25           6795        9375.00     40897.73
  272.59        3345.50           6799        7480.00     32620.02
  272.61        3345.75           6803        5609.00     24450.91
  272.64        3346.00           6806        4485.00     19545.13
  272.67        3346.25           6810        3358.00     14627.61
  272.70        3346.50           6814        2453.00     10679.74
  272.72        3346.75           6818        1531.00      6658.61
  272.75        3347.00           6821        1049.00      4556.81
  272.78        3347.25           6825         388.00      1674.88
  272.81        3347.50           6829          80.00       332.17
  272.83        3347.75           6833          35.00       136.01
  272.86        3348.00           6836          30.00       114.21
  272.89        3348.25           6840          23.00        83.70
  272.91        3348.50           6844          26.00        96.77
  272.94        3348.75           6848          35.00       136.01
  272.97        3349.00           6851          31.00       118.57
  273.00        3349.25           6855          31.00       118.57
  273.02        3349.50           6859          33.00       127.29
  273.05        3349.75           6863          30.00       114.21
  273.08        3350.00           6867          23.00        83.70
  273.11        3350.25           6870          32.00       122.93
  273.13        3350.50           6874          28.00       105.49
  273.16        3350.75           6878          26.00        96.77
  273.19        3351.00           6882          30.00       114.21
HL scan finished at 04:33:48
end
