************************************************************
  HL Scan of (1) Internal mercury lamp
************************************************************
Integration time is 0.2294 seconds per sample
dh271118Tamanrasset 22.79-5.529 4.974364pr865
************************************************************
Dead Time -------------------------  2.8E-08 
Number of Cycles Used -------------  4 
Starting Wavelength (Angstroms) ---  3331 
Final Wavelength (Angstoms) -------  3351 
Wavelength Increment (Angstroms) --  .25 
Filter Wheel #1 Position ---------- (1) Ground quartz diffuser (ND=2.32)
Filter Wheel #2 Position ---------- (0) Clear Aperture



************************************************************
HL scan start time = 04:28:20
Dark Count =  3 


Time (GMT)  Wavelength (Ang)  Step Number  Raw Counts  Counts/Second

  268.84        3331.00           6581          28.00       108.98
  269.06        3331.25           6585          31.00       122.06
  269.09        3331.50           6589          27.00       104.62
  269.11        3331.75           6593          33.00       130.78
  269.14        3332.00           6596          26.00       100.26
  269.17        3332.25           6600          27.00       104.62
  269.20        3332.50           6604          27.00       104.62
  269.22        3332.75           6608          31.00       122.06
  269.25        3333.00           6611          31.00       122.06
  269.28        3333.25           6615          33.00       130.78
  269.30        3333.50           6619          25.00        95.90
  269.33        3333.75           6623          29.00       113.34
  269.36        3334.00           6626          28.00       108.98
  269.39        3334.25           6630          27.00       104.62
  269.41        3334.50           6634          24.00        91.54
  269.44        3334.75           6638          28.00       108.98
  269.47        3335.00           6641          29.00       113.34
  269.49        3335.25           6645          29.00       113.34
  269.52        3335.50           6649          35.00       139.49
  269.55        3335.75           6653          35.00       139.49
  269.58        3336.00           6656          75.00       313.87
  269.60        3336.25           6660         265.00      1142.15
  269.63        3336.50           6664         582.00      2524.15
  269.66        3336.75           6668         933.00      4054.51
  269.68        3337.00           6671        1510.00      6570.52
  269.71        3337.25           6675        2767.00     12052.89
  269.74        3337.50           6679        4050.00     17650.40
  269.77        3337.75           6683        5390.00     23498.46
  269.79        3338.00           6686        6454.00     28143.35
  269.82        3338.25           6690        7886.00     34396.67
  269.85        3338.50           6694        9168.00     39996.82
  269.88        3338.75           6698       10494.00     45791.02
  269.90        3339.00           6701       11630.00     50756.48
  269.93        3339.25           6705       13102.00     57192.65
  269.96        3339.50           6709       14504.00     63324.92
  269.99        3339.75           6713       15952.00     69660.60
  270.01        3340.00           6716       17096.00     74667.71
  270.04        3340.25           6720       18384.00     80306.80
  270.07        3340.50           6724       19738.00     86236.75
  270.10        3340.75           6728       21104.00     92221.27
  270.12        3341.00           6731       22027.00     96266.11
  270.15        3341.25           6735       23171.00    101280.70
  270.18        3341.50           6739       23942.00    104661.10
  270.20        3341.75           6743       24406.00    106695.80
  270.23        3342.00           6746       24239.00    105963.50
  270.26        3342.25           6750       24016.00    104985.60
  270.29        3342.50           6754       23114.00    101030.80
  270.31        3342.75           6758       21722.00     94929.41
  270.34        3343.00           6761       20742.00     90635.13
  270.37        3343.25           6765       19479.00     85102.29
  270.40        3343.50           6769       18177.00     79400.38
  270.42        3343.75           6773       16739.00     73105.03
  270.45        3344.00           6776       15628.00     68242.75
  270.48        3344.25           6780       14156.00     61802.59
  270.50        3344.50           6784       12825.00     55981.32
  270.53        3344.75           6788       11496.00     50170.69
  270.56        3345.00           6791       10308.00     44978.15
  270.59        3345.25           6795        8824.00     38493.95
  270.61        3345.50           6799        7070.00     30833.06
  270.64        3345.75           6803        5408.00     23577.03
  270.67        3346.00           6806        4117.00     17942.75
  270.70        3346.25           6810        2959.00     12890.44
  270.72        3346.50           6814        2198.00      9571.00
  270.75        3346.75           6818        1450.00      6308.87
  270.78        3347.00           6821         820.00      3561.82
  270.80        3347.25           6825         236.00      1015.72
  270.83        3347.50           6829          48.00       196.16
  270.86        3347.75           6833          36.00       143.85
  270.89        3348.00           6836          33.00       130.78
  270.91        3348.25           6840          32.00       126.42
  270.94        3348.50           6844          33.00       130.78
  270.97        3348.75           6848          30.00       117.70
  270.99        3349.00           6851          32.00       126.42
  271.02        3349.25           6855          39.00       156.93
  271.05        3349.50           6859          31.00       122.06
  271.08        3349.75           6863          27.00       104.62
  271.10        3350.00           6867          32.00       126.42
  271.13        3350.25           6870          29.00       113.34
  271.16        3350.50           6874          32.00       126.42
  271.18        3350.75           6878          30.00       117.70
  271.21        3351.00           6882          31.00       122.06
HL scan finished at 04:31:50
end
