************************************************************
  HL Scan of (1) Internal mercury lamp
************************************************************
Integration time is 0.2294 seconds per sample
dh021218Tamanrasset 22.79-5.529 4.974364pr865
************************************************************
Dead Time -------------------------  2.8E-08 
Number of Cycles Used -------------  4 
Starting Wavelength (Angstroms) ---  3331 
Final Wavelength (Angstoms) -------  3351 
Wavelength Increment (Angstroms) --  .25 
Filter Wheel #1 Position ---------- (1) Ground quartz diffuser (ND=2.32)
Filter Wheel #2 Position ---------- (0) Clear Aperture



************************************************************
HL scan start time = 04:30:29
Dark Count =  4.4 


Time (GMT)  Wavelength (Ang)  Step Number  Raw Counts  Counts/Second

  271.00        3331.00           6581          30.00       111.60
  271.22        3331.25           6585          29.00       107.24
  271.24        3331.50           6589          21.00        72.36
  271.27        3331.75           6593          21.00        72.36
  271.30        3332.00           6596          25.00        89.80
  271.33        3332.25           6600          31.00       115.96
  271.35        3332.50           6604          26.00        94.16
  271.38        3332.75           6608          27.00        98.52
  271.41        3333.00           6611          27.00        98.52
  271.43        3333.25           6615          25.00        89.80
  271.46        3333.50           6619          30.00       111.60
  271.49        3333.75           6623          28.00       102.88
  271.51        3334.00           6626          31.00       115.96
  271.54        3334.25           6630          26.00        94.16
  271.57        3334.50           6634          25.00        89.80
  271.60        3334.75           6638          25.00        89.80
  271.62        3335.00           6641          26.00        94.16
  271.65        3335.25           6645          28.00       102.88
  271.68        3335.50           6649          37.00       142.11
  271.71        3335.75           6653          31.00       115.96
  271.73        3336.00           6656          45.00       176.98
  271.76        3336.25           6660         129.00       543.16
  271.79        3336.50           6664         456.00      1968.72
  271.81        3336.75           6668         624.00      2701.16
  271.84        3337.00           6671        1098.00      4767.86
  271.87        3337.25           6675        2153.00      9368.63
  271.90        3337.50           6679        3412.00     14860.59
  271.92        3337.75           6683        4742.00     20664.09
  271.95        3338.00           6686        5792.00     25247.14
  271.98        3338.25           6690        7239.00     31564.94
  272.01        3338.50           6694        8636.00     37666.56
  272.03        3338.75           6698       10031.00     43761.53
  272.06        3339.00           6701       11025.00     48105.73
  272.09        3339.25           6705       12405.00     54138.68
  272.12        3339.50           6709       13721.00     59893.74
  272.14        3339.75           6713       15212.00     66416.33
  272.17        3340.00           6716       16293.00     71146.83
  272.20        3340.25           6720       17616.00     76938.03
  272.22        3340.50           6724       19021.00     83090.21
  272.25        3340.75           6728       20363.00     88968.52
  272.28        3341.00           6731       21168.00     92495.56
  272.31        3341.25           6735       22492.00     98298.08
  272.33        3341.50           6739       23369.00    102142.60
  272.36        3341.75           6743       24011.00    104957.50
  272.39        3342.00           6746       24105.00    105369.70
  272.42        3342.25           6750       23957.00    104720.70
  272.44        3342.50           6754       23293.00    101809.40
  272.47        3342.75           6758       22099.00     96575.53
  272.50        3343.00           6761       21346.00     93275.55
  272.53        3343.25           6765       19888.00     86887.68
  272.55        3343.50           6769       18583.00     81172.07
  272.58        3343.75           6773       17102.00     74687.85
  272.61        3344.00           6776       16002.00     69873.28
  272.63        3344.25           6780       14827.00     64731.87
  272.66        3344.50           6784       13228.00     57737.55
  272.69        3344.75           6788       11784.00     51423.60
  272.72        3345.00           6791       10690.00     46641.52
  272.74        3345.25           6795        9434.00     41152.89
  272.77        3345.50           6799        7655.00     33381.67
  272.80        3345.75           6803        5857.00     25530.89
  272.83        3346.00           6806        4638.00     20210.22
  272.85        3346.25           6810        3383.00     14734.06
  272.88        3346.50           6814        2586.00     11257.25
  272.91        3346.75           6818        1785.00      7763.68
  272.93        3347.00           6821        1134.00      4924.83
  272.96        3347.25           6825         478.00      2064.64
  272.99        3347.50           6829         124.00       521.37
  273.02        3347.75           6833          32.00       120.31
  273.04        3348.00           6836          33.00       124.67
  273.07        3348.25           6840          28.00       102.88
  273.10        3348.50           6844          32.00       120.31
  273.13        3348.75           6848          31.00       115.96
  273.15        3349.00           6851          32.00       120.31
  273.18        3349.25           6855          32.00       120.31
  273.21        3349.50           6859          31.00       115.96
  273.23        3349.75           6863          34.00       129.03
  273.26        3350.00           6867          31.00       115.96
  273.29        3350.25           6870          31.00       115.96
  273.32        3350.50           6874          28.00       102.88
  273.34        3350.75           6878          29.00       107.24
  273.37        3351.00           6882          37.00       142.11
HL scan finished at 04:33:59
end
