************************************************************
  HL Scan of (1) Internal mercury lamp
************************************************************
Integration time is 0.2294 seconds per sample
dh041218Tamanrasset 22.79-5.529 4.974364pr865
************************************************************
Dead Time -------------------------  2.8E-08 
Number of Cycles Used -------------  4 
Starting Wavelength (Angstroms) ---  3331 
Final Wavelength (Angstoms) -------  3351 
Wavelength Increment (Angstroms) --  .25 
Filter Wheel #1 Position ---------- (1) Ground quartz diffuser (ND=2.32)
Filter Wheel #2 Position ---------- (0) Clear Aperture



************************************************************
HL scan start time = 04:31:52
Dark Count =  3.2 


Time (GMT)  Wavelength (Ang)  Step Number  Raw Counts  Counts/Second

  272.37        3331.00           6581          25.00        95.03
  272.59        3331.25           6585          27.00       103.75
  272.62        3331.50           6589          30.00       116.83
  272.64        3331.75           6593          28.00       108.11
  272.67        3332.00           6596          28.00       108.11
  272.70        3332.25           6600          29.00       112.47
  272.73        3332.50           6604          27.00       103.75
  272.75        3332.75           6608          26.00        99.39
  272.78        3333.00           6611          26.00        99.39
  272.81        3333.25           6615          24.00        90.67
  272.83        3333.50           6619          28.00       108.11
  272.86        3333.75           6623          27.00       103.75
  272.89        3334.00           6626          26.00        99.39
  272.92        3334.25           6630          26.00        99.39
  272.94        3334.50           6634          34.00       134.26
  272.97        3334.75           6638          26.00        99.39
  273.00        3335.00           6641          34.00       134.26
  273.02        3335.25           6645          36.00       142.98
  273.05        3335.50           6649          35.00       138.62
  273.08        3335.75           6653          29.00       112.47
  273.11        3336.00           6656          45.00       182.22
  273.13        3336.25           6660         171.00       731.49
  273.16        3336.50           6664         508.00      2200.66
  273.19        3336.75           6668         753.00      3268.83
  273.21        3337.00           6671        1292.00      5619.02
  273.24        3337.25           6675        2345.00     10211.29
  273.27        3337.50           6679        3671.00     15995.83
  273.30        3337.75           6683        5036.00     21952.46
  273.32        3338.00           6686        6018.00     26238.97
  273.35        3338.25           6690        7455.00     32513.46
  273.38        3338.50           6694        8896.00     38807.62
  273.41        3338.75           6698       10189.00     44457.23
  273.43        3339.00           6701       11275.00     49203.75
  273.46        3339.25           6705       12686.00     55372.62
  273.49        3339.50           6709       14187.00     61937.32
  273.51        3339.75           6713       15526.00     67795.53
  273.54        3340.00           6716       16544.00     72250.65
  273.57        3340.25           6720       17784.00     77678.80
  273.60        3340.50           6724       19217.00     83953.88
  273.62        3340.75           6728       20655.00     90253.09
  273.65        3341.00           6731       21637.00     94556.04
  273.68        3341.25           6735       22709.00     99254.53
  273.71        3341.50           6739       23497.00    102709.10
  273.73        3341.75           6743       24134.00    105502.10
  273.76        3342.00           6746       24185.00    105725.80
  273.79        3342.25           6750       23694.00    103572.80
  273.81        3342.50           6754       23051.00    100753.80
  273.84        3342.75           6758       21753.00     95064.40
  273.87        3343.00           6761       20759.00     90708.74
  273.90        3343.25           6765       19422.00     84851.76
  273.92        3343.50           6769       18062.00     78896.00
  273.95        3343.75           6773       16749.00     73147.93
  273.98        3344.00           6776       15725.00     68666.34
  274.01        3344.25           6780       14316.00     62501.61
  274.03        3344.50           6784       13004.00     56763.21
  274.06        3344.75           6788       11629.00     50751.23
  274.09        3345.00           6791       10522.00     45912.52
  274.12        3345.25           6795        9148.00     39908.56
  274.14        3345.50           6799        7397.00     32260.17
  274.17        3345.75           6803        5469.00     23842.42
  274.20        3346.00           6806        4276.00     18635.70
  274.22        3346.25           6810        3243.00     14128.52
  274.25        3346.50           6814        2476.00     10782.68
  274.28        3346.75           6818        1553.00      6757.16
  274.31        3347.00           6821         947.00      4114.69
  274.33        3347.25           6825         323.00      1394.13
  274.36        3347.50           6829          84.00       352.23
  274.39        3347.75           6833          36.00       142.98
  274.41        3348.00           6836          30.00       116.83
  274.44        3348.25           6840          33.00       129.90
  274.47        3348.50           6844          30.00       116.83
  274.50        3348.75           6848          28.00       108.11
  274.52        3349.00           6851          32.00       125.55
  274.55        3349.25           6855          32.00       125.55
  274.58        3349.50           6859          28.00       108.11
  274.60        3349.75           6863          30.00       116.83
  274.63        3350.00           6867          33.00       129.90
  274.66        3350.25           6870          28.00       108.11
  274.69        3350.50           6874          27.00       103.75
  274.71        3350.75           6878          35.00       138.62
  274.74        3351.00           6882          31.00       121.19
HL scan finished at 04:35:22
end
