************************************************************
  HL Scan of (1) Internal mercury lamp
************************************************************
Integration time is 0.2294 seconds per sample
dh291118Tamanrasset 22.79-5.529 4.974364pr865
************************************************************
Dead Time -------------------------  2.8E-08 
Number of Cycles Used -------------  4 
Starting Wavelength (Angstroms) ---  3331 
Final Wavelength (Angstoms) -------  3351 
Wavelength Increment (Angstroms) --  .25 
Filter Wheel #1 Position ---------- (1) Ground quartz diffuser (ND=2.32)
Filter Wheel #2 Position ---------- (0) Clear Aperture



************************************************************
HL scan start time = 04:29:20
Dark Count =  4.9 


Time (GMT)  Wavelength (Ang)  Step Number  Raw Counts  Counts/Second

  269.85        3331.00           6581          25.00        87.62
  270.07        3331.25           6585          32.00       118.13
  270.10        3331.50           6589          29.00       105.06
  270.12        3331.75           6593          27.00        96.34
  270.15        3332.00           6596          32.00       118.13
  270.18        3332.25           6600          31.00       113.78
  270.20        3332.50           6604          28.00       100.70
  270.23        3332.75           6608          27.00        96.34
  270.26        3333.00           6611          29.00       105.06
  270.29        3333.25           6615          24.00        83.26
  270.31        3333.50           6619          31.00       113.78
  270.34        3333.75           6623          27.00        96.34
  270.37        3334.00           6626          31.00       113.78
  270.39        3334.25           6630          24.00        83.26
  270.42        3334.50           6634          30.00       109.42
  270.45        3334.75           6638          27.00        96.34
  270.48        3335.00           6641          26.00        91.98
  270.50        3335.25           6645          33.00       122.49
  270.53        3335.50           6649          36.00       135.57
  270.56        3335.75           6653          36.00       135.57
  270.59        3336.00           6656          78.00       318.66
  270.61        3336.25           6660         235.00      1003.08
  270.64        3336.50           6664         461.00      1988.34
  270.67        3336.75           6668         883.00      3828.22
  270.69        3337.00           6671        1500.00      6518.63
  270.72        3337.25           6675        2640.00     11490.62
  270.75        3337.50           6679        3899.00     16983.23
  270.78        3337.75           6683        5277.00     22996.93
  270.80        3338.00           6686        6324.00     27567.48
  270.83        3338.25           6690        7707.00     33606.59
  270.86        3338.50           6694        9162.00     39962.30
  270.88        3338.75           6698       10497.00     45795.83
  270.91        3339.00           6701       11573.00     50498.99
  270.94        3339.25           6705       12896.00     56283.49
  270.97        3339.50           6709       14380.00     62774.14
  270.99        3339.75           6713       15953.00     69656.65
  271.02        3340.00           6716       16841.00     73543.18
  271.05        3340.25           6720       18336.00     80088.28
  271.08        3340.50           6724       19640.00     85799.16
  271.10        3340.75           6728       20915.00     91384.80
  271.13        3341.00           6731       21902.00     95709.94
  271.16        3341.25           6735       23010.00    100566.60
  271.18        3341.50           6739       23895.00    104446.70
  271.21        3341.75           6743       24430.00    106792.70
  271.24        3342.00           6746       24465.00    106946.20
  271.27        3342.25           6750       24099.00    105341.20
  271.29        3342.50           6754       23282.00    101759.00
  271.32        3342.75           6758       22023.00     96240.24
  271.35        3343.00           6761       21015.00     91822.96
  271.38        3343.25           6765       19653.00     85856.09
  271.40        3343.50           6769       18327.00     80048.88
  271.43        3343.75           6773       17053.00     74471.16
  271.46        3344.00           6776       15849.00     69201.53
  271.48        3344.25           6780       14481.00     63215.98
  271.51        3344.50           6784       12989.00     56690.18
  271.54        3344.75           6788       11667.00     50909.92
  271.57        3345.00           6791       10398.00     45363.16
  271.59        3345.25           6795        8910.00     38861.36
  271.62        3345.50           6799        7242.00     31575.86
  271.65        3345.75           6803        5398.00     23525.08
  271.68        3346.00           6806        4145.00     18056.64
  271.70        3346.25           6810        3056.00     13305.31
  271.73        3346.50           6814        2376.00     10339.09
  271.76        3346.75           6818        1483.00      6444.49
  271.79        3347.00           6821         841.00      3645.10
  271.81        3347.25           6825         263.00      1125.14
  271.84        3347.50           6829          57.00       227.12
  271.87        3347.75           6833          35.00       131.21
  271.89        3348.00           6836          33.00       122.49
  271.92        3348.25           6840          32.00       118.13
  271.95        3348.50           6844          33.00       122.49
  271.98        3348.75           6848          27.00        96.34
  272.00        3349.00           6851          27.00        96.34
  272.03        3349.25           6855          26.00        91.98
  272.06        3349.50           6859          30.00       109.42
  272.08        3349.75           6863          32.00       118.13
  272.11        3350.00           6867          31.00       113.78
  272.14        3350.25           6870          32.00       118.13
  272.17        3350.50           6874          31.00       113.78
  272.19        3350.75           6878          31.00       113.78
  272.22        3351.00           6882          31.00       113.78
HL scan finished at 04:32:51
end
