************************************************************
  HL Scan of (1) Internal mercury lamp
************************************************************
Integration time is 0.2294 seconds per sample
dh281118Tamanrasset 22.79-5.529 4.974364pr865
************************************************************
Dead Time -------------------------  2.8E-08 
Number of Cycles Used -------------  4 
Starting Wavelength (Angstroms) ---  3331 
Final Wavelength (Angstoms) -------  3351 
Wavelength Increment (Angstroms) --  .25 
Filter Wheel #1 Position ---------- (1) Ground quartz diffuser (ND=2.32)
Filter Wheel #2 Position ---------- (0) Clear Aperture



************************************************************
HL scan start time = 04:27:28
Dark Count =  4.5 


Time (GMT)  Wavelength (Ang)  Step Number  Raw Counts  Counts/Second

  267.98        3331.00           6581          24.00        85.00
  268.20        3331.25           6585          20.00        67.57
  268.22        3331.50           6589          29.00       106.80
  268.25        3331.75           6593          24.00        85.00
  268.28        3332.00           6596          25.00        89.36
  268.30        3332.25           6600          22.00        76.29
  268.33        3332.50           6604          30.00       111.16
  268.36        3332.75           6608          25.00        89.36
  268.38        3333.00           6611          27.00        98.08
  268.41        3333.25           6615          22.00        76.29
  268.44        3333.50           6619          30.00       111.16
  268.47        3333.75           6623          26.00        93.72
  268.49        3334.00           6626          26.00        93.72
  268.52        3334.25           6630          31.00       115.52
  268.55        3334.50           6634          32.00       119.88
  268.57        3334.75           6638          30.00       111.16
  268.60        3335.00           6641          32.00       119.88
  268.63        3335.25           6645          31.00       115.52
  268.66        3335.50           6649          41.00       159.11
  268.68        3335.75           6653          35.00       132.96
  268.71        3336.00           6656          44.00       172.19
  268.74        3336.25           6660         146.00       616.84
  268.76        3336.50           6664         438.00      1889.81
  268.79        3336.75           6668         849.00      3681.72
  268.82        3337.00           6671        1230.00      5343.00
  268.85        3337.25           6675        2299.00     10004.98
  268.87        3337.50           6679        3587.00     15623.66
  268.90        3337.75           6683        4943.00     21540.89
  268.93        3338.00           6686        6065.00     26438.49
  268.96        3338.25           6690        7427.00     32385.50
  268.98        3338.50           6694        8885.00     38753.89
  269.01        3338.75           6698       10256.00     44744.35
  269.04        3339.00           6701       11412.00     49796.94
  269.06        3339.25           6705       12601.00     54995.26
  269.09        3339.50           6709       14097.00     61537.95
  269.12        3339.75           6713       15364.00     67080.99
  269.15        3340.00           6716       16426.00     71728.49
  269.17        3340.25           6720       17791.00     77703.75
  269.20        3340.50           6724       19381.00     84666.48
  269.23        3340.75           6728       20562.00     89839.92
  269.26        3341.00           6731       21637.00     94550.34
  269.28        3341.25           6735       22828.00     99770.49
  269.31        3341.50           6739       23568.00    103014.70
  269.34        3341.75           6743       24152.00    105575.40
  269.37        3342.00           6746       24403.00    106676.10
  269.39        3342.25           6750       24024.00    105014.10
  269.42        3342.50           6754       23327.00    101958.10
  269.45        3342.75           6758       22223.00     97118.58
  269.47        3343.00           6761       21249.00     92850.06
  269.50        3343.25           6765       19757.00     86313.41
  269.53        3343.50           6769       18548.00     81018.37
  269.56        3343.75           6773       17204.00     75133.93
  269.58        3344.00           6776       16100.00     70301.72
  269.61        3344.25           6780       14549.00     63515.22
  269.64        3344.50           6784       13235.00     57767.74
  269.67        3344.75           6788       11877.00     51829.74
  269.69        3345.00           6791       10751.00     46907.69
  269.72        3345.25           6795        9362.00     40837.87
  269.75        3345.50           6799        7406.00     32293.79
  269.78        3345.75           6803        5656.00     24653.02
  269.80        3346.00           6806        4604.00     20061.40
  269.83        3346.25           6810        3564.00     15523.31
  269.86        3346.50           6814        2579.00     11226.28
  269.88        3346.75           6818        1707.00      7423.08
  269.91        3347.00           6821        1118.00      4854.63
  269.94        3347.25           6825         410.00      1767.74
  269.97        3347.50           6829          94.00       390.15
  269.99        3347.75           6833          29.00       106.80
  270.02        3348.00           6836          35.00       132.96
  270.05        3348.25           6840          31.00       115.52
  270.07        3348.50           6844          25.00        89.36
  270.10        3348.75           6848          36.00       137.32
  270.13        3349.00           6851          29.00       106.80
  270.16        3349.25           6855          37.00       141.67
  270.18        3349.50           6859          33.00       124.24
  270.21        3349.75           6863          36.00       137.32
  270.24        3350.00           6867          28.00       102.44
  270.26        3350.25           6870          30.00       111.16
  270.29        3350.50           6874          24.00        85.00
  270.32        3350.75           6878          32.00       119.88
  270.35        3351.00           6882          26.00        93.72
HL scan finished at 04:30:58
end
