************************************************************
  HL Scan of (1) Internal mercury lamp
************************************************************
Integration time is 0.2294 seconds per sample
dh141218Tamanrasset 22.79-5.529 4.974364pr865
************************************************************
Dead Time -------------------------  2.8E-08 
Number of Cycles Used -------------  4 
Starting Wavelength (Angstroms) ---  3331 
Final Wavelength (Angstoms) -------  3351 
Wavelength Increment (Angstroms) --  .25 
Filter Wheel #1 Position ---------- (1) Ground quartz diffuser (ND=2.32)
Filter Wheel #2 Position ---------- (0) Clear Aperture



************************************************************
HL scan start time = 04:37:24
Dark Count =  6.3 


Time (GMT)  Wavelength (Ang)  Step Number  Raw Counts  Counts/Second

  277.92        3331.00           6581          26.00        85.88
  278.14        3331.25           6585          28.00        94.59
  278.16        3331.50           6589          30.00       103.31
  278.19        3331.75           6593          27.00        90.24
  278.22        3332.00           6596          22.00        68.44
  278.24        3332.25           6600          33.00       116.39
  278.27        3332.50           6604          29.00        98.95
  278.30        3332.75           6608          23.00        72.80
  278.33        3333.00           6611          30.00       103.31
  278.35        3333.25           6615          26.00        85.88
  278.38        3333.50           6619          26.00        85.88
  278.41        3333.75           6623          27.00        90.24
  278.43        3334.00           6626          28.00        94.59
  278.46        3334.25           6630          34.00       120.75
  278.49        3334.50           6634          26.00        85.88
  278.52        3334.75           6638          28.00        94.59
  278.54        3335.00           6641          27.00        90.24
  278.57        3335.25           6645          35.00       125.11
  278.60        3335.50           6649          37.00       133.83
  278.63        3335.75           6653          35.00       125.11
  278.65        3336.00           6656          54.00       207.93
  278.68        3336.25           6660         258.00      1097.24
  278.71        3336.50           6664         684.00      2954.47
  278.73        3336.75           6668         942.00      4079.37
  278.76        3337.00           6671        1588.00      6896.28
  278.79        3337.25           6675        2784.00     12112.65
  278.82        3337.50           6679        4089.00     17806.17
  278.84        3337.75           6683        5390.00     23484.05
  278.87        3338.00           6686        6568.00     28626.69
  278.90        3338.25           6690        7839.00     34176.98
  278.92        3338.50           6694        9287.00     40502.32
  278.95        3338.75           6698       10658.00     46493.36
  278.98        3339.00           6701       11589.00     50562.82
  279.01        3339.25           6705       12890.00     56251.14
  279.03        3339.50           6709       14441.00     63034.88
  279.06        3339.75           6713       15828.00     69103.50
  279.09        3340.00           6716       16802.00     73366.34
  279.12        3340.25           6720       18148.00     79258.96
  279.14        3340.50           6724       19569.00     85482.03
  279.17        3340.75           6728       20889.00     91264.74
  279.20        3341.00           6731       21920.00     95782.69
  279.22        3341.25           6735       23008.00    100551.70
  279.25        3341.50           6739       23776.00    103918.80
  279.28        3341.75           6743       24098.00    105330.70
  279.31        3342.00           6746       24094.00    105313.10
  279.33        3342.25           6750       23812.00    104076.60
  279.36        3342.50           6754       22797.00     99626.69
  279.39        3342.75           6758       21355.00     93306.68
  279.42        3343.00           6761       20443.00     89310.68
  279.44        3343.25           6765       18988.00     82937.36
  279.47        3343.50           6769       17745.00     77494.47
  279.50        3343.75           6773       16556.00     72289.60
  279.52        3344.00           6776       15415.00     67296.27
  279.55        3344.25           6780       13988.00     61053.29
  279.58        3344.50           6784       12451.00     54331.51
  279.61        3344.75           6788       11060.00     48250.42
  279.63        3345.00           6791       10101.00     44059.12
  279.66        3345.25           6795        8663.00     37776.21
  279.69        3345.50           6799        6871.00     29949.70
  279.72        3345.75           6803        4951.00     21567.95
  279.74        3346.00           6806        3797.00     16532.06
  279.77        3346.25           6810        2684.00     11676.44
  279.80        3346.50           6814        1962.00      8527.32
  279.83        3346.75           6818        1181.00      5121.48
  279.85        3347.00           6821         684.00      2954.47
  279.88        3347.25           6825         182.00       765.93
  279.91        3347.50           6829          44.00       164.34
  279.93        3347.75           6833          34.00       120.75
  279.96        3348.00           6836          30.00       103.31
  279.99        3348.25           6840          28.00        94.59
  280.02        3348.50           6844          29.00        98.95
  280.04        3348.75           6848          30.00       103.31
  280.07        3349.00           6851          29.00        98.95
  280.10        3349.25           6855          28.00        94.59
  280.12        3349.50           6859          29.00        98.95
  280.15        3349.75           6863          25.00        81.52
  280.18        3350.00           6867          35.00       125.11
  280.21        3350.25           6870          26.00        85.88
  280.23        3350.50           6874          31.00       107.67
  280.26        3350.75           6878          30.00       103.31
  280.29        3351.00           6882          33.00       116.39
HL scan finished at 04:40:55
end
