************************************************************
  HL Scan of (1) Internal mercury lamp
************************************************************
Integration time is 0.2294 seconds per sample
dh101218Tamanrasset 22.79-5.529 4.974364pr865
************************************************************
Dead Time -------------------------  2.8E-08 
Number of Cycles Used -------------  4 
Starting Wavelength (Angstroms) ---  3331 
Final Wavelength (Angstoms) -------  3351 
Wavelength Increment (Angstroms) --  .25 
Filter Wheel #1 Position ---------- (1) Ground quartz diffuser (ND=2.32)
Filter Wheel #2 Position ---------- (0) Clear Aperture



************************************************************
HL scan start time = 04:34:56
Dark Count =  5.3 


Time (GMT)  Wavelength (Ang)  Step Number  Raw Counts  Counts/Second

  275.45        3331.00           6581          31.00       112.03
  275.67        3331.25           6585          31.00       112.03
  275.70        3331.50           6589          32.00       116.39
  275.73        3331.75           6593          30.00       107.67
  275.75        3332.00           6596          31.00       112.03
  275.78        3332.25           6600          31.00       112.03
  275.81        3332.50           6604          24.00        81.52
  275.83        3332.75           6608          26.00        90.24
  275.86        3333.00           6611          24.00        81.52
  275.89        3333.25           6615          30.00       107.67
  275.91        3333.50           6619          31.00       112.03
  275.94        3333.75           6623          27.00        94.59
  275.97        3334.00           6626          27.00        94.59
  276.00        3334.25           6630          30.00       107.67
  276.02        3334.50           6634          26.00        90.24
  276.05        3334.75           6638          25.00        85.88
  276.08        3335.00           6641          30.00       107.67
  276.10        3335.25           6645          33.00       120.75
  276.13        3335.50           6649          32.00       116.39
  276.16        3335.75           6653          35.00       129.47
  276.19        3336.00           6656          43.00       164.34
  276.21        3336.25           6660         125.00       521.80
  276.24        3336.50           6664         388.00      1668.34
  276.27        3336.75           6668         692.00      2993.71
  276.30        3337.00           6671        1130.00      4903.46
  276.32        3337.25           6675        2146.00      9334.18
  276.35        3337.50           6679        3480.00     15153.33
  276.38        3337.75           6683        4713.00     20533.60
  276.41        3338.00           6686        5785.00     25212.65
  276.43        3338.25           6690        7140.00     31128.69
  276.46        3338.50           6694        8524.00     37173.37
  276.49        3338.75           6698        9798.00     42739.44
  276.51        3339.00           6701       10867.00     47411.20
  276.54        3339.25           6705       12246.00     53439.54
  276.57        3339.50           6709       13697.00     59784.83
  276.60        3339.75           6713       15165.00     66206.75
  276.62        3340.00           6716       16232.00     70875.91
  276.65        3340.25           6720       17612.00     76916.56
  276.68        3340.50           6724       18911.00     82604.53
  276.71        3340.75           6728       20307.00     88719.24
  276.73        3341.00           6731       21194.00     92605.55
  276.76        3341.25           6735       22472.00     98206.47
  276.79        3341.50           6739       23364.00    102116.80
  276.81        3341.75           6743       24083.00    105269.30
  276.84        3342.00           6746       24135.00    105497.30
  276.87        3342.25           6750       23820.00    104116.10
  276.90        3342.50           6754       23401.00    102279.00
  276.92        3342.75           6758       22055.00     96378.74
  276.95        3343.00           6761       21051.00     91978.94
  276.98        3343.25           6765       19699.00     86055.84
  277.01        3343.50           6769       18426.00     80480.63
  277.03        3343.75           6773       17081.00     74591.99
  277.06        3344.00           6776       16062.00     70131.93
  277.09        3344.25           6780       14678.00     64076.07
  277.12        3344.50           6784       13377.00     58385.26
  277.14        3344.75           6788       11950.00     52145.40
  277.17        3345.00           6791       10968.00     47852.66
  277.20        3345.25           6795        9402.00     41009.14
  277.23        3345.50           6799        7565.00     32984.68
  277.25        3345.75           6803        5605.00     24426.90
  277.28        3346.00           6806        4654.00     20276.11
  277.31        3346.25           6810        3624.00     15781.60
  277.34        3346.50           6814        2746.00     11951.25
  277.36        3346.75           6818        1752.00      7615.84
  277.39        3347.00           6821        1198.00      5199.97
  277.42        3347.25           6825         443.00      1908.12
  277.44        3347.50           6829         107.00       443.34
  277.47        3347.75           6833          30.00       107.67
  277.50        3348.00           6836          34.00       125.11
  277.53        3348.25           6840          26.00        90.24
  277.55        3348.50           6844          27.00        94.59
  277.58        3348.75           6848          29.00       103.31
  277.61        3349.00           6851          35.00       129.47
  277.63        3349.25           6855          27.00        94.59
  277.66        3349.50           6859          25.00        85.88
  277.69        3349.75           6863          26.00        90.24
  277.72        3350.00           6867          34.00       125.11
  277.74        3350.25           6870          29.00       103.31
  277.77        3350.50           6874          26.00        90.24
  277.80        3350.75           6878          29.00       103.31
  277.83        3351.00           6882          33.00       120.75
HL scan finished at 04:38:27
end
