************************************************************
  HL Scan of (1) Internal mercury lamp
************************************************************
Integration time is 0.2294 seconds per sample
dh111218Tamanrasset 22.79-5.529 4.974364pr865
************************************************************
Dead Time -------------------------  2.8E-08 
Number of Cycles Used -------------  4 
Starting Wavelength (Angstroms) ---  3331 
Final Wavelength (Angstoms) -------  3351 
Wavelength Increment (Angstroms) --  .25 
Filter Wheel #1 Position ---------- (1) Ground quartz diffuser (ND=2.32)
Filter Wheel #2 Position ---------- (0) Clear Aperture



************************************************************
HL scan start time = 04:36:24
Dark Count =  4.5 


Time (GMT)  Wavelength (Ang)  Step Number  Raw Counts  Counts/Second

  276.91        3331.00           6581          34.00       128.60
  277.13        3331.25           6585          25.00        89.36
  277.15        3331.50           6589          30.00       111.16
  277.18        3331.75           6593          28.00       102.44
  277.21        3332.00           6596          33.00       124.24
  277.24        3332.25           6600          28.00       102.44
  277.26        3332.50           6604          31.00       115.52
  277.29        3332.75           6608          24.00        85.00
  277.32        3333.00           6611          32.00       119.88
  277.34        3333.25           6615          30.00       111.16
  277.37        3333.50           6619          33.00       124.24
  277.40        3333.75           6623          26.00        93.72
  277.43        3334.00           6626          25.00        89.36
  277.45        3334.25           6630          28.00       102.44
  277.48        3334.50           6634          29.00       106.80
  277.51        3334.75           6638          31.00       115.52
  277.53        3335.00           6641          26.00        93.72
  277.56        3335.25           6645          32.00       119.88
  277.59        3335.50           6649          32.00       119.88
  277.62        3335.75           6653          36.00       137.32
  277.64        3336.00           6656          52.00       207.06
  277.67        3336.25           6660         123.00       516.57
  277.70        3336.50           6664         486.00      2099.08
  277.72        3336.75           6668         771.00      3341.64
  277.75        3337.00           6671        1158.00      5029.04
  277.78        3337.25           6675        2224.00      9677.86
  277.81        3337.50           6679        3471.00     15117.56
  277.83        3337.75           6683        4803.00     20929.87
  277.86        3338.00           6686        5863.00     25556.64
  277.89        3338.25           6690        7242.00     31577.60
  277.92        3338.50           6694        8621.00     37600.60
  277.94        3338.75           6698        9930.00     43319.73
  277.97        3339.00           6701       10983.00     47921.71
  278.00        3339.25           6705       12339.00     53849.66
  278.03        3339.50           6709       13637.00     59525.90
  278.05        3339.75           6713       15158.00     66179.63
  278.08        3340.00           6716       16331.00     71312.71
  278.11        3340.25           6720       17590.00     76823.76
  278.13        3340.50           6724       19025.00     83107.29
  278.16        3340.75           6728       20382.00     89051.33
  278.19        3341.00           6731       21396.00     93494.22
  278.22        3341.25           6735       22514.00     98394.08
  278.24        3341.50           6739       23282.00    101760.80
  278.27        3341.75           6743       24009.00    104948.30
  278.30        3342.00           6746       24024.00    105014.10
  278.33        3342.25           6750       23689.00    103545.20
  278.35        3342.50           6754       23138.00    101129.50
  278.38        3342.75           6758       21778.00     95168.26
  278.41        3343.00           6761       20722.00     90540.93
  278.44        3343.25           6765       19497.00     85174.56
  278.46        3343.50           6769       18183.00     79420.10
  278.49        3343.75           6773       16853.00     73597.46
  278.52        3344.00           6776       15795.00     68966.97
  278.54        3344.25           6780       14482.00     63222.11
  278.57        3344.50           6784       13025.00     56849.36
  278.60        3344.75           6788       11717.00     51130.26
  278.63        3345.00           6791       10529.00     45937.43
  278.65        3345.25           6795        9316.00     40636.88
  278.68        3345.50           6799        7334.00     31979.37
  278.71        3345.75           6803        5531.00     24107.37
  278.74        3346.00           6806        4388.00     19118.78
  278.76        3346.25           6810        3397.00     14794.71
  278.79        3346.50           6814        2415.00     10510.94
  278.82        3346.75           6818        1544.00      6712.25
  278.85        3347.00           6821        1046.00      4540.68
  278.87        3347.25           6825         389.00      1676.19
  278.90        3347.50           6829          84.00       346.56
  278.93        3347.75           6833          33.00       124.24
  278.95        3348.00           6836          33.00       124.24
  278.98        3348.25           6840          33.00       124.24
  279.01        3348.50           6844          32.00       119.88
  279.04        3348.75           6848          31.00       115.52
  279.06        3349.00           6851          30.00       111.16
  279.09        3349.25           6855          31.00       115.52
  279.12        3349.50           6859          28.00       102.44
  279.14        3349.75           6863          28.00       102.44
  279.17        3350.00           6867          26.00        93.72
  279.20        3350.25           6870          26.00        93.72
  279.23        3350.50           6874          29.00       106.80
  279.25        3350.75           6878          29.00       106.80
  279.28        3351.00           6882          36.00       137.32
HL scan finished at 04:39:54
end
