************************************************************
  HL Scan of (1) Internal mercury lamp
************************************************************
Integration time is 0.2294 seconds per sample
dh061218Tamanrasset 22.79-5.529 4.974364pr865
************************************************************
Dead Time -------------------------  2.8E-08 
Number of Cycles Used -------------  4 
Starting Wavelength (Angstroms) ---  3331 
Final Wavelength (Angstoms) -------  3351 
Wavelength Increment (Angstroms) --  .25 
Filter Wheel #1 Position ---------- (1) Ground quartz diffuser (ND=2.32)
Filter Wheel #2 Position ---------- (0) Clear Aperture



************************************************************
HL scan start time = 04:32:50
Dark Count =  3.1 


Time (GMT)  Wavelength (Ang)  Step Number  Raw Counts  Counts/Second

  273.35        3331.00           6581          31.00       121.62
  273.57        3331.25           6585          33.00       130.34
  273.60        3331.50           6589          27.00       104.19
  273.62        3331.75           6593          31.00       121.62
  273.65        3332.00           6596          24.00        91.11
  273.68        3332.25           6600          25.00        95.47
  273.70        3332.50           6604          30.00       117.26
  273.73        3332.75           6608          31.00       121.62
  273.76        3333.00           6611          32.00       125.98
  273.79        3333.25           6615          28.00       108.54
  273.81        3333.50           6619          29.00       112.90
  273.84        3333.75           6623          26.00        99.83
  273.87        3334.00           6626          24.00        91.11
  273.90        3334.25           6630          30.00       117.26
  273.92        3334.50           6634          27.00       104.19
  273.95        3334.75           6638          28.00       108.54
  273.98        3335.00           6641          27.00       104.19
  274.00        3335.25           6645          34.00       134.70
  274.03        3335.50           6649          37.00       147.78
  274.06        3335.75           6653          38.00       152.14
  274.09        3336.00           6656          43.00       173.93
  274.11        3336.25           6660         145.00       618.58
  274.14        3336.50           6664         485.00      2100.82
  274.17        3336.75           6668         771.00      3347.74
  274.19        3337.00           6671        1153.00      5013.35
  274.22        3337.25           6675        2179.00      9487.70
  274.25        3337.50           6679        3435.00     14966.60
  274.28        3337.75           6683        4866.00     21210.94
  274.30        3338.00           6686        5891.00     25684.99
  274.33        3338.25           6690        7220.00     31487.65
  274.36        3338.50           6694        8606.00     37541.18
  274.39        3338.75           6698        9990.00     43588.04
  274.41        3339.00           6701       10945.00     47761.74
  274.44        3339.25           6705       12405.00     54144.37
  274.47        3339.50           6709       13778.00     60148.74
  274.50        3339.75           6713       15191.00     66330.15
  274.52        3340.00           6716       16300.00     71183.15
  274.55        3340.25           6720       17655.00     77114.46
  274.58        3340.50           6724       19012.00     83056.50
  274.60        3340.75           6728       20338.00     88864.71
  274.63        3341.00           6731       21312.00     93132.27
  274.66        3341.25           6735       22506.00     98365.15
  274.69        3341.50           6739       23533.00    102867.30
  274.71        3341.75           6743       24202.00    105800.80
  274.74        3342.00           6746       24022.00    105011.50
  274.77        3342.25           6750       24093.00    105322.80
  274.80        3342.50           6754       23178.00    101311.00
  274.82        3342.75           6758       21913.00     95766.05
  274.85        3343.00           6761       20938.00     91493.47
  274.88        3343.25           6765       19735.00     86223.18
  274.91        3343.50           6769       18444.00     80569.10
  274.93        3343.75           6773       16994.00     74220.78
  274.96        3344.00           6776       15955.00     69673.28
  274.99        3344.25           6780       14580.00     63656.96
  275.01        3344.50           6784       13150.00     57402.13
  275.04        3344.75           6788       11854.00     51735.31
  275.07        3345.00           6791       10686.00     46629.73
  275.10        3345.25           6795        9241.00     40315.32
  275.12        3345.50           6799        7451.00     32496.43
  275.15        3345.75           6803        5677.00     24750.80
  275.18        3346.00           6806        4509.00     19652.92
  275.21        3346.25           6810        3273.00     14259.83
  275.23        3346.50           6814        2338.00     10181.19
  275.26        3346.75           6818        1573.00      6844.82
  275.29        3347.00           6821        1030.00      4477.02
  275.31        3347.25           6825         346.00      1494.83
  275.34        3347.50           6829          83.00       348.30
  275.37        3347.75           6833          35.00       139.06
  275.40        3348.00           6836          35.00       139.06
  275.42        3348.25           6840          33.00       130.34
  275.45        3348.50           6844          29.00       112.90
  275.48        3348.75           6848          34.00       134.70
  275.50        3349.00           6851          27.00       104.19
  275.53        3349.25           6855          32.00       125.98
  275.56        3349.50           6859          30.00       117.26
  275.59        3349.75           6863          34.00       134.70
  275.61        3350.00           6867          30.00       117.26
  275.64        3350.25           6870          28.00       108.54
  275.67        3350.50           6874          36.00       143.42
  275.69        3350.75           6878          32.00       125.98
  275.72        3351.00           6882          31.00       121.62
HL scan finished at 04:36:21
end
