************************************************************
  HL Scan of (1) Internal mercury lamp
************************************************************
Integration time is 0.2294 seconds per sample
dh151218Tamanrasset 22.79-5.529 4.974364pr865
************************************************************
Dead Time -------------------------  2.8E-08 
Number of Cycles Used -------------  4 
Starting Wavelength (Angstroms) ---  3331 
Final Wavelength (Angstoms) -------  3351 
Wavelength Increment (Angstroms) --  .25 
Filter Wheel #1 Position ---------- (1) Ground quartz diffuser (ND=2.32)
Filter Wheel #2 Position ---------- (0) Clear Aperture



************************************************************
HL scan start time = 04:37:25
Dark Count =  5.3 


Time (GMT)  Wavelength (Ang)  Step Number  Raw Counts  Counts/Second

  277.93        3331.00           6581          29.00       103.31
  278.15        3331.25           6585          26.00        90.24
  278.17        3331.50           6589          33.00       120.75
  278.20        3331.75           6593          27.00        94.59
  278.23        3332.00           6596          25.00        85.88
  278.26        3332.25           6600          26.00        90.24
  278.28        3332.50           6604          27.00        94.59
  278.31        3332.75           6608          21.00        68.44
  278.34        3333.00           6611          28.00        98.95
  278.36        3333.25           6615          31.00       112.03
  278.39        3333.50           6619          29.00       103.31
  278.42        3333.75           6623          29.00       103.31
  278.45        3334.00           6626          26.00        90.24
  278.47        3334.25           6630          26.00        90.24
  278.50        3334.50           6634          29.00       103.31
  278.53        3334.75           6638          28.00        98.95
  278.56        3335.00           6641          25.00        85.88
  278.58        3335.25           6645          34.00       125.11
  278.61        3335.50           6649          33.00       120.75
  278.64        3335.75           6653          35.00       129.47
  278.66        3336.00           6656          48.00       186.14
  278.69        3336.25           6660         173.00       731.05
  278.72        3336.50           6664         545.00      2352.81
  278.75        3336.75           6668         989.00      4288.66
  278.77        3337.00           6671        1418.00      6159.30
  278.80        3337.25           6675        2517.00     10952.36
  278.83        3337.50           6679        3817.00     16623.69
  278.85        3337.75           6683        5080.00     22135.34
  278.88        3338.00           6686        6194.00     26998.17
  278.91        3338.25           6690        7581.00     33054.56
  278.94        3338.50           6694        8983.00     39178.53
  278.96        3338.75           6698       10394.00     45343.94
  278.99        3339.00           6701       11451.00     49963.93
  279.02        3339.25           6705       12825.00     55971.26
  279.05        3339.50           6709       14168.00     61845.02
  279.07        3339.75           6713       15568.00     67970.13
  279.10        3340.00           6716       16721.00     73016.16
  279.13        3340.25           6720       17961.00     78444.56
  279.15        3340.50           6724       19454.00     84982.72
  279.18        3340.75           6728       20496.00     89547.25
  279.21        3341.00           6731       21633.00     94529.30
  279.24        3341.25           6735       22525.00     98438.78
  279.26        3341.50           6739       23674.00    103475.90
  279.29        3341.75           6743       24204.00    105799.90
  279.32        3342.00           6746       24243.00    105970.90
  279.35        3342.25           6750       23756.00    103835.40
  279.37        3342.50           6754       23119.00    101042.70
  279.40        3342.75           6758       21729.00     94950.01
  279.43        3343.00           6761       20555.00     89805.75
  279.46        3343.25           6765       19239.00     84041.03
  279.48        3343.50           6769       18170.00     79359.68
  279.51        3343.75           6773       16691.00     72884.86
  279.54        3344.00           6776       15831.00     69121.01
  279.56        3344.25           6780       14400.00     62859.89
  279.59        3344.50           6784       12986.00     56675.32
  279.62        3344.75           6788       11498.00     50169.39
  279.65        3345.00           6791       10452.00     45597.42
  279.67        3345.25           6795        9066.00     39541.14
  279.70        3345.50           6799        7161.00     31220.39
  279.73        3345.75           6803        5316.00     23165.42
  279.76        3346.00           6806        4265.00     18578.54
  279.78        3346.25           6810        3303.00     14381.12
  279.81        3346.50           6814        2342.00     10189.05
  279.84        3346.75           6818        1402.00      6089.53
  279.87        3347.00           6821         873.00      3782.88
  279.89        3347.25           6825         302.00      1293.42
  279.92        3347.50           6829          68.00       273.32
  279.95        3347.75           6833          32.00       116.39
  279.97        3348.00           6836          36.00       133.83
  280.00        3348.25           6840          30.00       107.67
  280.03        3348.50           6844          31.00       112.03
  280.05        3348.75           6848          29.00       103.31
  280.08        3349.00           6851          34.00       125.11
  280.11        3349.25           6855          30.00       107.67
  280.14        3349.50           6859          29.00       103.31
  280.16        3349.75           6863          35.00       129.47
  280.19        3350.00           6867          29.00       103.31
  280.22        3350.25           6870          30.00       107.67
  280.24        3350.50           6874          32.00       116.39
  280.27        3350.75           6878          35.00       129.47
  280.30        3351.00           6882          31.00       112.03
HL scan finished at 04:40:55
end
