************************************************************
  HL Scan of (1) Internal mercury lamp
************************************************************
Integration time is 0.2294 seconds per sample
dh071218Tamanrasset 22.79-5.529 4.974364pr865
************************************************************
Dead Time -------------------------  2.8E-08 
Number of Cycles Used -------------  4 
Starting Wavelength (Angstroms) ---  3331 
Final Wavelength (Angstoms) -------  3351 
Wavelength Increment (Angstroms) --  .25 
Filter Wheel #1 Position ---------- (1) Ground quartz diffuser (ND=2.32)
Filter Wheel #2 Position ---------- (0) Clear Aperture



************************************************************
HL scan start time = 04:33:51
Dark Count =  5.3 


Time (GMT)  Wavelength (Ang)  Step Number  Raw Counts  Counts/Second

  274.35        3331.00           6581          28.00        98.95
  274.57        3331.25           6585          29.00       103.31
  274.60        3331.50           6589          29.00       103.31
  274.63        3331.75           6593          32.00       116.39
  274.65        3332.00           6596          24.00        81.52
  274.68        3332.25           6600          25.00        85.88
  274.71        3332.50           6604          29.00       103.31
  274.74        3332.75           6608          28.00        98.95
  274.76        3333.00           6611          30.00       107.67
  274.79        3333.25           6615          32.00       116.39
  274.82        3333.50           6619          30.00       107.67
  274.84        3333.75           6623          22.00        72.80
  274.87        3334.00           6626          26.00        90.24
  274.90        3334.25           6630          26.00        90.24
  274.93        3334.50           6634          29.00       103.31
  274.95        3334.75           6638          31.00       112.03
  274.98        3335.00           6641          34.00       125.11
  275.01        3335.25           6645          34.00       125.11
  275.04        3335.50           6649          36.00       133.83
  275.06        3335.75           6653          34.00       125.11
  275.09        3336.00           6656          49.00       190.50
  275.12        3336.25           6660         151.00       635.15
  275.14        3336.50           6664         458.00      1973.52
  275.17        3336.75           6668         653.00      2823.68
  275.20        3337.00           6671        1181.00      5125.84
  275.23        3337.25           6675        2264.00      9848.84
  275.25        3337.50           6679        3574.00     15563.45
  275.28        3337.75           6683        4856.00     21157.69
  275.31        3338.00           6686        6033.00     26295.29
  275.33        3338.25           6690        7309.00     31866.70
  275.36        3338.50           6694        8726.00     38055.79
  275.39        3338.75           6698       10092.00     44024.16
  275.42        3339.00           6701       11064.00     48272.27
  275.44        3339.25           6705       12518.00     54628.84
  275.47        3339.50           6709       13806.00     60261.58
  275.50        3339.75           6713       15332.00     66937.46
  275.53        3340.00           6716       16330.00     71304.82
  275.55        3340.25           6720       17848.00     77949.81
  275.58        3340.50           6724       19170.00     83738.83
  275.61        3340.75           6728       20309.00     88728.00
  275.64        3341.00           6731       21484.00     93876.34
  275.66        3341.25           6735       22538.00     98495.77
  275.69        3341.50           6739       23620.00    103239.20
  275.72        3341.75           6743       24032.00    105045.70
  275.74        3342.00           6746       24154.00    105580.60
  275.77        3342.25           6750       23914.00    104528.30
  275.80        3342.50           6754       23223.00    101498.60
  275.83        3342.75           6758       22026.00     96251.64
  275.85        3343.00           6761       21141.00     92373.31
  275.88        3343.25           6765       19933.00     87080.86
  275.91        3343.50           6769       18371.00     80239.79
  275.94        3343.75           6773       16988.00     74184.88
  275.96        3344.00           6776       15828.00     69107.88
  275.99        3344.25           6780       14552.00     63524.84
  276.02        3344.50           6784       13231.00     57746.74
  276.05        3344.75           6788       11739.00     51222.94
  276.07        3345.00           6791       10580.00     46156.83
  276.10        3345.25           6795        9339.00     40733.88
  276.13        3345.50           6799        7560.00     32962.85
  276.15        3345.75           6803        5703.00     24854.70
  276.18        3346.00           6806        4469.00     19468.76
  276.21        3346.25           6810        3436.00     14961.37
  276.24        3346.50           6814        2632.00     11453.98
  276.26        3346.75           6818        1784.00      7755.39
  276.29        3347.00           6821        1124.00      4877.30
  276.32        3347.25           6825         427.00      1838.37
  276.35        3347.50           6829         119.00       495.65
  276.37        3347.75           6833          41.00       155.62
  276.40        3348.00           6836          38.00       142.55
  276.43        3348.25           6840          36.00       133.83
  276.45        3348.50           6844          31.00       112.03
  276.48        3348.75           6848          33.00       120.75
  276.51        3349.00           6851          28.00        98.95
  276.54        3349.25           6855          31.00       112.03
  276.56        3349.50           6859          32.00       116.39
  276.59        3349.75           6863          31.00       112.03
  276.62        3350.00           6867          32.00       116.39
  276.64        3350.25           6870          31.00       112.03
  276.67        3350.50           6874          28.00        98.95
  276.70        3350.75           6878          30.00       107.67
  276.73        3351.00           6882          32.00       116.39
HL scan finished at 04:37:21
end
