************************************************************
  HL Scan of (1) Internal mercury lamp
************************************************************
Integration time is 0.2294 seconds per sample
dh081218Tamanrasset 22.79-5.529 4.974364pr865
************************************************************
Dead Time -------------------------  2.8E-08 
Number of Cycles Used -------------  4 
Starting Wavelength (Angstroms) ---  3331 
Final Wavelength (Angstoms) -------  3351 
Wavelength Increment (Angstroms) --  .25 
Filter Wheel #1 Position ---------- (1) Ground quartz diffuser (ND=2.32)
Filter Wheel #2 Position ---------- (0) Clear Aperture



************************************************************
HL scan start time = 04:33:56
Dark Count =  4.9 


Time (GMT)  Wavelength (Ang)  Step Number  Raw Counts  Counts/Second

  274.45        3331.00           6581          28.00       100.70
  274.67        3331.25           6585          27.00        96.34
  274.69        3331.50           6589          29.00       105.06
  274.72        3331.75           6593          27.00        96.34
  274.75        3332.00           6596          26.00        91.98
  274.78        3332.25           6600          28.00       100.70
  274.80        3332.50           6604          27.00        96.34
  274.83        3332.75           6608          22.00        74.54
  274.86        3333.00           6611          25.00        87.62
  274.89        3333.25           6615          29.00       105.06
  274.91        3333.50           6619          25.00        87.62
  274.94        3333.75           6623          27.00        96.34
  274.97        3334.00           6626          26.00        91.98
  274.99        3334.25           6630          27.00        96.34
  275.02        3334.50           6634          29.00       105.06
  275.05        3334.75           6638          31.00       113.78
  275.08        3335.00           6641          27.00        96.34
  275.10        3335.25           6645          34.00       126.85
  275.13        3335.50           6649          35.00       131.21
  275.16        3335.75           6653          31.00       113.78
  275.18        3336.00           6656          37.00       139.93
  275.21        3336.25           6660         109.00       453.80
  275.24        3336.50           6664         372.00      1600.33
  275.27        3336.75           6668         647.00      2799.26
  275.29        3337.00           6671        1046.00      4538.94
  275.32        3337.25           6675        2018.00      8777.66
  275.35        3337.50           6679        3319.00     14452.67
  275.37        3337.75           6683        4637.00     20203.67
  275.40        3338.00           6686        5640.00     24581.43
  275.43        3338.25           6690        7055.00     30759.26
  275.46        3338.50           6694        8432.00     36773.24
  275.48        3338.75           6698        9834.00     42898.49
  275.51        3339.00           6701       10886.00     47495.99
  275.54        3339.25           6705       12223.00     53340.73
  275.57        3339.50           6709       13685.00     59734.09
  275.59        3339.75           6713       15044.00     65679.09
  275.62        3340.00           6716       16067.00     70155.55
  275.65        3340.25           6720       17495.00     76406.10
  275.67        3340.50           6724       18775.00     82010.69
  275.70        3340.75           6728       20025.00     87485.62
  275.73        3341.00           6731       21191.00     92594.16
  275.76        3341.25           6735       22270.00     97322.82
  275.78        3341.50           6739       23259.00    101658.20
  275.81        3341.75           6743       23966.00    104758.00
  275.84        3342.00           6746       24182.00    105705.20
  275.87        3342.25           6750       23845.00    104227.50
  275.89        3342.50           6754       23448.00    102486.80
  275.92        3342.75           6758       22275.00     97344.74
  275.95        3343.00           6761       21285.00     93006.06
  275.98        3343.25           6765       19883.00     86863.58
  276.00        3343.50           6769       18644.00     81437.01
  276.03        3343.75           6773       17354.00     75788.82
  276.06        3344.00           6776       16292.00     71140.26
  276.09        3344.25           6780       14910.00     65092.82
  276.11        3344.50           6784       13571.00     59235.49
  276.14        3344.75           6788       12107.00     52833.55
  276.17        3345.00           6791       10994.00     47968.04
  276.19        3345.25           6795        9667.00     42168.76
  276.22        3345.50           6799        7777.00     33912.31
  276.25        3345.75           6803        5823.00     25380.28
  276.28        3346.00           6806        4830.00     21045.97
  276.30        3346.25           6810        3782.00     16472.72
  276.33        3346.50           6814        2902.00     12633.50
  276.36        3346.75           6818        1888.00      8210.69
  276.39        3347.00           6821        1268.00      5506.95
  276.41        3347.25           6825         521.00      2249.92
  276.44        3347.50           6829         140.00       588.94
  276.47        3347.75           6833          45.00       174.80
  276.49        3348.00           6836          26.00        91.98
  276.52        3348.25           6840          29.00       105.06
  276.55        3348.50           6844          32.00       118.13
  276.58        3348.75           6848          27.00        96.34
  276.60        3349.00           6851          32.00       118.13
  276.63        3349.25           6855          36.00       135.57
  276.66        3349.50           6859          22.00        74.54
  276.68        3349.75           6863          31.00       113.78
  276.71        3350.00           6867          29.00       105.06
  276.74        3350.25           6870          36.00       135.57
  276.77        3350.50           6874          30.00       109.42
  276.79        3350.75           6878          29.00       105.06
  276.82        3351.00           6882          30.00       109.42
HL scan finished at 04:37:27
end
