************************************************************
  HL Scan of (1) Internal mercury lamp
************************************************************
Integration time is 0.2294 seconds per sample
dh131218Tamanrasset 22.79-5.529 4.974364pr865
************************************************************
Dead Time -------------------------  2.8E-08 
Number of Cycles Used -------------  4 
Starting Wavelength (Angstroms) ---  3331 
Final Wavelength (Angstoms) -------  3351 
Wavelength Increment (Angstroms) --  .25 
Filter Wheel #1 Position ---------- (1) Ground quartz diffuser (ND=2.32)
Filter Wheel #2 Position ---------- (0) Clear Aperture



************************************************************
HL scan start time = 04:36:55
Dark Count =  1.9 


Time (GMT)  Wavelength (Ang)  Step Number  Raw Counts  Counts/Second

  277.42        3331.00           6581          28.00       113.78
  277.64        3331.25           6585          32.00       131.21
  277.67        3331.50           6589          32.00       131.21
  277.69        3331.75           6593          32.00       131.21
  277.72        3332.00           6596          31.00       126.85
  277.75        3332.25           6600          25.00       100.70
  277.77        3332.50           6604          31.00       126.85
  277.80        3332.75           6608          34.00       139.93
  277.83        3333.00           6611          24.00        96.34
  277.86        3333.25           6615          28.00       113.78
  277.88        3333.50           6619          28.00       113.78
  277.91        3333.75           6623          25.00       100.70
  277.94        3334.00           6626          26.00       105.06
  277.97        3334.25           6630          24.00        96.34
  277.99        3334.50           6634          28.00       113.78
  278.02        3334.75           6638          28.00       113.78
  278.05        3335.00           6641          27.00       109.42
  278.07        3335.25           6645          28.00       113.78
  278.10        3335.50           6649          35.00       144.29
  278.13        3335.75           6653          30.00       122.49
  278.16        3336.00           6656          42.00       174.80
  278.18        3336.25           6660         110.00       471.24
  278.21        3336.50           6664         357.00      1548.02
  278.24        3336.75           6668         655.00      2847.22
  278.26        3337.00           6671        1075.00      4678.47
  278.29        3337.25           6675        2141.00      9327.20
  278.32        3337.50           6679        3463.00     15094.00
  278.35        3337.75           6683        4638.00     20221.12
  278.37        3338.00           6686        5748.00     25065.98
  278.40        3338.25           6690        7161.00     31235.24
  278.43        3338.50           6694        8566.00     37371.69
  278.46        3338.75           6698        9821.00     42854.79
  278.48        3339.00           6701       10909.00     47609.64
  278.51        3339.25           6705       12325.00     53799.82
  278.54        3339.50           6709       13679.00     59720.97
  278.56        3339.75           6713       15135.00     66090.37
  278.59        3340.00           6716       16190.00     70706.98
  278.62        3340.25           6720       17624.00     76983.99
  278.65        3340.50           6724       18966.00     82860.29
  278.67        3340.75           6728       20255.00     88506.34
  278.70        3341.00           6731       21136.00     92366.30
  278.73        3341.25           6735       22395.00     97883.87
  278.76        3341.50           6739       23421.00    102381.60
  278.78        3341.75           6743       23830.00    104174.80
  278.81        3342.00           6746       23876.00    104376.50
  278.84        3342.25           6750       23773.00    103924.90
  278.86        3342.50           6754       23040.00    100711.20
  278.89        3342.75           6758       22013.00     96209.56
  278.92        3343.00           6761       20932.00     91472.43
  278.95        3343.25           6765       19768.00     86372.98
  278.98        3343.50           6769       18311.00     79991.96
  279.00        3343.75           6773       17044.00     74444.91
  279.03        3344.00           6776       15921.00     69529.74
  279.06        3344.25           6780       14612.00     63802.19
  279.08        3344.50           6784       13098.00     57179.97
  279.11        3344.75           6788       11743.00     51255.29
  279.14        3345.00           6791       10681.00     46613.11
  279.17        3345.25           6795        9319.00     40661.35
  279.19        3345.50           6799        7595.00     33130.55
  279.22        3345.75           6803        5730.00     24987.40
  279.25        3346.00           6806        4647.00     20260.40
  279.28        3346.25           6810        3644.00     15883.70
  279.30        3346.50           6814        2702.00     11774.15
  279.33        3346.75           6818        1711.00      7451.86
  279.36        3347.00           6821        1066.00      4639.23
  279.38        3347.25           6825         376.00      1630.85
  279.41        3347.50           6829          89.00       379.69
  279.44        3347.75           6833          37.00       153.01
  279.47        3348.00           6836          32.00       131.21
  279.49        3348.25           6840          30.00       122.49
  279.52        3348.50           6844          33.00       135.57
  279.55        3348.75           6848          32.00       131.21
  279.57        3349.00           6851          35.00       144.29
  279.60        3349.25           6855          33.00       135.57
  279.63        3349.50           6859          31.00       126.85
  279.66        3349.75           6863          27.00       109.42
  279.68        3350.00           6867          36.00       148.65
  279.71        3350.25           6870          36.00       148.65
  279.74        3350.50           6874          30.00       122.49
  279.77        3350.75           6878          32.00       131.21
  279.79        3351.00           6882          32.00       131.21
HL scan finished at 04:40:25
end
