************************************************************
  HL Scan of (1) Internal mercury lamp
************************************************************
Integration time is 0.2294 seconds per sample
dh121218Tamanrasset 22.79-5.529 4.974364pr865
************************************************************
Dead Time -------------------------  2.8E-08 
Number of Cycles Used -------------  4 
Starting Wavelength (Angstroms) ---  3331 
Final Wavelength (Angstoms) -------  3351 
Wavelength Increment (Angstroms) --  .25 
Filter Wheel #1 Position ---------- (1) Ground quartz diffuser (ND=2.32)
Filter Wheel #2 Position ---------- (0) Clear Aperture



************************************************************
HL scan start time = 04:35:56
Dark Count =  3.3 


Time (GMT)  Wavelength (Ang)  Step Number  Raw Counts  Counts/Second

  276.44        3331.00           6581          29.00       112.03
  276.66        3331.25           6585          26.00        98.95
  276.69        3331.50           6589          28.00       107.67
  276.71        3331.75           6593          30.00       116.39
  276.74        3332.00           6596          29.00       112.03
  276.77        3332.25           6600          29.00       112.03
  276.80        3332.50           6604          27.00       103.31
  276.82        3332.75           6608          31.00       120.75
  276.85        3333.00           6611          25.00        94.59
  276.88        3333.25           6615          26.00        98.95
  276.90        3333.50           6619          27.00       103.31
  276.93        3333.75           6623          27.00       103.31
  276.96        3334.00           6626          29.00       112.03
  276.99        3334.25           6630          30.00       116.39
  277.01        3334.50           6634          33.00       129.47
  277.04        3334.75           6638          29.00       112.03
  277.07        3335.00           6641          25.00        94.59
  277.09        3335.25           6645          31.00       120.75
  277.12        3335.50           6649          32.00       125.11
  277.15        3335.75           6653          39.00       155.62
  277.18        3336.00           6656          59.00       242.81
  277.20        3336.25           6660         128.00       543.60
  277.23        3336.50           6664         304.00      1310.86
  277.26        3336.75           6668         710.00      3080.91
  277.28        3337.00           6671        1240.00      5391.83
  277.31        3337.25           6675        2381.00     10367.88
  277.34        3337.50           6679        3665.00     15969.22
  277.37        3337.75           6683        5035.00     21947.66
  277.39        3338.00           6686        6087.00     26539.77
  277.42        3338.25           6690        7383.00     32198.59
  277.45        3338.50           6694        8716.00     38020.84
  277.47        3338.75           6698       10100.00     44067.86
  277.50        3339.00           6701       11087.00     48381.55
  277.53        3339.25           6705       12647.00     55201.65
  277.56        3339.50           6709       14138.00     61722.54
  277.58        3339.75           6713       15427.00     67361.90
  277.61        3340.00           6716       16382.00     71541.16
  277.64        3340.25           6720       17880.00     78098.66
  277.67        3340.50           6724       19311.00     84365.14
  277.69        3340.75           6728       20593.00     89980.99
  277.72        3341.00           6731       21452.00     93744.88
  277.75        3341.25           6735       22607.00     98806.99
  277.78        3341.50           6739       23522.00    102818.20
  277.80        3341.75           6743       24034.00    105063.20
  277.83        3342.00           6746       24305.00    106251.60
  277.86        3342.25           6750       23908.00    104510.70
  277.88        3342.50           6754       23313.00    101901.90
  277.91        3342.75           6758       22000.00     96146.46
  277.94        3343.00           6761       20832.00     91028.14
  277.97        3343.25           6765       19769.00     86371.22
  277.99        3343.50           6769       18312.00     79990.20
  278.02        3343.75           6773       16902.00     73817.19
  278.05        3344.00           6776       15755.00     68797.18
  278.08        3344.25           6780       14437.00     63030.50
  278.10        3344.50           6784       13069.00     57047.03
  278.13        3344.75           6788       11763.00     51336.61
  278.16        3345.00           6791       10651.00     46475.87
  278.19        3345.25           6795        9077.00     39597.93
  278.21        3345.50           6799        7389.00     32224.79
  278.24        3345.75           6803        5447.00     23745.95
  278.27        3346.00           6806        4318.00     18818.55
  278.29        3346.25           6810        3415.00     14878.47
  278.32        3346.50           6814        2639.00     11493.24
  278.35        3346.75           6818        1717.00      7471.92
  278.38        3347.00           6821        1028.00      4467.43
  278.40        3347.25           6825         376.00      1624.75
  278.43        3347.50           6829          84.00       351.79
  278.46        3347.75           6833          39.00       155.62
  278.49        3348.00           6836          34.00       133.83
  278.51        3348.25           6840          33.00       129.47
  278.54        3348.50           6844          30.00       116.39
  278.57        3348.75           6848          31.00       120.75
  278.59        3349.00           6851          31.00       120.75
  278.62        3349.25           6855          30.00       116.39
  278.65        3349.50           6859          28.00       107.67
  278.67        3349.75           6863          31.00       120.75
  278.70        3350.00           6867          31.00       120.75
  278.73        3350.25           6870          31.00       120.75
  278.76        3350.50           6874          35.00       138.19
  278.78        3350.75           6878          33.00       129.47
  278.81        3351.00           6882          33.00       129.47
HL scan finished at 04:39:26
end
