************************************************************
  HL Scan of (1) Internal mercury lamp
************************************************************
Integration time is 0.2294 seconds per sample
dh251218Tamanrasset 22.79-5.529 4.974364pr865
************************************************************
Dead Time -------------------------  2.8E-08 
Number of Cycles Used -------------  4 
Starting Wavelength (Angstroms) ---  3331 
Final Wavelength (Angstoms) -------  3351 
Wavelength Increment (Angstroms) --  .25 
Filter Wheel #1 Position ---------- (1) Ground quartz diffuser (ND=2.32)
Filter Wheel #2 Position ---------- (0) Clear Aperture



************************************************************
HL scan start time = 04:43:26
Dark Count =  5.2 


Time (GMT)  Wavelength (Ang)  Step Number  Raw Counts  Counts/Second

  283.95        3331.00           6581          28.00        99.39
  284.17        3331.25           6585          24.00        81.95
  284.19        3331.50           6589          30.00       108.11
  284.22        3331.75           6593          23.00        77.59
  284.25        3332.00           6596          33.00       121.19
  284.28        3332.25           6600          27.00        95.03
  284.30        3332.50           6604          28.00        99.39
  284.33        3332.75           6608          25.00        86.31
  284.36        3333.00           6611          28.00        99.39
  284.39        3333.25           6615          29.00       103.75
  284.41        3333.50           6619          24.00        81.95
  284.44        3333.75           6623          27.00        95.03
  284.47        3334.00           6626          30.00       108.11
  284.49        3334.25           6630          27.00        95.03
  284.52        3334.50           6634          33.00       121.19
  284.55        3334.75           6638          27.00        95.03
  284.58        3335.00           6641          27.00        95.03
  284.60        3335.25           6645          28.00        99.39
  284.63        3335.50           6649          30.00       108.11
  284.66        3335.75           6653          36.00       134.26
  284.68        3336.00           6656          41.00       156.06
  284.71        3336.25           6660         109.00       452.49
  284.74        3336.50           6664         435.00      1873.68
  284.77        3336.75           6668         717.00      3103.15
  284.79        3337.00           6671        1136.00      4930.06
  284.82        3337.25           6675        2233.00      9714.06
  284.85        3337.50           6679        3537.00     15402.46
  284.88        3337.75           6683        4773.00     20795.89
  284.90        3338.00           6686        5845.00     25475.01
  284.93        3338.25           6690        7314.00     31888.97
  284.96        3338.50           6694        8768.00     38239.70
  284.98        3338.75           6698       10023.00     43723.07
  285.01        3339.00           6701       11080.00     48342.64
  285.04        3339.25           6705       12380.00     54025.87
  285.07        3339.50           6709       13822.00     60332.00
  285.09        3339.75           6713       15126.00     66036.56
  285.12        3340.00           6716       16286.00     71112.69
  285.15        3340.25           6720       17620.00     76952.03
  285.18        3340.50           6724       18992.00     82959.71
  285.20        3340.75           6728       20452.00     89354.94
  285.23        3341.00           6731       21222.00     92728.69
  285.26        3341.25           6735       22499.00     98325.27
  285.29        3341.50           6739       23325.00    101946.20
  285.31        3341.75           6743       23869.00    104331.40
  285.34        3342.00           6746       24124.00    105449.50
  285.37        3342.25           6750       23826.00    104142.80
  285.39        3342.50           6754       23068.00    100819.50
  285.42        3342.75           6758       21564.00     94227.35
  285.45        3343.00           6761       20652.00     90231.16
  285.48        3343.25           6765       19312.00     84361.19
  285.50        3343.50           6769       18064.00     78896.00
  285.53        3343.75           6773       16817.00     73436.82
  285.56        3344.00           6776       15613.00     68167.49
  285.59        3344.25           6780       14326.00     62536.62
  285.61        3344.50           6784       12865.00     56146.62
  285.64        3344.75           6788       11613.00     50672.54
  285.67        3345.00           6791       10437.00     45532.29
  285.69        3345.25           6795        9002.00     39261.97
  285.72        3345.50           6799        7268.00     31688.09
  285.75        3345.75           6803        5505.00     23990.83
  285.78        3346.00           6806        4525.00     19713.58
  285.80        3346.25           6810        3377.00     14704.40
  285.83        3346.50           6814        2366.00     10294.16
  285.86        3346.75           6818        1513.00      6574.01
  285.89        3347.00           6821         988.00      4284.73
  285.91        3347.25           6825         357.00      1533.63
  285.94        3347.50           6829          85.00       347.87
  285.97        3347.75           6833          34.00       125.55
  286.00        3348.00           6836          33.00       121.19
  286.02        3348.25           6840          31.00       112.47
  286.05        3348.50           6844          36.00       134.26
  286.08        3348.75           6848          27.00        95.03
  286.10        3349.00           6851          27.00        95.03
  286.13        3349.25           6855          30.00       108.11
  286.16        3349.50           6859          31.00       112.47
  286.19        3349.75           6863          27.00        95.03
  286.21        3350.00           6867          28.00        99.39
  286.24        3350.25           6870          31.00       112.47
  286.27        3350.50           6874          31.00       112.47
  286.29        3350.75           6878          30.00       108.11
  286.32        3351.00           6882          28.00        99.39
HL scan finished at 04:46:57
end
