************************************************************
  HL Scan of (1) Internal mercury lamp
************************************************************
Integration time is 0.2294 seconds per sample
dh241218Tamanrasset 22.79-5.529 4.974364pr865
************************************************************
Dead Time -------------------------  2.8E-08 
Number of Cycles Used -------------  4 
Starting Wavelength (Angstroms) ---  3331 
Final Wavelength (Angstoms) -------  3351 
Wavelength Increment (Angstroms) --  .25 
Filter Wheel #1 Position ---------- (1) Ground quartz diffuser (ND=2.32)
Filter Wheel #2 Position ---------- (0) Clear Aperture



************************************************************
HL scan start time = 04:42:56
Dark Count =  5.5 


Time (GMT)  Wavelength (Ang)  Step Number  Raw Counts  Counts/Second

  283.44        3331.00           6581          27.00        93.72
  283.66        3331.25           6585          30.00       106.80
  283.69        3331.50           6589          23.00        76.29
  283.71        3331.75           6593          26.00        89.36
  283.74        3332.00           6596          30.00       106.80
  283.77        3332.25           6600          26.00        89.36
  283.80        3332.50           6604          24.00        80.65
  283.82        3332.75           6608          30.00       106.80
  283.85        3333.00           6611          23.00        76.29
  283.88        3333.25           6615          27.00        93.72
  283.91        3333.50           6619          33.00       119.88
  283.93        3333.75           6623          34.00       124.24
  283.96        3334.00           6626          30.00       106.80
  283.99        3334.25           6630          27.00        93.72
  284.01        3334.50           6634          31.00       111.16
  284.04        3334.75           6638          32.00       115.52
  284.07        3335.00           6641          33.00       119.88
  284.10        3335.25           6645          34.00       124.24
  284.12        3335.50           6649          31.00       111.16
  284.15        3335.75           6653          38.00       141.67
  284.18        3336.00           6656          65.00       259.37
  284.20        3336.25           6660         199.00       843.52
  284.23        3336.50           6664         444.00      1911.61
  284.26        3336.75           6668         820.00      3550.92
  284.29        3337.00           6671        1371.00      5953.48
  284.31        3337.25           6675        2616.00     11383.32
  284.34        3337.50           6679        3826.00     16662.09
  284.37        3337.75           6683        5199.00     22653.86
  284.40        3338.00           6686        6195.00     27001.67
  284.42        3338.25           6690        7697.00     33560.29
  284.45        3338.50           6694        8939.00     38985.43
  284.48        3338.75           6698       10326.00     45045.89
  284.50        3339.00           6701       11302.00     49311.72
  284.53        3339.25           6705       12640.00     55161.42
  284.56        3339.50           6709       14092.00     61511.69
  284.59        3339.75           6713       15601.00     68113.66
  284.61        3340.00           6716       16710.00     72967.15
  284.64        3340.25           6720       17999.00     78610.06
  284.67        3340.50           6724       19303.00     84320.47
  284.69        3340.75           6728       20716.00     90510.26
  284.72        3341.00           6731       21451.00     93730.86
  284.75        3341.25           6735       22746.00     99406.64
  284.78        3341.50           6739       23444.00    102466.60
  284.81        3341.75           6743       24040.00    105079.90
  284.83        3342.00           6746       23857.00    104277.40
  284.86        3342.25           6750       23950.00    104685.20
  284.89        3342.50           6754       22829.00     99770.49
  284.91        3342.75           6758       21554.00     94182.22
  284.94        3343.00           6761       20593.00     89971.36
  284.97        3343.25           6765       19336.00     84465.01
  285.00        3343.50           6769       17877.00     78075.91
  285.02        3343.75           6773       16568.00     72345.62
  285.05        3344.00           6776       15521.00     67763.59
  285.08        3344.25           6780       14187.00     61927.25
  285.11        3344.50           6784       12712.00     55476.25
  285.13        3344.75           6788       11267.00     49158.73
  285.16        3345.00           6791       10058.00     43874.71
  285.19        3345.25           6795        8701.00     37945.70
  285.21        3345.50           6799        7068.00     30813.41
  285.24        3345.75           6803        5382.00     23452.62
  285.27        3346.00           6806        4085.00     17792.21
  285.30        3346.25           6810        2940.00     12796.65
  285.32        3346.50           6814        2127.00      9250.43
  285.35        3346.75           6818        1419.00      6162.79
  285.38        3347.00           6821         742.00      3210.84
  285.41        3347.25           6825         231.00       983.03
  285.43        3347.50           6829          53.00       207.06
  285.46        3347.75           6833          32.00       115.52
  285.49        3348.00           6836          35.00       128.60
  285.51        3348.25           6840          31.00       111.16
  285.54        3348.50           6844          34.00       124.24
  285.57        3348.75           6848          31.00       111.16
  285.60        3349.00           6851          28.00        98.08
  285.62        3349.25           6855          30.00       106.80
  285.65        3349.50           6859          31.00       111.16
  285.68        3349.75           6863          31.00       111.16
  285.70        3350.00           6867          30.00       106.80
  285.73        3350.25           6870          31.00       111.16
  285.76        3350.50           6874          30.00       106.80
  285.79        3350.75           6878          31.00       111.16
  285.81        3351.00           6882          33.00       119.88
HL scan finished at 04:46:26
end
