************************************************************
  HL Scan of (1) Internal mercury lamp
************************************************************
Integration time is 0.2294 seconds per sample
dh231218Tamanrasset 22.79-5.529 4.974364pr865
************************************************************
Dead Time -------------------------  2.8E-08 
Number of Cycles Used -------------  4 
Starting Wavelength (Angstroms) ---  3331 
Final Wavelength (Angstoms) -------  3351 
Wavelength Increment (Angstroms) --  .25 
Filter Wheel #1 Position ---------- (1) Ground quartz diffuser (ND=2.32)
Filter Wheel #2 Position ---------- (0) Clear Aperture



************************************************************
HL scan start time = 04:41:58
Dark Count =  4.9 


Time (GMT)  Wavelength (Ang)  Step Number  Raw Counts  Counts/Second

  282.48        3331.00           6581          30.00       109.42
  282.70        3331.25           6585          27.00        96.34
  282.73        3331.50           6589          29.00       105.06
  282.75        3331.75           6593          28.00       100.70
  282.78        3332.00           6596          21.00        70.18
  282.81        3332.25           6600          30.00       109.42
  282.84        3332.50           6604          27.00        96.34
  282.86        3332.75           6608          32.00       118.13
  282.89        3333.00           6611          26.00        91.98
  282.92        3333.25           6615          26.00        91.98
  282.94        3333.50           6619          28.00       100.70
  282.97        3333.75           6623          31.00       113.78
  283.00        3334.00           6626          26.00        91.98
  283.03        3334.25           6630          28.00       100.70
  283.05        3334.50           6634          25.00        87.62
  283.08        3334.75           6638          32.00       118.13
  283.11        3335.00           6641          36.00       135.57
  283.13        3335.25           6645          32.00       118.13
  283.16        3335.50           6649          31.00       113.78
  283.19        3335.75           6653          32.00       118.13
  283.22        3336.00           6656          40.00       153.01
  283.24        3336.25           6660         146.00       615.09
  283.27        3336.50           6664         340.00      1460.83
  283.30        3336.75           6668         592.00      2559.47
  283.32        3337.00           6671         990.00      4294.76
  283.35        3337.25           6675        2052.00      8925.94
  283.38        3337.50           6679        3296.00     14352.32
  283.41        3337.75           6683        4610.00     20085.84
  283.43        3338.00           6686        5704.00     24860.81
  283.46        3338.25           6690        7101.00     30960.13
  283.49        3338.50           6694        8395.00     36611.62
  283.51        3338.75           6698        9709.00     42352.29
  283.54        3339.00           6701       10833.00     47264.34
  283.57        3339.25           6705       12205.00     53262.03
  283.60        3339.50           6709       13630.00     59493.54
  283.62        3339.75           6713       14961.00     65315.95
  283.65        3340.00           6716       16038.00     70028.63
  283.68        3340.25           6720       17338.00     75718.78
  283.71        3340.50           6724       18780.00     82032.58
  283.73        3340.75           6728       20170.00     88120.82
  283.76        3341.00           6731       20982.00     91678.36
  283.79        3341.25           6735       22264.00     97296.52
  283.82        3341.50           6739       23186.00    101338.10
  283.84        3341.75           6743       23881.00    104385.30
  283.87        3342.00           6746       24259.00    106042.80
  283.90        3342.25           6750       23812.00    104082.80
  283.93        3342.50           6754       23404.00    102293.90
  283.95        3342.75           6758       22256.00     97261.47
  283.98        3343.00           6761       21178.00     92537.19
  284.01        3343.25           6765       19990.00     87332.31
  284.03        3343.50           6769       18679.00     81590.28
  284.06        3343.75           6773       17187.00     75057.75
  284.09        3344.00           6776       16061.00     70129.29
  284.12        3344.25           6780       14813.00     64668.43
  284.14        3344.50           6784       13429.00     58614.43
  284.17        3344.75           6788       12112.00     52855.42
  284.20        3345.00           6791       10970.00     47863.14
  284.23        3345.25           6795        9517.00     41513.35
  284.25        3345.50           6799        7632.00     33279.03
  284.28        3345.75           6803        5969.00     26017.64
  284.31        3346.00           6806        4970.00     21656.98
  284.34        3346.25           6810        3654.00     15914.24
  284.36        3346.50           6814        2578.00     11220.18
  284.39        3346.75           6818        1886.00      8201.97
  284.42        3347.00           6821        1208.00      5245.32
  284.44        3347.25           6825         500.00      2158.37
  284.47        3347.50           6829         112.00       466.88
  284.50        3347.75           6833          37.00       139.93
  284.53        3348.00           6836          32.00       118.13
  284.55        3348.25           6840          30.00       109.42
  284.58        3348.50           6844          35.00       131.21
  284.61        3348.75           6848          32.00       118.13
  284.63        3349.00           6851          30.00       109.42
  284.66        3349.25           6855          28.00       100.70
  284.69        3349.50           6859          29.00       105.06
  284.71        3349.75           6863          26.00        91.98
  284.74        3350.00           6867          27.00        96.34
  284.77        3350.25           6870          28.00       100.70
  284.80        3350.50           6874          27.00        96.34
  284.82        3350.75           6878          32.00       118.13
  284.85        3351.00           6882          32.00       118.13
HL scan finished at 04:45:28
end
