************************************************************
  HL Scan of (1) Internal mercury lamp
************************************************************
Integration time is 0.2294 seconds per sample
dh211218Tamanrasset 22.79-5.529 4.974364pr865
************************************************************
Dead Time -------------------------  2.8E-08 
Number of Cycles Used -------------  4 
Starting Wavelength (Angstroms) ---  3331 
Final Wavelength (Angstoms) -------  3351 
Wavelength Increment (Angstroms) --  .25 
Filter Wheel #1 Position ---------- (1) Ground quartz diffuser (ND=2.32)
Filter Wheel #2 Position ---------- (0) Clear Aperture



************************************************************
HL scan start time = 04:41:27
Dark Count =  3 


Time (GMT)  Wavelength (Ang)  Step Number  Raw Counts  Counts/Second

  281.96        3331.00           6581          24.00        91.54
  282.18        3331.25           6585          27.00       104.62
  282.20        3331.50           6589          31.00       122.06
  282.23        3331.75           6593          27.00       104.62
  282.26        3332.00           6596          33.00       130.78
  282.29        3332.25           6600          27.00       104.62
  282.31        3332.50           6604          27.00       104.62
  282.34        3332.75           6608          33.00       130.78
  282.37        3333.00           6611          24.00        91.54
  282.39        3333.25           6615          24.00        91.54
  282.42        3333.50           6619          23.00        87.18
  282.45        3333.75           6623          28.00       108.98
  282.47        3334.00           6626          29.00       113.34
  282.50        3334.25           6630          30.00       117.70
  282.53        3334.50           6634          27.00       104.62
  282.56        3334.75           6638          27.00       104.62
  282.58        3335.00           6641          25.00        95.90
  282.61        3335.25           6645          29.00       113.34
  282.64        3335.50           6649          30.00       117.70
  282.67        3335.75           6653          32.00       126.42
  282.69        3336.00           6656          42.00       170.01
  282.72        3336.25           6660         113.00       479.52
  282.75        3336.50           6664         429.00      1857.11
  282.77        3336.75           6668         693.00      3008.10
  282.80        3337.00           6671        1106.00      4808.84
  282.83        3337.25           6675        2243.00      9767.27
  282.86        3337.50           6679        3463.00     15089.20
  282.88        3337.75           6683        4735.00     20639.65
  282.91        3338.00           6686        5937.00     25886.24
  282.94        3338.25           6690        7279.00     31745.73
  282.97        3338.50           6694        8678.00     37856.15
  282.99        3338.75           6698        9892.00     43160.24
  283.02        3339.00           6701       10978.00     47906.42
  283.05        3339.25           6705       12326.00     53799.38
  283.07        3339.50           6709       13615.00     59436.24
  283.10        3339.75           6713       15101.00     65936.80
  283.13        3340.00           6716       16248.00     70956.01
  283.16        3340.25           6720       17731.00     77447.63
  283.18        3340.50           6724       18875.00     82456.94
  283.21        3340.75           6728       20295.00     88676.75
  283.24        3341.00           6731       21220.00     92729.56
  283.27        3341.25           6735       22279.00     97370.60
  283.29        3341.50           6739       23243.00    101596.40
  283.32        3341.75           6743       23847.00    104244.60
  283.35        3342.00           6746       24127.00    105472.30
  283.38        3342.25           6750       23848.00    104248.90
  283.40        3342.50           6754       23104.00    100987.00
  283.43        3342.75           6758       21967.00     96003.14
  283.46        3343.00           6761       21104.00     92221.27
  283.48        3343.25           6765       19573.00     85514.02
  283.51        3343.50           6769       18246.00     79702.53
  283.54        3343.75           6773       17120.00     74772.78
  283.57        3344.00           6776       15872.00     69310.50
  283.59        3344.25           6780       14478.00     63211.17
  283.62        3344.50           6784       13046.00     56947.76
  283.65        3344.75           6788       11788.00     51447.21
  283.68        3345.00           6791       10743.00     46879.28
  283.70        3345.25           6795        9307.00     40604.12
  283.73        3345.50           6799        7572.00     33025.30
  283.76        3345.75           6803        5597.00     24402.02
  283.78        3346.00           6806        4505.00     19635.90
  283.81        3346.25           6810        3488.00     15198.27
  283.84        3346.50           6814        2544.00     11080.16
  283.87        3346.75           6818        1721.00      7490.67
  283.89        3347.00           6821        1102.00      4791.40
  283.92        3347.25           6825         415.00      1796.08
  283.95        3347.50           6829         100.00       422.85
  283.98        3347.75           6833          43.00       174.37
  284.00        3348.00           6836          30.00       117.70
  284.03        3348.25           6840          28.00       108.98
  284.06        3348.50           6844          30.00       117.70
  284.09        3348.75           6848          27.00       104.62
  284.11        3349.00           6851          31.00       122.06
  284.14        3349.25           6855          33.00       130.78
  284.17        3349.50           6859          29.00       113.34
  284.20        3349.75           6863          33.00       130.78
  284.22        3350.00           6867          26.00       100.26
  284.25        3350.25           6870          31.00       122.06
  284.28        3350.50           6874          35.00       139.49
  284.30        3350.75           6878          31.00       122.06
  284.33        3351.00           6882          27.00       104.62
HL scan finished at 04:44:57
end
