************************************************************
  HL Scan of (1) Internal mercury lamp
************************************************************
Integration time is 0.2294 seconds per sample
dh201218Tamanrasset 22.79-5.529 4.974364pr865
************************************************************
Dead Time -------------------------  2.8E-08 
Number of Cycles Used -------------  4 
Starting Wavelength (Angstroms) ---  3331 
Final Wavelength (Angstoms) -------  3351 
Wavelength Increment (Angstroms) --  .25 
Filter Wheel #1 Position ---------- (1) Ground quartz diffuser (ND=2.32)
Filter Wheel #2 Position ---------- (0) Clear Aperture



************************************************************
HL scan start time = 04:40:53
Dark Count =  4.8 


Time (GMT)  Wavelength (Ang)  Step Number  Raw Counts  Counts/Second

  281.39        3331.00           6581          31.00       114.21
  281.61        3331.25           6585          26.00        92.42
  281.63        3331.50           6589          23.00        79.34
  281.66        3331.75           6593          28.00       101.13
  281.69        3332.00           6596          27.00        96.77
  281.71        3332.25           6600          28.00       101.13
  281.74        3332.50           6604          27.00        96.77
  281.77        3332.75           6608          24.00        83.70
  281.80        3333.00           6611          20.00        66.26
  281.82        3333.25           6615          29.00       105.49
  281.85        3333.50           6619          22.00        74.98
  281.88        3333.75           6623          32.00       118.57
  281.90        3334.00           6626          24.00        83.70
  281.93        3334.25           6630          29.00       105.49
  281.96        3334.50           6634          27.00        96.77
  281.99        3334.75           6638          25.00        88.06
  282.01        3335.00           6641          29.00       105.49
  282.04        3335.25           6645          30.00       109.85
  282.07        3335.50           6649          30.00       109.85
  282.09        3335.75           6653          32.00       118.57
  282.12        3336.00           6656          41.00       157.80
  282.15        3336.25           6660         116.00       484.75
  282.18        3336.50           6664         401.00      1727.20
  282.20        3336.75           6668         664.00      2873.81
  282.23        3337.00           6671        1125.00      4883.84
  282.26        3337.25           6675        2158.00      9388.69
  282.28        3337.50           6679        3471.00     15116.25
  282.31        3337.75           6683        4795.00     20893.65
  282.34        3338.00           6686        5800.00     25280.32
  282.37        3338.25           6690        7093.00     30925.64
  282.39        3338.50           6694        8630.00     37638.60
  282.42        3338.75           6698        9891.00     43148.01
  282.45        3339.00           6701       10846.00     47321.60
  282.48        3339.25           6705       12252.00     53467.96
  282.50        3339.50           6709       13577.00     59262.17
  282.53        3339.75           6713       15093.00     65893.93
  282.56        3340.00           6716       16152.00     70527.99
  282.58        3340.25           6720       17605.00     76888.10
  282.61        3340.50           6724       18781.00     82037.40
  282.64        3340.75           6728       20224.00     88357.82
  282.67        3341.00           6731       21084.00     92125.74
  282.69        3341.25           6735       22243.00     97204.92
  282.72        3341.50           6739       23357.00    102088.30
  282.75        3341.75           6743       23712.00    103644.70
  282.78        3342.00           6746       24139.00    105517.00
  282.80        3342.25           6750       23887.00    104412.00
  282.83        3342.50           6754       23066.00    100812.50
  282.86        3342.75           6758       21917.00     95776.12
  282.89        3343.00           6761       21279.00     92980.21
  282.91        3343.25           6765       19583.00     85549.93
  282.94        3343.50           6769       18365.00     80215.71
  282.97        3343.75           6773       17151.00     74900.60
  282.99        3344.00           6776       15835.00     69140.71
  283.02        3344.25           6780       14522.00     63395.79
  283.05        3344.50           6784       13017.00     56813.07
  283.08        3344.75           6788       11783.00     51417.48
  283.10        3345.00           6791       10698.00     46674.74
  283.13        3345.25           6795        9395.00     40980.74
  283.16        3345.50           6799        7538.00     32868.95
  283.19        3345.75           6803        5662.00     24677.90
  283.21        3346.00           6806        4420.00     19257.11
  283.24        3346.25           6810        3407.00     14837.03
  283.27        3346.50           6814        2643.00     11504.14
  283.30        3346.75           6818        1627.00      7072.89
  283.32        3347.00           6821        1038.00      4504.49
  283.35        3347.25           6825         345.00      1483.06
  283.38        3347.50           6829          96.00       397.56
  283.40        3347.75           6833          38.00       144.73
  283.43        3348.00           6836          35.00       131.65
  283.46        3348.25           6840          37.00       140.37
  283.49        3348.50           6844          32.00       118.57
  283.51        3348.75           6848          33.00       122.93
  283.54        3349.00           6851          30.00       109.85
  283.57        3349.25           6855          27.00        96.77
  283.59        3349.50           6859          31.00       114.21
  283.62        3349.75           6863          29.00       105.49
  283.65        3350.00           6867          36.00       136.01
  283.68        3350.25           6870          31.00       114.21
  283.70        3350.50           6874          29.00       105.49
  283.73        3350.75           6878          28.00       101.13
  283.76        3351.00           6882          31.00       114.21
HL scan finished at 04:44:23
end
