************************************************************
  HL Scan of (1) Internal mercury lamp
************************************************************
Integration time is 0.2294 seconds per sample
dh161218Tamanrasset 22.79-5.529 4.974364pr865
************************************************************
Dead Time -------------------------  2.8E-08 
Number of Cycles Used -------------  4 
Starting Wavelength (Angstroms) ---  3331 
Final Wavelength (Angstoms) -------  3351 
Wavelength Increment (Angstroms) --  .25 
Filter Wheel #1 Position ---------- (1) Ground quartz diffuser (ND=2.32)
Filter Wheel #2 Position ---------- (0) Clear Aperture



************************************************************
HL scan start time = 04:37:56
Dark Count =  3.2 


Time (GMT)  Wavelength (Ang)  Step Number  Raw Counts  Counts/Second

  278.44        3331.00           6581          29.00       112.47
  278.66        3331.25           6585          28.00       108.11
  278.68        3331.50           6589          30.00       116.83
  278.71        3331.75           6593          29.00       112.47
  278.74        3332.00           6596          28.00       108.11
  278.76        3332.25           6600          28.00       108.11
  278.79        3332.50           6604          32.00       125.55
  278.82        3332.75           6608          30.00       116.83
  278.85        3333.00           6611          23.00        86.31
  278.87        3333.25           6615          25.00        95.03
  278.90        3333.50           6619          29.00       112.47
  278.93        3333.75           6623          30.00       116.83
  278.95        3334.00           6626          26.00        99.39
  278.98        3334.25           6630          32.00       125.55
  279.01        3334.50           6634          27.00       103.75
  279.04        3334.75           6638          33.00       129.90
  279.06        3335.00           6641          27.00       103.75
  279.09        3335.25           6645          32.00       125.55
  279.12        3335.50           6649          36.00       142.98
  279.14        3335.75           6653          37.00       147.34
  279.17        3336.00           6656          45.00       182.22
  279.20        3336.25           6660         155.00       661.74
  279.23        3336.50           6664         514.00      2226.82
  279.25        3336.75           6668         884.00      3839.99
  279.28        3337.00           6671        1323.00      5754.20
  279.31        3337.25           6675        2439.00     10621.29
  279.33        3337.50           6679        3712.00     16174.72
  279.36        3337.75           6683        5079.00     22140.14
  279.39        3338.00           6686        6116.00     26666.81
  279.42        3338.25           6690        7545.00     32906.51
  279.44        3338.50           6694        8873.00     38707.15
  279.47        3338.75           6698       10393.00     45348.74
  279.50        3339.00           6701       11287.00     49256.20
  279.53        3339.25           6705       12686.00     55372.62
  279.55        3339.50           6709       14118.00     61635.49
  279.58        3339.75           6713       15566.00     67970.56
  279.61        3340.00           6716       16643.00     72683.96
  279.63        3340.25           6720       17831.00     77884.58
  279.66        3340.50           6724       19280.00     84229.81
  279.69        3340.75           6728       20741.00     90629.87
  279.72        3341.00           6731       21488.00     93903.07
  279.74        3341.25           6735       22756.00     99460.56
  279.77        3341.50           6739       23457.00    102533.70
  279.80        3341.75           6743       24047.00    105120.60
  279.83        3342.00           6746       24019.00    104997.90
  279.85        3342.25           6750       23860.00    104300.70
  279.88        3342.50           6754       23097.00    100955.40
  279.91        3342.75           6758       21460.00     93780.38
  279.94        3343.00           6761       20730.00     90581.68
  279.96        3343.25           6765       19286.00     84256.09
  279.99        3343.50           6769       17969.00     78488.79
  280.02        3343.75           6773       16754.00     73169.81
  280.04        3344.00           6776       15624.00     68224.36
  280.07        3344.25           6780       14167.00     61849.83
  280.10        3344.50           6784       12930.00     56439.60
  280.13        3344.75           6788       11394.00     49723.94
  280.15        3345.00           6791       10322.00     45038.45
  280.18        3345.25           6795        8981.00     39178.96
  280.21        3345.50           6799        7117.00     31037.43
  280.24        3345.75           6803        5348.00     23314.26
  280.26        3346.00           6806        4301.00     18744.80
  280.29        3346.25           6810        3254.00     14176.51
  280.32        3346.50           6814        2311.00     10062.99
  280.34        3346.75           6818        1480.00      6438.82
  280.37        3347.00           6821         924.00      4014.40
  280.40        3347.25           6825         315.00      1359.25
  280.43        3347.50           6829          72.00       299.92
  280.45        3347.75           6833          35.00       138.62
  280.48        3348.00           6836          31.00       121.19
  280.51        3348.25           6840          30.00       116.83
  280.53        3348.50           6844          35.00       138.62
  280.56        3348.75           6848          30.00       116.83
  280.59        3349.00           6851          30.00       116.83
  280.62        3349.25           6855          31.00       121.19
  280.64        3349.50           6859          37.00       147.34
  280.67        3349.75           6863          27.00       103.75
  280.70        3350.00           6867          31.00       121.19
  280.72        3350.25           6870          30.00       116.83
  280.75        3350.50           6874          32.00       125.55
  280.78        3350.75           6878          32.00       125.55
  280.81        3351.00           6882          34.00       134.26
HL scan finished at 04:41:26
end
