************************************************************
  HL Scan of (1) Internal mercury lamp
************************************************************
Integration time is 0.2294 seconds per sample
dh181218Tamanrasset 22.79-5.529 4.974364pr865
************************************************************
Dead Time -------------------------  2.8E-08 
Number of Cycles Used -------------  4 
Starting Wavelength (Angstroms) ---  3331 
Final Wavelength (Angstoms) -------  3351 
Wavelength Increment (Angstroms) --  .25 
Filter Wheel #1 Position ---------- (1) Ground quartz diffuser (ND=2.32)
Filter Wheel #2 Position ---------- (0) Clear Aperture



************************************************************
HL scan start time = 04:40:23
Dark Count =  5.1 


Time (GMT)  Wavelength (Ang)  Step Number  Raw Counts  Counts/Second

  280.89        3331.00           6581          33.00       121.62
  281.11        3331.25           6585          24.00        82.39
  281.13        3331.50           6589          25.00        86.75
  281.16        3331.75           6593          29.00       104.19
  281.19        3332.00           6596          26.00        91.11
  281.22        3332.25           6600          33.00       121.62
  281.24        3332.50           6604          31.00       112.90
  281.27        3332.75           6608          26.00        91.11
  281.30        3333.00           6611          23.00        78.03
  281.32        3333.25           6615          32.00       117.26
  281.35        3333.50           6619          29.00       104.19
  281.38        3333.75           6623          26.00        91.11
  281.41        3334.00           6626          27.00        95.47
  281.43        3334.25           6630          24.00        82.39
  281.46        3334.50           6634          31.00       112.90
  281.49        3334.75           6638          31.00       112.90
  281.51        3335.00           6641          28.00        99.83
  281.54        3335.25           6645          27.00        95.47
  281.57        3335.50           6649          39.00       147.78
  281.60        3335.75           6653          36.00       134.70
  281.62        3336.00           6656          49.00       191.37
  281.65        3336.25           6660         129.00       540.11
  281.68        3336.50           6664         430.00      1852.32
  281.71        3336.75           6668         659.00      2850.71
  281.73        3337.00           6671        1132.00      4913.06
  281.76        3337.25           6675        2145.00      9330.68
  281.79        3337.50           6679        3451.00     15027.68
  281.81        3337.75           6683        4762.00     20748.32
  281.84        3338.00           6686        5926.00     25829.05
  281.87        3338.25           6690        7271.00     31701.62
  281.90        3338.50           6694        8644.00     37698.45
  281.92        3338.75           6698        9987.00     43566.20
  281.95        3339.00           6701       11084.00     48360.57
  281.98        3339.25           6705       12457.00     54362.99
  282.00        3339.50           6709       13827.00     60354.31
  282.03        3339.75           6713       15242.00     66544.54
  282.06        3340.00           6716       16375.00     71502.65
  282.09        3340.25           6720       17732.00     77442.82
  282.11        3340.50           6724       19190.00     83827.31
  282.14        3340.75           6728       20389.00     89079.37
  282.17        3341.00           6731       21392.00     93474.06
  282.20        3341.25           6735       22464.00     98172.29
  282.22        3341.50           6739       23428.00    102398.20
  282.25        3341.75           6743       24116.00    105414.90
  282.28        3342.00           6746       24155.00    105585.90
  282.31        3342.25           6750       24021.00    104998.30
  282.33        3342.50           6754       23268.00    101696.80
  282.36        3342.75           6758       22143.00     96765.31
  282.39        3343.00           6761       21102.00     92203.31
  282.42        3343.25           6765       19764.00     86341.44
  282.44        3343.50           6769       18520.00     80893.13
  282.47        3343.75           6773       17074.00     74562.23
  282.50        3344.00           6776       15961.00     69690.79
  282.53        3344.25           6780       14550.00     63516.96
  282.55        3344.50           6784       13209.00     57651.41
  282.58        3344.75           6788       11873.00     51809.64
  282.61        3345.00           6791       10756.00     46926.92
  282.63        3345.25           6795        9359.00     40822.14
  282.66        3345.50           6799        7598.00     33129.67
  282.69        3345.75           6803        5803.00     25292.10
  282.72        3346.00           6806        4613.00     20098.06
  282.74        3346.25           6810        3534.00     15389.81
  282.77        3346.50           6814        2699.00     11747.11
  282.80        3346.75           6818        1798.00      7817.32
  282.83        3347.00           6821        1146.00      4974.10
  282.85        3347.25           6825         425.00      1830.52
  282.88        3347.50           6829         116.00       483.44
  282.91        3347.75           6833          41.00       156.50
  282.93        3348.00           6836          31.00       112.90
  282.96        3348.25           6840          31.00       112.90
  282.99        3348.50           6844          35.00       130.34
  283.02        3348.75           6848          29.00       104.19
  283.04        3349.00           6851          33.00       121.62
  283.07        3349.25           6855          28.00        99.83
  283.10        3349.50           6859          27.00        95.47
  283.12        3349.75           6863          26.00        91.11
  283.15        3350.00           6867          26.00        91.11
  283.18        3350.25           6870          29.00       104.19
  283.21        3350.50           6874          26.00        91.11
  283.23        3350.75           6878          32.00       117.26
  283.26        3351.00           6882          27.00        95.47
HL scan finished at 04:43:53
end
