************************************************************
  HL Scan of (1) Internal mercury lamp
************************************************************
Integration time is 0.2294 seconds per sample
dh171218Tamanrasset 22.79-5.529 4.974364pr865
************************************************************
Dead Time -------------------------  2.8E-08 
Number of Cycles Used -------------  4 
Starting Wavelength (Angstroms) ---  3331 
Final Wavelength (Angstoms) -------  3351 
Wavelength Increment (Angstroms) --  .25 
Filter Wheel #1 Position ---------- (1) Ground quartz diffuser (ND=2.32)
Filter Wheel #2 Position ---------- (0) Clear Aperture



************************************************************
HL scan start time = 04:39:22
Dark Count =  5.6 


Time (GMT)  Wavelength (Ang)  Step Number  Raw Counts  Counts/Second

  279.88        3331.00           6581          27.00        93.29
  280.10        3331.25           6585          34.00       123.80
  280.13        3331.50           6589          25.00        84.57
  280.15        3331.75           6593          27.00        93.29
  280.18        3332.00           6596          27.00        93.29
  280.21        3332.25           6600          27.00        93.29
  280.24        3332.50           6604          30.00       106.36
  280.26        3332.75           6608          25.00        84.57
  280.29        3333.00           6611          30.00       106.36
  280.32        3333.25           6615          34.00       123.80
  280.34        3333.50           6619          32.00       115.08
  280.37        3333.75           6623          25.00        84.57
  280.40        3334.00           6626          25.00        84.57
  280.43        3334.25           6630          27.00        93.29
  280.45        3334.50           6634          27.00        93.29
  280.48        3334.75           6638          29.00       102.01
  280.51        3335.00           6641          30.00       106.36
  280.54        3335.25           6645          29.00       102.01
  280.56        3335.50           6649          32.00       115.08
  280.59        3335.75           6653          30.00       106.36
  280.62        3336.00           6656          45.00       171.75
  280.64        3336.25           6660         203.00       860.53
  280.67        3336.50           6664         551.00      2377.66
  280.70        3336.75           6668         807.00      3493.80
  280.73        3337.00           6671        1375.00      5970.48
  280.75        3337.25           6675        2530.00     11007.75
  280.78        3337.50           6679        3754.00     16347.50
  280.81        3337.75           6683        5101.00     22225.68
  280.84        3338.00           6686        6187.00     26966.30
  280.86        3338.25           6690        7545.00     32896.02
  280.89        3338.50           6694        8858.00     38631.13
  280.92        3338.75           6698       10210.00     44538.51
  280.94        3339.00           6701       11240.00     49040.28
  280.97        3339.25           6705       12576.00     54881.13
  281.00        3339.50           6709       14088.00     61493.76
  281.03        3339.75           6713       15390.00     67189.93
  281.05        3340.00           6716       16462.00     71881.25
  281.08        3340.25           6720       17737.00     77462.52
  281.11        3340.50           6724       19336.00     84464.57
  281.14        3340.75           6728       20533.00     89708.05
  281.16        3341.00           6731       21367.00     93362.33
  281.19        3341.25           6735       22429.00     98016.68
  281.22        3341.50           6739       23455.00    102514.40
  281.25        3341.75           6743       23872.00    104342.80
  281.27        3342.00           6746       23998.00    104895.30
  281.30        3342.25           6750       23586.00    103088.80
  281.33        3342.50           6754       22801.00     99647.31
  281.35        3342.75           6758       21484.00     93875.02
  281.38        3343.00           6761       20538.00     89729.96
  281.41        3343.25           6765       19194.00     83842.63
  281.44        3343.50           6769       17964.00     78456.40
  281.46        3343.75           6773       16579.00     72393.33
  281.49        3344.00           6776       15509.00     67710.65
  281.52        3344.25           6780       14205.00     62005.57
  281.54        3344.50           6784       12686.00     55362.13
  281.57        3344.75           6788       11329.00     49429.31
  281.60        3345.00           6791       10356.00     45176.56
  281.63        3345.25           6795        8928.00     38936.94
  281.65        3345.50           6799        7166.00     31240.92
  281.68        3345.75           6803        5370.00     23399.81
  281.71        3346.00           6806        4199.00     18289.23
  281.74        3346.25           6810        3183.00     13856.29
  281.76        3346.50           6814        2344.00     10196.46
  281.79        3346.75           6818        1549.00      6729.25
  281.82        3347.00           6821         895.00      3877.49
  281.85        3347.25           6825         284.00      1213.64
  281.87        3347.50           6829          73.00       293.81
  281.90        3347.75           6833          39.00       145.60
  281.93        3348.00           6836          31.00       110.72
  281.95        3348.25           6840          31.00       110.72
  281.98        3348.50           6844          29.00       102.01
  282.01        3348.75           6848          35.00       128.16
  282.04        3349.00           6851          28.00        97.65
  282.06        3349.25           6855          27.00        93.29
  282.09        3349.50           6859          30.00       106.36
  282.12        3349.75           6863          29.00       102.01
  282.14        3350.00           6867          36.00       132.52
  282.17        3350.25           6870          34.00       123.80
  282.20        3350.50           6874          31.00       110.72
  282.23        3350.75           6878          26.00        88.93
  282.25        3351.00           6882          32.00       115.08
HL scan finished at 04:42:53
end
