************************************************************
  HL Scan of (1) Internal mercury lamp
************************************************************
Integration time is 0.2294 seconds per sample
dh191218Tamanrasset 22.79-5.529 4.974364pr865
************************************************************
Dead Time -------------------------  2.8E-08 
Number of Cycles Used -------------  4 
Starting Wavelength (Angstroms) ---  3331 
Final Wavelength (Angstoms) -------  3351 
Wavelength Increment (Angstroms) --  .25 
Filter Wheel #1 Position ---------- (1) Ground quartz diffuser (ND=2.32)
Filter Wheel #2 Position ---------- (0) Clear Aperture



************************************************************
HL scan start time = 04:40:23
Dark Count =  4.3 


Time (GMT)  Wavelength (Ang)  Step Number  Raw Counts  Counts/Second

  280.90        3331.00           6581          30.00       112.03
  281.11        3331.25           6585          28.00       103.31
  281.14        3331.50           6589          33.00       125.11
  281.17        3331.75           6593          38.00       146.91
  281.20        3332.00           6596          34.00       129.47
  281.22        3332.25           6600          27.00        98.95
  281.25        3332.50           6604          28.00       103.31
  281.28        3332.75           6608          24.00        85.88
  281.30        3333.00           6611          28.00       103.31
  281.33        3333.25           6615          28.00       103.31
  281.36        3333.50           6619          29.00       107.67
  281.39        3333.75           6623          35.00       133.83
  281.41        3334.00           6626          23.00        81.52
  281.44        3334.25           6630          28.00       103.31
  281.47        3334.50           6634          32.00       120.75
  281.49        3334.75           6638          26.00        94.59
  281.52        3335.00           6641          30.00       112.03
  281.55        3335.25           6645          32.00       120.75
  281.58        3335.50           6649          36.00       138.19
  281.60        3335.75           6653          38.00       146.91
  281.63        3336.00           6656          41.00       159.98
  281.66        3336.25           6660         150.00       635.15
  281.68        3336.50           6664         413.00      1781.69
  281.71        3336.75           6668         679.00      2941.39
  281.74        3337.00           6671        1171.00      5086.60
  281.77        3337.25           6675        2286.00      9949.15
  281.79        3337.50           6679        3560.00     15506.73
  281.82        3337.75           6683        4881.00     21271.17
  281.85        3338.00           6686        5997.00     26142.50
  281.88        3338.25           6690        7414.00     32329.60
  281.90        3338.50           6694        8717.00     38020.84
  281.93        3338.75           6698        9995.00     43604.65
  281.96        3339.00           6701       11246.00     49072.18
  281.98        3339.25           6705       12610.00     55035.49
  282.01        3339.50           6709       13965.00     60961.43
  282.04        3339.75           6713       15428.00     67361.90
  282.07        3340.00           6716       16336.00     71335.46
  282.09        3340.25           6720       17876.00     78076.78
  282.12        3340.50           6724       19203.00     83887.74
  282.15        3340.75           6728       20687.00     90388.46
  282.18        3341.00           6731       21518.00     94029.72
  282.20        3341.25           6735       22672.00     99087.52
  282.23        3341.50           6739       23525.00    102827.00
  282.26        3341.75           6743       24082.00    105269.30
  282.29        3342.00           6746       24177.00    105685.90
  282.31        3342.25           6750       23858.00    104287.10
  282.34        3342.50           6754       23091.00    100924.30
  282.37        3342.75           6758       21977.00     96041.28
  282.39        3343.00           6761       20785.00     90817.83
  282.42        3343.25           6765       19368.00     84610.41
  282.45        3343.50           6769       18200.00     79495.41
  282.48        3343.75           6773       16816.00     73436.38
  282.50        3344.00           6776       15700.00     68552.12
  282.53        3344.25           6780       14229.00     62116.23
  282.56        3344.50           6784       12929.00     56430.42
  282.59        3344.75           6788       11563.00     50457.90
  282.61        3345.00           6791       10484.00     45741.64
  282.64        3345.25           6795        9095.00     39672.21
  282.67        3345.50           6799        7397.00     32255.36
  282.70        3345.75           6803        5466.00     23824.52
  282.72        3346.00           6806        4331.00     18870.91
  282.75        3346.25           6810        3266.00     14224.06
  282.78        3346.50           6814        2469.00     10747.35
  282.80        3346.75           6818        1581.00      6874.47
  282.83        3347.00           6821         976.00      4236.34
  282.86        3347.25           6825         303.00      1302.14
  282.89        3347.50           6829          69.00       282.04
  282.91        3347.75           6833          33.00       125.11
  282.94        3348.00           6836          33.00       125.11
  282.97        3348.25           6840          27.00        98.95
  282.99        3348.50           6844          33.00       125.11
  283.02        3348.75           6848          34.00       129.47
  283.05        3349.00           6851          29.00       107.67
  283.08        3349.25           6855          33.00       125.11
  283.10        3349.50           6859          35.00       133.83
  283.13        3349.75           6863          32.00       120.75
  283.16        3350.00           6867          30.00       112.03
  283.18        3350.25           6870          29.00       107.67
  283.21        3350.50           6874          32.00       120.75
  283.24        3350.75           6878          29.00       107.67
  283.27        3351.00           6882          32.00       120.75
HL scan finished at 04:43:53
end
