************************************************************
  HL Scan of (1) Internal mercury lamp
************************************************************
Integration time is 0.2294 seconds per sample
dh301218Tamanrasset 22.79-5.529 4.974364pr865
************************************************************
Dead Time -------------------------  2.8E-08 
Number of Cycles Used -------------  4 
Starting Wavelength (Angstroms) ---  3331 
Final Wavelength (Angstoms) -------  3351 
Wavelength Increment (Angstroms) --  .25 
Filter Wheel #1 Position ---------- (1) Ground quartz diffuser (ND=2.32)
Filter Wheel #2 Position ---------- (0) Clear Aperture



************************************************************
HL scan start time = 04:44:34
Dark Count =  5.5 


Time (GMT)  Wavelength (Ang)  Step Number  Raw Counts  Counts/Second

  285.09        3331.00           6581          28.00        98.08
  285.30        3331.25           6585          30.00       106.80
  285.33        3331.50           6589          27.00        93.72
  285.36        3331.75           6593          31.00       111.16
  285.39        3332.00           6596          30.00       106.80
  285.41        3332.25           6600          27.00        93.72
  285.44        3332.50           6604          30.00       106.80
  285.47        3332.75           6608          30.00       106.80
  285.49        3333.00           6611          26.00        89.36
  285.52        3333.25           6615          30.00       106.80
  285.55        3333.50           6619          23.00        76.29
  285.58        3333.75           6623          29.00       102.44
  285.60        3334.00           6626          28.00        98.08
  285.63        3334.25           6630          31.00       111.16
  285.66        3334.50           6634          31.00       111.16
  285.69        3334.75           6638          30.00       106.80
  285.71        3335.00           6641          27.00        93.72
  285.74        3335.25           6645          35.00       128.60
  285.77        3335.50           6649          31.00       111.16
  285.79        3335.75           6653          37.00       137.32
  285.82        3336.00           6656          47.00       180.91
  285.85        3336.25           6660         140.00       586.32
  285.88        3336.50           6664         468.00      2016.24
  285.90        3336.75           6668         756.00      3271.88
  285.93        3337.00           6671        1224.00      5312.47
  285.96        3337.25           6675        2357.00     10253.60
  285.98        3337.50           6679        3642.00     15859.27
  286.01        3337.75           6683        4916.00     21418.68
  286.04        3338.00           6686        5976.00     26045.58
  286.07        3338.25           6690        7359.00     32084.17
  286.09        3338.50           6694        8767.00     38234.02
  286.12        3338.75           6698        9978.00     43525.11
  286.15        3339.00           6701       11157.00     48677.90
  286.18        3339.25           6705       12366.00     53963.35
  286.20        3339.50           6709       13908.00     60706.85
  286.23        3339.75           6713       15312.00     66849.07
  286.26        3340.00           6716       16286.00     71111.37
  286.28        3340.25           6720       17664.00     77143.35
  286.31        3340.50           6724       19103.00     83444.52
  286.34        3340.75           6728       20357.00     88937.42
  286.37        3341.00           6731       21259.00     92889.50
  286.39        3341.25           6735       22463.00     98166.14
  286.42        3341.50           6739       23341.00    102015.10
  286.45        3341.75           6743       23948.00    104676.50
  286.48        3342.00           6746       24045.00    105101.80
  286.50        3342.25           6750       23666.00    103440.00
  286.53        3342.50           6754       22924.00    100186.90
  286.56        3342.75           6758       21706.00     94848.34
  286.59        3343.00           6761       20814.00     90939.64
  286.61        3343.25           6765       19433.00     84889.86
  286.64        3343.50           6769       18099.00     79047.91
  286.67        3343.75           6773       16926.00     73912.63
  286.69        3344.00           6776       15714.00     68608.13
  286.72        3344.25           6780       14320.00     62509.05
  286.75        3344.50           6784       12899.00     56293.99
  286.78        3344.75           6788       11571.00     50487.63
  286.80        3345.00           6791       10559.00     46064.17
  286.83        3345.25           6795        9211.00     40173.76
  286.86        3345.50           6799        7365.00     32110.38
  286.89        3345.75           6803        5580.00     24316.90
  286.91        3346.00           6806        4521.00     19694.82
  286.94        3346.25           6810        3433.00     14947.41
  286.97        3346.50           6814        2359.00     10262.32
  287.00        3346.75           6818        1507.00      6546.54
  287.02        3347.00           6821         918.00      3978.21
  287.05        3347.25           6825         311.00      1331.78
  287.08        3347.50           6829          70.00       281.17
  287.10        3347.75           6833          33.00       119.88
  287.13        3348.00           6836          35.00       128.60
  287.16        3348.25           6840          32.00       115.52
  287.19        3348.50           6844          34.00       124.24
  287.21        3348.75           6848          34.00       124.24
  287.24        3349.00           6851          30.00       106.80
  287.27        3349.25           6855          32.00       115.52
  287.29        3349.50           6859          26.00        89.36
  287.32        3349.75           6863          25.00        85.00
  287.35        3350.00           6867          30.00       106.80
  287.38        3350.25           6870          31.00       111.16
  287.40        3350.50           6874          35.00       128.60
  287.43        3350.75           6878          34.00       124.24
  287.46        3351.00           6882          32.00       115.52
HL scan finished at 04:48:05
end
