************************************************************
  HL Scan of (1) Internal mercury lamp
************************************************************
Integration time is 0.2294 seconds per sample
dh281218Tamanrasset 22.79-5.529 4.974364pr865
************************************************************
Dead Time -------------------------  2.8E-08 
Number of Cycles Used -------------  4 
Starting Wavelength (Angstroms) ---  3331 
Final Wavelength (Angstoms) -------  3351 
Wavelength Increment (Angstroms) --  .25 
Filter Wheel #1 Position ---------- (1) Ground quartz diffuser (ND=2.32)
Filter Wheel #2 Position ---------- (0) Clear Aperture



************************************************************
HL scan start time = 04:44:00
Dark Count =  3 


Time (GMT)  Wavelength (Ang)  Step Number  Raw Counts  Counts/Second

  284.51        3331.00           6581          28.00       108.98
  284.72        3331.25           6585          28.00       108.98
  284.75        3331.50           6589          32.00       126.42
  284.78        3331.75           6593          33.00       130.78
  284.81        3332.00           6596          30.00       117.70
  284.83        3332.25           6600          27.00       104.62
  284.86        3332.50           6604          28.00       108.98
  284.89        3332.75           6608          26.00       100.26
  284.91        3333.00           6611          29.00       113.34
  284.94        3333.25           6615          26.00       100.26
  284.97        3333.50           6619          31.00       122.06
  285.00        3333.75           6623          30.00       117.70
  285.02        3334.00           6626          27.00       104.62
  285.05        3334.25           6630          27.00       104.62
  285.08        3334.50           6634          30.00       117.70
  285.10        3334.75           6638          28.00       108.98
  285.13        3335.00           6641          27.00       104.62
  285.16        3335.25           6645          34.00       135.14
  285.19        3335.50           6649          40.00       161.29
  285.21        3335.75           6653          34.00       135.14
  285.24        3336.00           6656          58.00       239.76
  285.27        3336.25           6660         176.00       754.16
  285.29        3336.50           6664         460.00      1992.26
  285.32        3336.75           6668         752.00      3265.34
  285.35        3337.00           6671        1335.00      5807.40
  285.38        3337.25           6675        2475.00     10779.19
  285.40        3337.50           6679        3721.00     16214.86
  285.43        3337.75           6683        4977.00     21695.83
  285.46        3338.00           6686        6110.00     26641.49
  285.49        3338.25           6690        7489.00     32662.82
  285.51        3338.50           6694        8911.00     38874.02
  285.54        3338.75           6698       10207.00     44536.76
  285.57        3339.00           6701       11127.00     48557.70
  285.59        3339.25           6705       12542.00     54743.83
  285.62        3339.50           6709       13938.00     60849.01
  285.65        3339.75           6713       15464.00     67525.11
  285.68        3340.00           6716       16399.00     71616.88
  285.70        3340.25           6720       17862.00     78021.18
  285.73        3340.50           6724       19160.00     83705.11
  285.76        3340.75           6728       20409.00     89176.19
  285.79        3341.00           6731       21377.00     93417.53
  285.81        3341.25           6735       22483.00     98264.77
  285.84        3341.50           6739       23373.00    102166.30
  285.87        3341.75           6743       23983.00    104840.90
  285.89        3342.00           6746       23957.00    104726.90
  285.92        3342.25           6750       23704.00    103617.50
  285.95        3342.50           6754       22804.00     99671.85
  285.98        3342.75           6758       21782.00     95192.37
  286.00        3343.00           6761       20859.00     91147.76
  286.03        3343.25           6765       19461.00     85023.44
  286.06        3343.50           6769       18110.00     79107.03
  286.09        3343.75           6773       16768.00     73231.96
  286.11        3344.00           6776       15760.00     68820.37
  286.14        3344.25           6780       14351.00     62655.60
  286.17        3344.50           6784       12940.00     56484.21
  286.20        3344.75           6788       11639.00     50795.82
  286.22        3345.00           6791       10549.00     46031.39
  286.25        3345.25           6795        9073.00     39581.77
  286.28        3345.50           6799        7232.00     31540.49
  286.31        3345.75           6803        5364.00     23384.97
  286.33        3346.00           6806        4197.00     18291.84
  286.36        3346.25           6810        3307.00     14408.60
  286.39        3346.50           6814        2481.00     10805.36
  286.41        3346.75           6818        1509.00      6566.16
  286.44        3347.00           6821         913.00      3967.31
  286.47        3347.25           6825         299.00      1290.37
  286.50        3347.50           6829          70.00       292.07
  286.52        3347.75           6833          34.00       135.14
  286.55        3348.00           6836          29.00       113.34
  286.58        3348.25           6840          27.00       104.62
  286.60        3348.50           6844          34.00       135.14
  286.63        3348.75           6848          28.00       108.98
  286.66        3349.00           6851          28.00       108.98
  286.69        3349.25           6855          30.00       117.70
  286.71        3349.50           6859          30.00       117.70
  286.74        3349.75           6863          27.00       104.62
  286.77        3350.00           6867          33.00       130.78
  286.79        3350.25           6870          28.00       108.98
  286.82        3350.50           6874          33.00       130.78
  286.85        3350.75           6878          25.00        95.90
  286.88        3351.00           6882          30.00       117.70
HL scan finished at 04:47:30
end
