************************************************************
  HL Scan of (1) Internal mercury lamp
************************************************************
Integration time is 0.2294 seconds per sample
dh311218Tamanrasset 22.79-5.529 4.974364pr865
************************************************************
Dead Time -------------------------  2.8E-08 
Number of Cycles Used -------------  4 
Starting Wavelength (Angstroms) ---  3331 
Final Wavelength (Angstoms) -------  3351 
Wavelength Increment (Angstroms) --  .25 
Filter Wheel #1 Position ---------- (1) Ground quartz diffuser (ND=2.32)
Filter Wheel #2 Position ---------- (0) Clear Aperture



************************************************************
HL scan start time = 04:45:00
Dark Count =  4.9 


Time (GMT)  Wavelength (Ang)  Step Number  Raw Counts  Counts/Second

  285.51        3331.00           6581          30.00       109.42
  285.73        3331.25           6585          29.00       105.06
  285.76        3331.50           6589          31.00       113.78
  285.78        3331.75           6593          25.00        87.62
  285.81        3332.00           6596          22.00        74.54
  285.84        3332.25           6600          27.00        96.34
  285.86        3332.50           6604          27.00        96.34
  285.89        3332.75           6608          25.00        87.62
  285.92        3333.00           6611          32.00       118.13
  285.95        3333.25           6615          30.00       109.42
  285.97        3333.50           6619          29.00       105.06
  286.00        3333.75           6623          27.00        96.34
  286.03        3334.00           6626          30.00       109.42
  286.05        3334.25           6630          33.00       122.49
  286.08        3334.50           6634          26.00        91.98
  286.11        3334.75           6638          29.00       105.06
  286.14        3335.00           6641          29.00       105.06
  286.16        3335.25           6645          31.00       113.78
  286.19        3335.50           6649          33.00       122.49
  286.22        3335.75           6653          33.00       122.49
  286.24        3336.00           6656          38.00       144.29
  286.27        3336.25           6660         118.00       493.03
  286.30        3336.50           6664         362.00      1556.74
  286.33        3336.75           6668         623.00      2694.62
  286.35        3337.00           6671         954.00      4137.79
  286.38        3337.25           6675        1938.00      8428.76
  286.41        3337.50           6679        3208.00     13968.41
  286.44        3337.75           6683        4446.00     19370.14
  286.46        3338.00           6686        5606.00     24433.02
  286.49        3338.25           6690        6926.00     30195.96
  286.52        3338.50           6694        8233.00     35903.99
  286.54        3338.75           6698        9639.00     42046.42
  286.57        3339.00           6701       10680.00     46595.63
  286.60        3339.25           6705       12010.00     52409.46
  286.63        3339.50           6709       13430.00     58618.81
  286.65        3339.75           6713       14940.00     65224.07
  286.68        3340.00           6716       15905.00     69446.60
  286.71        3340.25           6720       17347.00     75758.18
  286.74        3340.50           6724       18701.00     81686.63
  286.76        3340.75           6728       19916.00     87008.14
  286.79        3341.00           6731       20845.00     91078.09
  286.82        3341.25           6735       22048.00     96349.81
  286.85        3341.50           6739       23031.00    100658.60
  286.87        3341.75           6743       23628.00    103276.00
  286.90        3342.00           6746       24000.00    104907.10
  286.93        3342.25           6750       23720.00    103679.40
  286.96        3342.50           6754       23314.00    101899.30
  286.98        3342.75           6758       22437.00     98054.81
  287.01        3343.00           6761       21122.00     92291.81
  287.04        3343.25           6765       19936.00     87095.75
  287.06        3343.50           6769       18554.00     81042.90
  287.09        3343.75           6773       17283.00     75478.00
  287.12        3344.00           6776       16101.00     70304.35
  287.15        3344.25           6780       14887.00     64992.18
  287.17        3344.50           6784       13513.00     58981.81
  287.20        3344.75           6788       12109.00     52842.30
  287.23        3345.00           6791       11069.00     48295.87
  287.26        3345.25           6795        9612.00     41928.45
  287.28        3345.50           6799        7958.00     34702.84
  287.31        3345.75           6803        6360.00     27724.66
  287.34        3346.00           6806        5241.00     22839.80
  287.36        3346.25           6810        3827.00     16669.07
  287.39        3346.50           6814        2626.00     11429.55
  287.42        3346.75           6818        1938.00      8428.76
  287.45        3347.00           6821        1364.00      5925.57
  287.47        3347.25           6825         548.00      2367.64
  287.50        3347.50           6829         161.00       680.48
  287.53        3347.75           6833          41.00       157.37
  287.55        3348.00           6836          30.00       109.42
  287.58        3348.25           6840          33.00       122.49
  287.61        3348.50           6844          38.00       144.29
  287.64        3348.75           6848          31.00       113.78
  287.66        3349.00           6851          32.00       118.13
  287.69        3349.25           6855          31.00       113.78
  287.72        3349.50           6859          31.00       113.78
  287.74        3349.75           6863          30.00       109.42
  287.77        3350.00           6867          39.00       148.65
  287.80        3350.25           6870          32.00       118.13
  287.83        3350.50           6874          33.00       122.49
  287.85        3350.75           6878          32.00       118.13
  287.88        3351.00           6882          27.00        96.34
HL scan finished at 04:48:30
end
