************************************************************
  HL Scan of (1) Internal mercury lamp
************************************************************
Integration time is 0.2294 seconds per sample
dh291218Tamanrasset 22.79-5.529 4.974364pr865
************************************************************
Dead Time -------------------------  2.8E-08 
Number of Cycles Used -------------  4 
Starting Wavelength (Angstroms) ---  3331 
Final Wavelength (Angstoms) -------  3351 
Wavelength Increment (Angstroms) --  .25 
Filter Wheel #1 Position ---------- (1) Ground quartz diffuser (ND=2.32)
Filter Wheel #2 Position ---------- (0) Clear Aperture



************************************************************
HL scan start time = 04:44:32
Dark Count =  3.2 


Time (GMT)  Wavelength (Ang)  Step Number  Raw Counts  Counts/Second

  285.05        3331.00           6581          25.00        95.03
  285.27        3331.25           6585          27.00       103.75
  285.30        3331.50           6589          26.00        99.39
  285.32        3331.75           6593          29.00       112.47
  285.35        3332.00           6596          29.00       112.47
  285.38        3332.25           6600          29.00       112.47
  285.40        3332.50           6604          27.00       103.75
  285.43        3332.75           6608          27.00       103.75
  285.46        3333.00           6611          26.00        99.39
  285.49        3333.25           6615          26.00        99.39
  285.51        3333.50           6619          30.00       116.83
  285.54        3333.75           6623          27.00       103.75
  285.57        3334.00           6626          26.00        99.39
  285.59        3334.25           6630          28.00       108.11
  285.62        3334.50           6634          30.00       116.83
  285.65        3334.75           6638          28.00       108.11
  285.68        3335.00           6641          30.00       116.83
  285.70        3335.25           6645          29.00       112.47
  285.73        3335.50           6649          32.00       125.55
  285.76        3335.75           6653          41.00       164.78
  285.78        3336.00           6656          44.00       177.86
  285.81        3336.25           6660          99.00       417.62
  285.84        3336.50           6664         360.00      1555.43
  285.87        3336.75           6668         568.00      2462.24
  285.89        3337.00           6671        1007.00      4376.30
  285.92        3337.25           6675        1983.00      8632.43
  285.95        3337.50           6679        3316.00     14446.99
  285.97        3337.75           6683        4583.00     19975.42
  286.00        3338.00           6686        5605.00     24436.07
  286.03        3338.25           6690        7073.00     30845.29
  286.06        3338.50           6694        8433.00     36785.04
  286.08        3338.75           6698        9832.00     42897.18
  286.11        3339.00           6701       10722.00     46786.62
  286.14        3339.25           6705       12191.00     53208.24
  286.17        3339.50           6709       13411.00     58543.14
  286.19        3339.75           6713       15082.00     65852.79
  286.22        3340.00           6716       15977.00     69769.11
  286.25        3340.25           6720       17367.00     75853.18
  286.28        3340.50           6724       18746.00     81891.15
  286.30        3340.75           6728       20113.00     87878.56
  286.33        3341.00           6731       21072.00     92080.18
  286.36        3341.25           6735       22186.00     96962.11
  286.39        3341.50           6739       23167.00    101262.30
  286.41        3341.75           6743       23846.00    104239.30
  286.44        3342.00           6746       23862.00    104309.40
  286.47        3342.25           6750       23781.00    103954.30
  286.49        3342.50           6754       23259.00    101665.60
  286.52        3342.75           6758       21905.00     95730.54
  286.55        3343.00           6761       20900.00     91326.52
  286.58        3343.25           6765       19727.00     86187.69
  286.60        3343.50           6769       18428.00     80498.59
  286.63        3343.75           6773       16951.00     74032.13
  286.66        3344.00           6776       15955.00     69672.85
  286.69        3344.25           6780       14527.00     63424.65
  286.71        3344.50           6784       13254.00     57856.51
  286.74        3344.75           6788       11890.00     51892.26
  286.77        3345.00           6791       10771.00     47000.79
  286.79        3345.25           6795        9385.00     40944.04
  286.82        3345.50           6799        7605.00     33168.54
  286.85        3345.75           6803        5842.00     25470.65
  286.88        3346.00           6806        4734.00     20634.41
  286.90        3346.25           6810        3511.00     15297.75
  286.93        3346.50           6814        2598.00     11314.83
  286.96        3346.75           6818        1760.00      7659.88
  286.99        3347.00           6821        1103.00      4794.89
  287.01        3347.25           6825         433.00      1873.68
  287.04        3347.50           6829         107.00       452.49
  287.07        3347.75           6833          41.00       164.78
  287.10        3348.00           6836          29.00       112.47
  287.12        3348.25           6840          25.00        95.03
  287.15        3348.50           6844          37.00       147.34
  287.18        3348.75           6848          33.00       129.90
  287.20        3349.00           6851          26.00        99.39
  287.23        3349.25           6855          26.00        99.39
  287.26        3349.50           6859          28.00       108.11
  287.29        3349.75           6863          29.00       112.47
  287.31        3350.00           6867          30.00       116.83
  287.34        3350.25           6870          25.00        95.03
  287.37        3350.50           6874          35.00       138.62
  287.39        3350.75           6878          32.00       125.55
  287.42        3351.00           6882          27.00       103.75
HL scan finished at 04:48:03
end
