************************************************************
  HL Scan of (1) Internal mercury lamp
************************************************************
Integration time is 0.2294 seconds per sample
dh261218Tamanrasset 22.79-5.529 4.974364pr865
************************************************************
Dead Time -------------------------  2.8E-08 
Number of Cycles Used -------------  4 
Starting Wavelength (Angstroms) ---  3331 
Final Wavelength (Angstoms) -------  3351 
Wavelength Increment (Angstroms) --  .25 
Filter Wheel #1 Position ---------- (1) Ground quartz diffuser (ND=2.32)
Filter Wheel #2 Position ---------- (0) Clear Aperture



************************************************************
HL scan start time = 04:42:56
Dark Count =  4 


Time (GMT)  Wavelength (Ang)  Step Number  Raw Counts  Counts/Second

  283.45        3331.00           6581          31.00       117.70
  283.66        3331.25           6585          26.00        95.90
  283.69        3331.50           6589          32.00       122.06
  283.72        3331.75           6593          25.00        91.54
  283.75        3332.00           6596          28.00       104.62
  283.77        3332.25           6600          27.00       100.26
  283.80        3332.50           6604          29.00       108.98
  283.83        3332.75           6608          26.00        95.90
  283.85        3333.00           6611          29.00       108.98
  283.88        3333.25           6615          27.00       100.26
  283.91        3333.50           6619          29.00       108.98
  283.94        3333.75           6623          32.00       122.06
  283.96        3334.00           6626          28.00       104.62
  283.99        3334.25           6630          27.00       100.26
  284.02        3334.50           6634          27.00       100.26
  284.05        3334.75           6638          27.00       100.26
  284.07        3335.00           6641          31.00       117.70
  284.10        3335.25           6645          30.00       113.34
  284.13        3335.50           6649          35.00       135.14
  284.15        3335.75           6653          33.00       126.42
  284.18        3336.00           6656          47.00       187.45
  284.21        3336.25           6660         134.00       566.70
  284.24        3336.50           6664         415.00      1791.72
  284.26        3336.75           6668         701.00      3038.62
  284.29        3337.00           6671        1216.00      5284.13
  284.32        3337.25           6675        2274.00      9898.12
  284.34        3337.50           6679        3569.00     15547.31
  284.37        3337.75           6683        4765.00     20766.21
  284.40        3338.00           6686        5875.00     25611.21
  284.43        3338.25           6690        7186.00     31335.24
  284.45        3338.50           6694        8542.00     37257.68
  284.48        3338.75           6698        9956.00     43435.53
  284.51        3339.00           6701       10969.00     47862.71
  284.54        3339.25           6705       12327.00     53799.38
  284.56        3339.50           6709       13759.00     60061.69
  284.59        3339.75           6713       14885.00     64987.37
  284.62        3340.00           6716       16141.00     70483.35
  284.64        3340.25           6720       17418.00     76072.95
  284.67        3340.50           6724       18928.00     82684.68
  284.70        3340.75           6728       20098.00     87809.35
  284.73        3341.00           6731       21086.00     92138.00
  284.75        3341.25           6735       22290.00     97414.43
  284.78        3341.50           6739       23208.00    101438.50
  284.81        3341.75           6743       23612.00    103209.80
  284.84        3342.00           6746       23779.00    103942.00
  284.86        3342.25           6750       23574.00    103043.20
  284.89        3342.50           6754       22955.00    100329.40
  284.92        3342.75           6758       21705.00     94850.52
  284.95        3343.00           6761       20750.00     90665.80
  284.97        3343.25           6765       19286.00     84252.58
  285.00        3343.50           6769       18118.00     79137.68
  285.03        3343.75           6773       16642.00     72676.08
  285.05        3344.00           6776       15679.00     68461.54
  285.08        3344.25           6780       14456.00     63110.56
  285.11        3344.50           6784       13087.00     57122.68
  285.14        3344.75           6788       11568.00     50481.07
  285.16        3345.00           6791       10492.00     45777.91
  285.19        3345.25           6795        9196.00     40114.78
  285.22        3345.50           6799        7387.00     32213.00
  285.25        3345.75           6803        5470.00     23843.29
  285.27        3346.00           6806        4286.00     18675.85
  285.30        3346.25           6810        3204.00     13954.89
  285.33        3346.50           6814        2494.00     10857.70
  285.36        3346.75           6818        1644.00      7150.52
  285.38        3347.00           6821         988.00      4289.97
  285.41        3347.25           6825         359.00      1547.58
  285.44        3347.50           6829          90.00       374.89
  285.46        3347.75           6833          37.00       143.85
  285.49        3348.00           6836          29.00       108.98
  285.52        3348.25           6840          35.00       135.14
  285.55        3348.50           6844          26.00        95.90
  285.57        3348.75           6848          34.00       130.78
  285.60        3349.00           6851          32.00       122.06
  285.63        3349.25           6855          30.00       113.34
  285.65        3349.50           6859          31.00       117.70
  285.68        3349.75           6863          30.00       113.34
  285.71        3350.00           6867          31.00       117.70
  285.74        3350.25           6870          27.00       100.26
  285.76        3350.50           6874          28.00       104.62
  285.79        3350.75           6878          31.00       117.70
  285.82        3351.00           6882          26.00        95.90
HL scan finished at 04:46:26
end
