************************************************************
  HL Scan of (1) Internal mercury lamp
************************************************************
Integration time is 0.2294 seconds per sample
dh271218Tamanrasset 22.79-5.529 4.974364pr865
************************************************************
Dead Time -------------------------  2.8E-08 
Number of Cycles Used -------------  4 
Starting Wavelength (Angstroms) ---  3331 
Final Wavelength (Angstoms) -------  3351 
Wavelength Increment (Angstroms) --  .25 
Filter Wheel #1 Position ---------- (1) Ground quartz diffuser (ND=2.32)
Filter Wheel #2 Position ---------- (0) Clear Aperture



************************************************************
HL scan start time = 04:44:28
Dark Count =  5.3 


Time (GMT)  Wavelength (Ang)  Step Number  Raw Counts  Counts/Second

  284.97        3331.00           6581          27.00        94.59
  285.19        3331.25           6585          28.00        98.95
  285.22        3331.50           6589          28.00        98.95
  285.24        3331.75           6593          29.00       103.31
  285.27        3332.00           6596          23.00        77.16
  285.30        3332.25           6600          26.00        90.24
  285.33        3332.50           6604          28.00        98.95
  285.35        3332.75           6608          25.00        85.88
  285.38        3333.00           6611          24.00        81.52
  285.41        3333.25           6615          31.00       112.03
  285.43        3333.50           6619          30.00       107.67
  285.46        3333.75           6623          27.00        94.59
  285.49        3334.00           6626          26.00        90.24
  285.52        3334.25           6630          30.00       107.67
  285.54        3334.50           6634          33.00       120.75
  285.57        3334.75           6638          28.00        98.95
  285.60        3335.00           6641          26.00        90.24
  285.62        3335.25           6645          32.00       116.39
  285.65        3335.50           6649          35.00       129.47
  285.68        3335.75           6653          29.00       103.31
  285.71        3336.00           6656          45.00       173.06
  285.73        3336.25           6660         166.00       700.54
  285.76        3336.50           6664         500.00      2156.63
  285.79        3336.75           6668         790.00      3420.99
  285.81        3337.00           6671        1326.00      5758.12
  285.84        3337.25           6675        2454.00     10677.56
  285.87        3337.50           6679        3753.00     16344.44
  285.90        3337.75           6683        4996.00     21768.72
  285.92        3338.00           6686        6083.00     26513.58
  285.95        3338.25           6690        7435.00     32416.95
  285.98        3338.50           6694        8872.00     38693.60
  286.01        3338.75           6698       10201.00     44500.49
  286.03        3339.00           6701       11162.00     48700.64
  286.06        3339.25           6705       12611.00     55035.49
  286.09        3339.50           6709       13956.00     60917.69
  286.12        3339.75           6713       15373.00     67116.86
  286.14        3340.00           6716       16421.00     71703.10
  286.17        3340.25           6720       17852.00     77967.32
  286.20        3340.50           6724       19133.00     83576.79
  286.22        3340.75           6728       20488.00     89512.21
  286.25        3341.00           6731       21524.00     94051.62
  286.28        3341.25           6735       22639.00     98938.49
  286.31        3341.50           6739       23436.00    102432.40
  286.33        3341.75           6743       24042.00    105089.50
  286.36        3342.00           6746       24161.00    105611.30
  286.39        3342.25           6750       23606.00    103177.80
  286.42        3342.50           6754       23048.00    100731.40
  286.44        3342.75           6758       21689.00     94774.71
  286.47        3343.00           6761       20851.00     91102.63
  286.50        3343.25           6765       19528.00     85306.84
  286.53        3343.50           6769       18118.00     79131.98
  286.55        3343.75           6773       16843.00     73550.18
  286.58        3344.00           6776       15567.00     67965.75
  286.61        3344.25           6780       14296.00     62404.94
  286.63        3344.50           6784       12999.00     56732.16
  286.66        3344.75           6788       11580.00     50527.85
  286.69        3345.00           6791       10516.00     45877.12
  286.72        3345.25           6795        9101.00     39694.05
  286.74        3345.50           6799        7352.00     32054.48
  286.77        3345.75           6803        5433.00     23676.11
  286.80        3346.00           6806        4234.00     18443.26
  286.83        3346.25           6810        3277.00     14267.69
  286.85        3346.50           6814        2416.00     10511.81
  286.88        3346.75           6818        1516.00      6586.66
  286.91        3347.00           6821         898.00      3891.88
  286.93        3347.25           6825         284.00      1214.95
  286.96        3347.50           6829          71.00       286.40
  286.99        3347.75           6833          33.00       120.75
  287.02        3348.00           6836          31.00       112.03
  287.04        3348.25           6840          26.00        90.24
  287.07        3348.50           6844          29.00       103.31
  287.10        3348.75           6848          36.00       133.83
  287.12        3349.00           6851          29.00       103.31
  287.15        3349.25           6855          25.00        85.88
  287.18        3349.50           6859          25.00        85.88
  287.21        3349.75           6863          30.00       107.67
  287.23        3350.00           6867          30.00       107.67
  287.26        3350.25           6870          32.00       116.39
  287.29        3350.50           6874          24.00        81.52
  287.31        3350.75           6878          26.00        90.24
  287.34        3351.00           6882          27.00        94.59
HL scan finished at 04:47:58
end
