************************************************************
  HS Scan of (1) Internal mercury lamp
************************************************************
Integration time is 0.2294 seconds per sample
dh090119Tamanrasset 22.79-5.529 4.974364pr865
************************************************************
Dead Time -------------------------  2.8E-08 
Number of Cycles Used -------------  4 
Starting Wavelength (Angstroms) ---  2950 
Final Wavelength (Angstoms) -------  2984 
Wavelength Increment (Angstroms) --  .25 
Filter Wheel #1 Position ---------- (1) Ground quartz diffuser (ND=2.32)
Filter Wheel #2 Position ---------- (1) Neutral Density 0.494



************************************************************
HS scan start time = 04:32:26
Dark Count =  2.4 


Time (GMT)  Wavelength (Ang)  Step Number  Raw Counts  Counts/Second

  272.80        2950.00           1233          20.00        76.72
  272.86        2950.25           1236          20.00        76.72
  272.89        2950.50           1239          23.00        89.80
  272.91        2950.75           1242          21.00        81.08
  272.94        2951.00           1246          17.00        63.64
  272.97        2951.25           1249          20.00        76.72
  273.00        2951.50           1252          18.00        68.00
  273.02        2951.75           1256          21.00        81.08
  273.05        2952.00           1259          19.00        72.36
  273.08        2952.25           1262          19.00        72.36
  273.10        2952.50           1266          25.00        98.52
  273.13        2952.75           1269          18.00        68.00
  273.16        2953.00           1272          19.00        72.36
  273.19        2953.25           1276          21.00        81.08
  273.21        2953.50           1279          19.00        72.36
  273.24        2953.75           1282          15.00        54.93
  273.27        2954.00           1286          23.00        89.80
  273.30        2954.25           1289          15.00        54.93
  273.32        2954.50           1292          16.00        59.29
  273.35        2954.75           1295          18.00        68.00
  273.38        2955.00           1299          20.00        76.72
  273.40        2955.25           1302          25.00        98.52
  273.43        2955.50           1305          16.00        59.29
  273.46        2955.75           1309          15.00        54.93
  273.49        2956.00           1312          16.00        59.29
  273.51        2956.25           1315          18.00        68.00
  273.54        2956.50           1319          22.00        85.44
  273.57        2956.75           1322          19.00        72.36
  273.59        2957.00           1325          19.00        72.36
  273.62        2957.25           1329          22.00        85.44
  273.65        2957.50           1332          20.00        76.72
  273.68        2957.75           1335          19.00        72.36
  273.70        2958.00           1339          16.00        59.29
  273.73        2958.25           1342          15.00        54.93
  273.76        2958.50           1345          15.00        54.93
  273.78        2958.75           1348          18.00        68.00
  273.81        2959.00           1352          23.00        89.80
  273.84        2959.25           1355          21.00        81.08
  273.87        2959.50           1358          19.00        72.36
  273.89        2959.75           1362          17.00        63.64
  273.92        2960.00           1365          20.00        76.72
  273.95        2960.25           1368          25.00        98.52
  273.97        2960.50           1372          27.00       107.24
  274.00        2960.75           1375          34.00       137.75
  274.03        2961.00           1378          73.00       307.76
  274.06        2961.25           1382         371.00      1606.87
  274.08        2961.50           1385         893.00      3882.72
  274.11        2961.75           1388        1838.00      8003.54
  274.14        2962.00           1392        3941.00     17177.40
  274.16        2962.25           1395        5835.00     25443.58
  274.19        2962.50           1398        7952.00     34687.56
  274.22        2962.75           1402       10561.00     46086.46
  274.25        2963.00           1405       12820.00     55962.08
  274.27        2963.25           1408       14859.00     64880.62
  274.30        2963.50           1412       17496.00     76421.41
  274.33        2963.75           1415       19722.00     86169.30
  274.36        2964.00           1418       21907.00     95742.81
  274.38        2964.25           1422       24877.00    108764.00
  274.41        2964.50           1425       26659.00    116581.30
  274.44        2964.75           1428       29033.00    127001.00
  274.47        2965.00           1431       30929.00    135327.00
  274.49        2965.25           1435       34024.00    148926.60
  274.52        2965.50           1438       36289.00    158885.80
  274.55        2965.75           1441       38364.00    168014.40
  274.57        2966.00           1445       41249.00    180714.20
  274.60        2966.25           1448       42989.00    188378.10
  274.63        2966.50           1451       44280.00    194066.50
  274.66        2966.75           1455       45361.00    198831.00
  274.68        2967.00           1458       45949.00    201423.10
  274.71        2967.25           1461       46105.00    202110.90
  274.74        2967.50           1465       46011.00    201696.50
  274.77        2967.75           1468       45507.00    199474.60
  274.79        2968.00           1471       44678.00    195820.60
  274.82        2968.25           1475       42879.00    187893.50
  274.85        2968.50           1478       40951.00    179402.00
  274.88        2968.75           1481       38983.00    170738.50
  274.90        2969.00           1485       36243.00    158683.50
  274.93        2969.25           1488       34149.00    149476.10
  274.96        2969.50           1491       31707.00    138744.60
  274.98        2969.75           1495       28914.00    126478.50
  275.01        2970.00           1498       26751.00    116985.00
  275.04        2970.25           1501       24526.00    107224.70
  275.07        2970.50           1505       21494.00     93932.87
  275.09        2970.75           1508       19305.00     84342.80
  275.12        2971.00           1511       17165.00     74972.40
  275.15        2971.25           1515       14348.00     62645.10
  275.18        2971.50           1518       12380.00     54038.11
  275.20        2971.75           1521       10233.00     44653.01
  275.23        2972.00           1525        7331.00     31975.43
  275.26        2972.25           1528        5316.00     23178.07
  275.29        2972.50           1531        3513.00     15309.96
  275.31        2972.75           1535        1611.00      7013.58
  275.34        2973.00           1538         671.00      2914.80
  275.37        2973.25           1541         237.00      1022.70
  275.39        2973.50           1545          54.00       224.94
  275.42        2973.75           1548          31.00       124.67
  275.45        2974.00           1551          30.00       120.31
  275.48        2974.25           1555          31.00       124.67
  275.50        2974.50           1558          23.00        89.80
  275.53        2974.75           1561          18.00        68.00
  275.56        2975.00           1565          22.00        85.44
  275.58        2975.25           1568          21.00        81.08
  275.61        2975.50           1571          20.00        76.72
  275.64        2975.75           1575          21.00        81.08
  275.67        2976.00           1578          28.00       111.60
  275.69        2976.25           1581          20.00        76.72
  275.72        2976.50           1585          22.00        85.44
  275.75        2976.75           1588          22.00        85.44
  275.77        2977.00           1591          26.00       102.88
  275.80        2977.25           1595          21.00        81.08
  275.83        2977.50           1598          19.00        72.36
  275.85        2977.75           1601          16.00        59.29
  275.88        2978.00           1605          21.00        81.08
  275.91        2978.25           1608          17.00        63.64
  275.94        2978.50           1611          21.00        81.08
  275.96        2978.75           1615          19.00        72.36
  275.99        2979.00           1618          21.00        81.08
  276.02        2979.25           1621          17.00        63.64
  276.05        2979.50           1625          22.00        85.44
  276.07        2979.75           1628          22.00        85.44
  276.10        2980.00           1631          20.00        76.72
  276.13        2980.25           1635          20.00        76.72
  276.15        2980.50           1638          19.00        72.36
  276.18        2980.75           1641          20.00        76.72
  276.21        2981.00           1645          18.00        68.00
  276.24        2981.25           1648          17.00        63.64
  276.26        2981.50           1651          22.00        85.44
  276.29        2981.75           1655          18.00        68.00
  276.32        2982.00           1658          23.00        89.80
  276.34        2982.25           1661          20.00        76.72
  276.37        2982.50           1665          21.00        81.08
  276.40        2982.75           1668          19.00        72.36
  276.43        2983.00           1671          23.00        89.80
  276.45        2983.25           1675          18.00        68.00
  276.48        2983.50           1678          16.00        59.29
  276.51        2983.75           1681          23.00        89.80
  276.53        2984.00           1685          15.00        54.93
HS scan finished at 04:36:43
end
