************************************************************
  HS Scan of (1) Internal mercury lamp
************************************************************
Integration time is 0.2294 seconds per sample
dh070119Tamanrasset 22.79-5.529 4.974364pr865
************************************************************
Dead Time -------------------------  2.8E-08 
Number of Cycles Used -------------  4 
Starting Wavelength (Angstroms) ---  2950 
Final Wavelength (Angstoms) -------  2984 
Wavelength Increment (Angstroms) --  .25 
Filter Wheel #1 Position ---------- (1) Ground quartz diffuser (ND=2.32)
Filter Wheel #2 Position ---------- (1) Neutral Density 0.494



************************************************************
HS scan start time = 04:30:30
Dark Count =  3.1 


Time (GMT)  Wavelength (Ang)  Step Number  Raw Counts  Counts/Second

  270.86        2950.00           1233          23.00        86.75
  270.92        2950.25           1236          18.00        64.95
  270.95        2950.50           1239          20.00        73.67
  270.98        2950.75           1242          23.00        86.75
  271.00        2951.00           1246          23.00        86.75
  271.03        2951.25           1249          20.00        73.67
  271.06        2951.50           1252          17.00        60.59
  271.09        2951.75           1256          18.00        64.95
  271.11        2952.00           1259          19.00        69.31
  271.14        2952.25           1262          17.00        60.59
  271.17        2952.50           1266          21.00        78.03
  271.20        2952.75           1269          22.00        82.39
  271.22        2953.00           1272          15.00        51.87
  271.25        2953.25           1276          22.00        82.39
  271.28        2953.50           1279          20.00        73.67
  271.30        2953.75           1282          19.00        69.31
  271.33        2954.00           1286          19.00        69.31
  271.36        2954.25           1289          21.00        78.03
  271.39        2954.50           1292          19.00        69.31
  271.41        2954.75           1295          17.00        60.59
  271.44        2955.00           1299          20.00        73.67
  271.47        2955.25           1302          24.00        91.11
  271.49        2955.50           1305          20.00        73.67
  271.52        2955.75           1309          20.00        73.67
  271.55        2956.00           1312          22.00        82.39
  271.58        2956.25           1315          19.00        69.31
  271.60        2956.50           1319          20.00        73.67
  271.63        2956.75           1322          21.00        78.03
  271.66        2957.00           1325          20.00        73.67
  271.68        2957.25           1329          15.00        51.87
  271.71        2957.50           1332          18.00        64.95
  271.74        2957.75           1335          19.00        69.31
  271.77        2958.00           1339          20.00        73.67
  271.79        2958.25           1342          19.00        69.31
  271.82        2958.50           1345          23.00        86.75
  271.85        2958.75           1348          23.00        86.75
  271.87        2959.00           1352          19.00        69.31
  271.90        2959.25           1355          20.00        73.67
  271.93        2959.50           1358          21.00        78.03
  271.96        2959.75           1362          23.00        86.75
  271.98        2960.00           1365          18.00        64.95
  272.01        2960.25           1368          22.00        82.39
  272.04        2960.50           1372          31.00       121.62
  272.06        2960.75           1375          24.00        91.11
  272.09        2961.00           1378          62.00       256.76
  272.12        2961.25           1382         324.00      1398.92
  272.15        2961.50           1385         810.00      3517.78
  272.17        2961.75           1388        1804.00      7852.21
  272.20        2962.00           1392        3758.00     16375.86
  272.23        2962.25           1395        5618.00     24493.26
  272.25        2962.50           1398        7623.00     33247.59
  272.28        2962.75           1402       10318.00     45021.41
  272.31        2963.00           1405       12293.00     53654.66
  272.34        2963.25           1408       14633.00     63888.83
  272.36        2963.50           1412       17204.00     75140.06
  272.39        2963.75           1415       19386.00     84694.51
  272.42        2964.00           1418       21619.00     94477.59
  272.45        2964.25           1422       24061.00    105182.50
  272.47        2964.50           1425       26252.00    114792.50
  272.50        2964.75           1428       28727.00    125654.50
  272.53        2965.00           1431       30824.00    134862.70
  272.55        2965.25           1435       33568.00    146919.20
  272.58        2965.50           1438       35735.00    156446.20
  272.61        2965.75           1441       37945.00    166167.60
  272.64        2966.00           1445       40682.00    178214.50
  272.66        2966.25           1448       42599.00    186657.00
  272.69        2966.50           1451       43861.00    192217.00
  272.72        2966.75           1455       45275.00    198448.80
  272.75        2967.00           1458       45822.00    200860.10
  272.77        2967.25           1461       45931.00    201340.70
  272.80        2967.50           1465       45717.00    200397.30
  272.83        2967.75           1468       45289.00    198510.50
  272.86        2968.00           1471       44674.00    195799.80
  272.88        2968.25           1475       42717.00    187176.80
  272.91        2968.50           1478       41083.00    179980.10
  272.94        2968.75           1481       39059.00    171069.90
  272.96        2969.00           1485       36120.00    158139.40
  272.99        2969.25           1488       33846.00    148141.10
  273.02        2969.50           1491       31584.00    138201.20
  273.05        2969.75           1495       28685.00    125470.10
  273.07        2970.00           1498       26470.00    115749.00
  273.10        2970.25           1501       24188.00    105739.40
  273.13        2970.50           1505       21349.00     93294.40
  273.16        2970.75           1508       19282.00     84239.00
  273.18        2971.00           1511       16984.00     74177.02
  273.21        2971.25           1515       14310.00     62475.81
  273.24        2971.50           1518       12098.00     52802.07
  273.27        2971.75           1521       10043.00     43819.65
  273.29        2972.00           1525        7227.00     31518.21
  273.32        2972.25           1528        5242.00     22852.02
  273.35        2972.50           1531        3404.00     14831.35
  273.38        2972.75           1535        1506.00      6552.64
  273.40        2973.00           1538         633.00      2746.07
  273.43        2973.25           1541         226.00       971.69
  273.46        2973.50           1545          53.00       217.53
  273.48        2973.75           1548          34.00       134.70
  273.51        2974.00           1551          31.00       121.62
  273.54        2974.25           1555          21.00        78.03
  273.57        2974.50           1558          24.00        91.11
  273.59        2974.75           1561          18.00        64.95
  273.62        2975.00           1565          20.00        73.67
  273.65        2975.25           1568          26.00        99.83
  273.67        2975.50           1571          21.00        78.03
  273.70        2975.75           1575          21.00        78.03
  273.73        2976.00           1578          20.00        73.67
  273.76        2976.25           1581          21.00        78.03
  273.78        2976.50           1585          24.00        91.11
  273.81        2976.75           1588          19.00        69.31
  273.84        2977.00           1591          20.00        73.67
  273.86        2977.25           1595          17.00        60.59
  273.89        2977.50           1598          23.00        86.75
  273.92        2977.75           1601          16.00        56.23
  273.95        2978.00           1605          21.00        78.03
  273.97        2978.25           1608          25.00        95.47
  274.00        2978.50           1611          18.00        64.95
  274.03        2978.75           1615          19.00        69.31
  274.05        2979.00           1618          23.00        86.75
  274.08        2979.25           1621          23.00        86.75
  274.11        2979.50           1625          20.00        73.67
  274.14        2979.75           1628          20.00        73.67
  274.16        2980.00           1631          22.00        82.39
  274.19        2980.25           1635          23.00        86.75
  274.22        2980.50           1638          18.00        64.95
  274.24        2980.75           1641          17.00        60.59
  274.27        2981.00           1645          21.00        78.03
  274.30        2981.25           1648          18.00        64.95
  274.33        2981.50           1651          19.00        69.31
  274.35        2981.75           1655          18.00        64.95
  274.38        2982.00           1658          18.00        64.95
  274.41        2982.25           1661          19.00        69.31
  274.43        2982.50           1665          17.00        60.59
  274.46        2982.75           1668          19.00        69.31
  274.49        2983.00           1671          16.00        56.23
  274.52        2983.25           1675          18.00        64.95
  274.54        2983.50           1678          20.00        73.67
  274.57        2983.75           1681          21.00        78.03
  274.60        2984.00           1685          18.00        64.95
HS scan finished at 04:34:47
end
