************************************************************
  HS Scan of (1) Internal mercury lamp
************************************************************
Integration time is 0.2294 seconds per sample
dh050119Tamanrasset 22.79-5.529 4.974364pr865
************************************************************
Dead Time -------------------------  2.8E-08 
Number of Cycles Used -------------  4 
Starting Wavelength (Angstroms) ---  2950 
Final Wavelength (Angstoms) -------  2984 
Wavelength Increment (Angstroms) --  .25 
Filter Wheel #1 Position ---------- (1) Ground quartz diffuser (ND=2.32)
Filter Wheel #2 Position ---------- (1) Neutral Density 0.494



************************************************************
HS scan start time = 04:30:30
Dark Count =  4 


Time (GMT)  Wavelength (Ang)  Step Number  Raw Counts  Counts/Second

  270.85        2950.00           1233          17.00        56.67
  270.92        2950.25           1236          21.00        74.11
  270.94        2950.50           1239          18.00        61.03
  270.97        2950.75           1242          20.00        69.75
  271.00        2951.00           1246          24.00        87.18
  271.02        2951.25           1249          20.00        69.75
  271.05        2951.50           1252          22.00        78.47
  271.08        2951.75           1256          23.00        82.82
  271.11        2952.00           1259          21.00        74.11
  271.13        2952.25           1262          20.00        69.75
  271.16        2952.50           1266          20.00        69.75
  271.19        2952.75           1269          22.00        78.47
  271.22        2953.00           1272          17.00        56.67
  271.24        2953.25           1276          16.00        52.31
  271.27        2953.50           1279          22.00        78.47
  271.30        2953.75           1282          18.00        61.03
  271.32        2954.00           1286          22.00        78.47
  271.35        2954.25           1289          26.00        95.90
  271.38        2954.50           1292          17.00        56.67
  271.41        2954.75           1295          22.00        78.47
  271.43        2955.00           1299          20.00        69.75
  271.46        2955.25           1302          12.00        34.87
  271.49        2955.50           1305          22.00        78.47
  271.51        2955.75           1309          20.00        69.75
  271.54        2956.00           1312          20.00        69.75
  271.57        2956.25           1315          19.00        65.39
  271.60        2956.50           1319          21.00        74.11
  271.62        2956.75           1322          17.00        56.67
  271.65        2957.00           1325          20.00        69.75
  271.68        2957.25           1329          19.00        65.39
  271.70        2957.50           1332          22.00        78.47
  271.73        2957.75           1335          22.00        78.47
  271.76        2958.00           1339          21.00        74.11
  271.79        2958.25           1342          21.00        74.11
  271.81        2958.50           1345          17.00        56.67
  271.84        2958.75           1348          20.00        69.75
  271.87        2959.00           1352          23.00        82.82
  271.89        2959.25           1355          23.00        82.82
  271.92        2959.50           1358          22.00        78.47
  271.95        2959.75           1362          23.00        82.82
  271.97        2960.00           1365          20.00        69.75
  272.00        2960.25           1368          20.00        69.75
  272.03        2960.50           1372          27.00       100.26
  272.06        2960.75           1375          32.00       122.06
  272.08        2961.00           1378          74.00       305.15
  272.11        2961.25           1382         379.00      1634.77
  272.14        2961.50           1385         953.00      4137.36
  272.17        2961.75           1388        2054.00      8938.59
  272.19        2962.00           1392        4158.00     18117.30
  272.22        2962.25           1395        5977.00     26056.49
  272.25        2962.50           1398        7983.00     34815.97
  272.28        2962.75           1402       10692.00     46652.01
  272.30        2963.00           1405       12839.00     56038.17
  272.33        2963.25           1408       14875.00     64943.62
  272.36        2963.50           1412       17567.00     76725.25
  272.38        2963.75           1415       19737.00     86227.99
  272.41        2964.00           1418       21955.00     95946.16
  272.44        2964.25           1422       24718.00    108059.70
  272.47        2964.50           1425       26913.00    117688.80
  272.49        2964.75           1428       29250.00    127946.70
  272.52        2965.00           1431       31078.00    135974.40
  272.55        2965.25           1435       34297.00    150119.70
  272.58        2965.50           1438       36285.00    158861.10
  272.60        2965.75           1441       38407.00    168196.50
  272.63        2966.00           1445       41437.00    181535.10
  272.66        2966.25           1448       42983.00    188344.60
  272.69        2966.50           1451       44336.00    194306.20
  272.71        2966.75           1455       45557.00    199687.90
  272.74        2967.00           1458       45826.00    200873.80
  272.77        2967.25           1461       46019.00    201724.70
  272.79        2967.50           1465       45790.00    200715.10
  272.82        2967.75           1468       45187.00    198056.90
  272.85        2968.00           1471       44549.00    195244.90
  272.88        2968.25           1475       42605.00    186679.40
  272.90        2968.50           1478       40798.00    178721.20
  272.93        2968.75           1481       38614.00    169107.50
  272.96        2969.00           1485       35742.00    156473.10
  272.99        2969.25           1488       33649.00    147271.30
  273.01        2969.50           1491       31110.00    136115.00
  273.04        2969.75           1495       28367.00    124070.20
  273.07        2970.00           1498       26253.00    114793.00
  273.09        2970.25           1501       24141.00    105529.30
  273.12        2970.50           1505       21420.00     93601.58
  273.15        2970.75           1508       19002.00     83008.76
  273.18        2971.00           1511       16819.00     73450.82
  273.20        2971.25           1515       14046.00     61317.05
  273.23        2971.50           1518       11855.00     51735.75
  273.26        2971.75           1521        9796.00     42736.38
  273.29        2972.00           1525        7132.00     31099.43
  273.31        2972.25           1528        5156.00     22472.73
  273.34        2972.50           1531        3324.00     14478.40
  273.37        2972.75           1535        1372.00      5964.38
  273.39        2973.00           1538         597.00      2585.19
  273.42        2973.25           1541         188.00       802.11
  273.45        2973.50           1545          48.00       191.81
  273.48        2973.75           1548          37.00       143.85
  273.50        2974.00           1551          28.00       104.62
  273.53        2974.25           1555          24.00        87.18
  273.56        2974.50           1558          26.00        95.90
  273.58        2974.75           1561          18.00        61.03
  273.61        2975.00           1565          22.00        78.47
  273.64        2975.25           1568          19.00        65.39
  273.67        2975.50           1571          20.00        69.75
  273.69        2975.75           1575          22.00        78.47
  273.72        2976.00           1578          20.00        69.75
  273.75        2976.25           1581          21.00        74.11
  273.77        2976.50           1585          26.00        95.90
  273.80        2976.75           1588          19.00        65.39
  273.83        2977.00           1591          17.00        56.67
  273.86        2977.25           1595          24.00        87.18
  273.88        2977.50           1598          21.00        74.11
  273.91        2977.75           1601          19.00        65.39
  273.94        2978.00           1605          21.00        74.11
  273.96        2978.25           1608          20.00        69.75
  273.99        2978.50           1611          21.00        74.11
  274.02        2978.75           1615          24.00        87.18
  274.05        2979.00           1618          22.00        78.47
  274.07        2979.25           1621          24.00        87.18
  274.10        2979.50           1625          24.00        87.18
  274.13        2979.75           1628          22.00        78.47
  274.16        2980.00           1631          20.00        69.75
  274.18        2980.25           1635          21.00        74.11
  274.21        2980.50           1638          24.00        87.18
  274.24        2980.75           1641          19.00        65.39
  274.26        2981.00           1645          18.00        61.03
  274.29        2981.25           1648          18.00        61.03
  274.32        2981.50           1651          16.00        52.31
  274.35        2981.75           1655          24.00        87.18
  274.37        2982.00           1658          21.00        74.11
  274.40        2982.25           1661          23.00        82.82
  274.43        2982.50           1665          19.00        65.39
  274.45        2982.75           1668          17.00        56.67
  274.48        2983.00           1671          19.00        65.39
  274.51        2983.25           1675          20.00        69.75
  274.54        2983.50           1678          19.00        65.39
  274.56        2983.75           1681          19.00        65.39
  274.59        2984.00           1685          22.00        78.47
HS scan finished at 04:34:47
end
