************************************************************
  HS Scan of (1) Internal mercury lamp
************************************************************
Integration time is 0.2294 seconds per sample
dh080119Tamanrasset 22.79-5.529 4.974364pr865
************************************************************
Dead Time -------------------------  2.8E-08 
Number of Cycles Used -------------  4 
Starting Wavelength (Angstroms) ---  2950 
Final Wavelength (Angstoms) -------  2984 
Wavelength Increment (Angstroms) --  .25 
Filter Wheel #1 Position ---------- (1) Ground quartz diffuser (ND=2.32)
Filter Wheel #2 Position ---------- (1) Neutral Density 0.494



************************************************************
HS scan start time = 04:31:40
Dark Count =  6.4 


Time (GMT)  Wavelength (Ang)  Step Number  Raw Counts  Counts/Second

  272.02        2950.00           1233          23.00        72.36
  272.08        2950.25           1236          16.00        41.85
  272.11        2950.50           1239          16.00        41.85
  272.14        2950.75           1242          19.00        54.93
  272.17        2951.00           1246          20.00        59.29
  272.19        2951.25           1249          18.00        50.57
  272.22        2951.50           1252          19.00        54.93
  272.25        2951.75           1256          22.00        68.00
  272.27        2952.00           1259          19.00        54.93
  272.30        2952.25           1262          17.00        46.21
  272.33        2952.50           1266          20.00        59.29
  272.36        2952.75           1269          17.00        46.21
  272.38        2953.00           1272          22.00        68.00
  272.41        2953.25           1276          18.00        50.57
  272.44        2953.50           1279          21.00        63.64
  272.46        2953.75           1282          23.00        72.36
  272.49        2954.00           1286          21.00        63.64
  272.52        2954.25           1289          21.00        63.64
  272.55        2954.50           1292          21.00        63.64
  272.57        2954.75           1295          21.00        63.64
  272.60        2955.00           1299          18.00        50.57
  272.63        2955.25           1302          20.00        59.29
  272.65        2955.50           1305          23.00        72.36
  272.68        2955.75           1309          24.00        76.72
  272.71        2956.00           1312          21.00        63.64
  272.74        2956.25           1315          20.00        59.29
  272.76        2956.50           1319          24.00        76.72
  272.79        2956.75           1322          22.00        68.00
  272.82        2957.00           1325          15.00        37.49
  272.84        2957.25           1329          19.00        54.93
  272.87        2957.50           1332          19.00        54.93
  272.90        2957.75           1335          24.00        76.72
  272.93        2958.00           1339          23.00        72.36
  272.95        2958.25           1342          21.00        63.64
  272.98        2958.50           1345          21.00        63.64
  273.01        2958.75           1348          22.00        68.00
  273.03        2959.00           1352          16.00        41.85
  273.06        2959.25           1355          16.00        41.85
  273.09        2959.50           1358          23.00        72.36
  273.12        2959.75           1362          26.00        85.44
  273.14        2960.00           1365          18.00        50.57
  273.17        2960.25           1368          22.00        68.00
  273.20        2960.50           1372          28.00        94.16
  273.23        2960.75           1375          34.00       120.31
  273.25        2961.00           1378          54.00       207.50
  273.28        2961.25           1382         259.00      1101.17
  273.31        2961.50           1385         681.00      2940.96
  273.33        2961.75           1388        1576.00      6843.51
  273.36        2962.00           1392        3357.00     14611.91
  273.39        2962.25           1395        5068.00     22078.16
  273.42        2962.50           1398        7297.00     31809.49
  273.44        2962.75           1402        9994.00     43591.10
  273.47        2963.00           1405       12281.00     53587.76
  273.50        2963.25           1408       14109.00     61582.12
  273.52        2963.50           1412       17161.00     74937.37
  273.55        2963.75           1415       19200.00     83865.41
  273.58        2964.00           1418       21239.00     92797.92
  273.61        2964.25           1422       24022.00    104997.00
  273.63        2964.50           1425       26198.00    114541.10
  273.66        2964.75           1428       28538.00    124810.30
  273.69        2965.00           1431       30587.00    133807.30
  273.72        2965.25           1435       33205.00    145309.30
  273.74        2965.50           1438       35420.00    155046.60
  273.77        2965.75           1441       37821.00    165607.50
  273.80        2966.00           1445       40560.00    177662.80
  273.83        2966.25           1448       42670.00    186955.20
  273.85        2966.50           1451       44094.00    193229.20
  273.88        2966.75           1455       45637.00    200030.00
  273.91        2967.00           1458       46281.00    202869.30
  273.93        2967.25           1461       46303.00    202966.30
  273.96        2967.50           1465       46371.00    203266.10
  273.99        2967.75           1468       46235.00    202666.40
  274.02        2968.00           1471       45319.00    198628.20
  274.04        2968.25           1475       43549.00    190827.70
  274.07        2968.50           1478       42083.00    184369.60
  274.10        2968.75           1481       40071.00    175509.90
  274.13        2969.00           1485       37247.00    163082.10
  274.15        2969.25           1488       34892.00    152725.00
  274.18        2969.50           1491       32562.00    142483.60
  274.21        2969.75           1495       29670.00    129780.30
  274.24        2970.00           1498       27331.00    119512.60
  274.26        2970.25           1501       25139.00    109895.60
  274.29        2970.50           1505       22212.00     97062.04
  274.32        2970.75           1508       19810.00     86537.25
  274.34        2971.00           1511       17845.00     77931.86
  274.37        2971.25           1515       15004.00     65497.52
  274.40        2971.50           1518       12835.00     56010.18
  274.43        2971.75           1521       10514.00     45863.57
  274.45        2972.00           1525        7980.00     34792.38
  274.48        2972.25           1528        5806.00     25299.52
  274.51        2972.50           1531        3783.00     16470.54
  274.54        2972.75           1535        1743.00      7571.79
  274.56        2973.00           1538         773.00      3342.07
  274.59        2973.25           1541         256.00      1088.09
  274.62        2973.50           1545          61.00       238.01
  274.65        2973.75           1548          40.00       146.47
  274.67        2974.00           1551          29.00        98.52
  274.70        2974.25           1555          24.00        76.72
  274.73        2974.50           1558          20.00        59.29
  274.75        2974.75           1561          21.00        63.64
  274.78        2975.00           1565          21.00        63.64
  274.81        2975.25           1568          19.00        54.93
  274.84        2975.50           1571          20.00        59.29
  274.86        2975.75           1575          17.00        46.21
  274.89        2976.00           1578          18.00        50.57
  274.92        2976.25           1581          16.00        41.85
  274.94        2976.50           1585          22.00        68.00
  274.97        2976.75           1588          18.00        50.57
  275.00        2977.00           1591          23.00        72.36
  275.03        2977.25           1595          21.00        63.64
  275.05        2977.50           1598          17.00        46.21
  275.08        2977.75           1601          17.00        46.21
  275.11        2978.00           1605          26.00        85.44
  275.13        2978.25           1608          23.00        72.36
  275.16        2978.50           1611          16.00        41.85
  275.19        2978.75           1615          21.00        63.64
  275.22        2979.00           1618          20.00        59.29
  275.24        2979.25           1621          26.00        85.44
  275.27        2979.50           1625          18.00        50.57
  275.30        2979.75           1628          23.00        72.36
  275.32        2980.00           1631          17.00        46.21
  275.35        2980.25           1635          19.00        54.93
  275.38        2980.50           1638          22.00        68.00
  275.41        2980.75           1641          21.00        63.64
  275.43        2981.00           1645          19.00        54.93
  275.46        2981.25           1648          22.00        68.00
  275.49        2981.50           1651          17.00        46.21
  275.51        2981.75           1655          18.00        50.57
  275.54        2982.00           1658          17.00        46.21
  275.57        2982.25           1661          19.00        54.93
  275.60        2982.50           1665          20.00        59.29
  275.62        2982.75           1668          18.00        50.57
  275.65        2983.00           1671          16.00        41.85
  275.68        2983.25           1675          22.00        68.00
  275.70        2983.50           1678          22.00        68.00
  275.73        2983.75           1681          21.00        63.64
  275.76        2984.00           1685          18.00        50.57
HS scan finished at 04:35:57
end
