************************************************************
  HS Scan of (1) Internal mercury lamp
************************************************************
Integration time is 0.2294 seconds per sample
dh020119Tamanrasset 22.79-5.529 4.974364pr865
************************************************************
Dead Time -------------------------  2.8E-08 
Number of Cycles Used -------------  4 
Starting Wavelength (Angstroms) ---  2950 
Final Wavelength (Angstoms) -------  2984 
Wavelength Increment (Angstroms) --  .25 
Filter Wheel #1 Position ---------- (1) Ground quartz diffuser (ND=2.32)
Filter Wheel #2 Position ---------- (1) Neutral Density 0.494



************************************************************
HS scan start time = 04:29:48
Dark Count =  5.9 


Time (GMT)  Wavelength (Ang)  Step Number  Raw Counts  Counts/Second

  270.15        2950.00           1233          18.00        52.75
  270.22        2950.25           1236          22.00        70.18
  270.24        2950.50           1239          19.00        57.11
  270.27        2950.75           1242          25.00        83.26
  270.30        2951.00           1246          25.00        83.26
  270.33        2951.25           1249          19.00        57.11
  270.35        2951.50           1252          24.00        78.90
  270.38        2951.75           1256          19.00        57.11
  270.41        2952.00           1259          19.00        57.11
  270.43        2952.25           1262          22.00        70.18
  270.46        2952.50           1266          19.00        57.11
  270.49        2952.75           1269          21.00        65.82
  270.52        2953.00           1272          20.00        61.46
  270.54        2953.25           1276          23.00        74.54
  270.57        2953.50           1279          18.00        52.75
  270.60        2953.75           1282          16.00        44.03
  270.62        2954.00           1286          20.00        61.46
  270.65        2954.25           1289          19.00        57.11
  270.68        2954.50           1292          21.00        65.82
  270.71        2954.75           1295          17.00        48.39
  270.73        2955.00           1299          16.00        44.03
  270.76        2955.25           1302          20.00        61.46
  270.79        2955.50           1305          20.00        61.46
  270.81        2955.75           1309          16.00        44.03
  270.84        2956.00           1312          17.00        48.39
  270.87        2956.25           1315          16.00        44.03
  270.90        2956.50           1319          19.00        57.11
  270.92        2956.75           1322          18.00        52.75
  270.95        2957.00           1325          19.00        57.11
  270.98        2957.25           1329          23.00        74.54
  271.00        2957.50           1332          20.00        61.46
  271.03        2957.75           1335          21.00        65.82
  271.06        2958.00           1339          19.00        57.11
  271.09        2958.25           1342          16.00        44.03
  271.11        2958.50           1345          18.00        52.75
  271.14        2958.75           1348          22.00        70.18
  271.17        2959.00           1352          16.00        44.03
  271.19        2959.25           1355          20.00        61.46
  271.22        2959.50           1358          19.00        57.11
  271.25        2959.75           1362          23.00        74.54
  271.28        2960.00           1365          26.00        87.62
  271.30        2960.25           1368          22.00        70.18
  271.33        2960.50           1372          26.00        87.62
  271.36        2960.75           1375          35.00       126.85
  271.39        2961.00           1378          89.00       362.25
  271.41        2961.25           1382         434.00      1866.27
  271.44        2961.50           1385        1086.00      4708.99
  271.47        2961.75           1388        2187.00      9510.38
  271.49        2962.00           1392        4305.00     18750.47
  271.52        2962.25           1395        6283.00     27384.11
  271.55        2962.50           1398        8294.00     36166.08
  271.58        2962.75           1402       10923.00     47653.34
  271.60        2963.00           1405       12936.00     56454.03
  271.63        2963.25           1408       15071.00     65792.85
  271.66        2963.50           1412       17872.00     78052.26
  271.69        2963.75           1415       19964.00     87214.02
  271.71        2964.00           1418       21963.00     95972.91
  271.74        2964.25           1422       24739.00    108143.40
  271.77        2964.50           1425       26818.00    117263.60
  271.80        2964.75           1428       29178.00    127622.20
  271.82        2965.00           1431       31244.00    136695.30
  271.85        2965.25           1435       34079.00    149153.00
  271.88        2965.50           1438       36564.00    160079.90
  271.90        2965.75           1441       38613.00    169094.70
  271.93        2966.00           1445       41168.00    180342.10
  271.96        2966.25           1448       42719.00    187173.30
  271.99        2966.50           1451       44071.00    193130.10
  272.01        2966.75           1455       45423.00    199088.90
  272.04        2967.00           1458       45757.00    200561.30
  272.07        2967.25           1461       45723.00    200411.40
  272.10        2967.50           1465       45853.00    200984.50
  272.12        2967.75           1468       45038.00    197391.80
  272.15        2968.00           1471       44290.00    194095.10
  272.18        2968.25           1475       42763.00    187367.10
  272.21        2968.50           1478       40647.00    178048.10
  272.23        2968.75           1481       38645.00    169235.60
  272.26        2969.00           1485       35830.00    156851.70
  272.29        2969.25           1488       33512.00    146660.80
  272.32        2969.50           1491       31324.00    137046.70
  272.34        2969.75           1495       28332.00    123908.20
  272.37        2970.00           1498       26232.00    114692.50
  272.40        2970.25           1501       24048.00    105113.20
  272.42        2970.50           1505       21227.00     92747.52
  272.45        2970.75           1508       19098.00     83420.87
  272.48        2971.00           1511       16955.00     74037.81
  272.51        2971.25           1515       14113.00     61601.81
  272.53        2971.50           1518       11771.00     51360.21
  272.56        2971.75           1521        9820.00     42832.95
  272.59        2972.00           1525        7033.00     30658.83
  272.62        2972.25           1528        5105.00     22241.84
  272.64        2972.50           1531        3216.00     13998.95
  272.67        2972.75           1535        1405.00      6100.00
  272.70        2973.00           1538         571.00      2463.55
  272.72        2973.25           1541         186.00       785.11
  272.75        2973.50           1545          46.00       174.80
  272.78        2973.75           1548          38.00       139.93
  272.81        2974.00           1551          34.00       122.49
  272.83        2974.25           1555          30.00       105.06
  272.86        2974.50           1558          26.00        87.62
  272.89        2974.75           1561          24.00        78.90
  272.91        2975.00           1565          24.00        78.90
  272.94        2975.25           1568          23.00        74.54
  272.97        2975.50           1571          21.00        65.82
  273.00        2975.75           1575          21.00        65.82
  273.02        2976.00           1578          21.00        65.82
  273.05        2976.25           1581          20.00        61.46
  273.08        2976.50           1585          21.00        65.82
  273.10        2976.75           1588          20.00        61.46
  273.13        2977.00           1591          22.00        70.18
  273.16        2977.25           1595          20.00        61.46
  273.19        2977.50           1598          21.00        65.82
  273.21        2977.75           1601          22.00        70.18
  273.24        2978.00           1605          22.00        70.18
  273.27        2978.25           1608          20.00        61.46
  273.29        2978.50           1611          20.00        61.46
  273.32        2978.75           1615          22.00        70.18
  273.35        2979.00           1618          18.00        52.75
  273.38        2979.25           1621          20.00        61.46
  273.40        2979.50           1625          20.00        61.46
  273.43        2979.75           1628          20.00        61.46
  273.46        2980.00           1631          24.00        78.90
  273.48        2980.25           1635          23.00        74.54
  273.51        2980.50           1638          18.00        52.75
  273.54        2980.75           1641          18.00        52.75
  273.57        2981.00           1645          17.00        48.39
  273.59        2981.25           1648          19.00        57.11
  273.62        2981.50           1651          25.00        83.26
  273.65        2981.75           1655          21.00        65.82
  273.67        2982.00           1658          19.00        57.11
  273.70        2982.25           1661          22.00        70.18
  273.73        2982.50           1665          16.00        44.03
  273.76        2982.75           1668          20.00        61.46
  273.78        2983.00           1671          22.00        70.18
  273.81        2983.25           1675          15.00        39.67
  273.84        2983.50           1678          17.00        48.39
  273.86        2983.75           1681          16.00        44.03
  273.89        2984.00           1685          20.00        61.46
HS scan finished at 04:34:05
end
