************************************************************
  HS Scan of (1) Internal mercury lamp
************************************************************
Integration time is 0.2294 seconds per sample
dh060119Tamanrasset 22.79-5.529 4.974364pr865
************************************************************
Dead Time -------------------------  2.8E-08 
Number of Cycles Used -------------  4 
Starting Wavelength (Angstroms) ---  2950 
Final Wavelength (Angstoms) -------  2984 
Wavelength Increment (Angstroms) --  .25 
Filter Wheel #1 Position ---------- (1) Ground quartz diffuser (ND=2.32)
Filter Wheel #2 Position ---------- (1) Neutral Density 0.494



************************************************************
HS scan start time = 04:30:59
Dark Count =  5.3 


Time (GMT)  Wavelength (Ang)  Step Number  Raw Counts  Counts/Second

  271.35        2950.00           1233          21.00        68.44
  271.41        2950.25           1236          20.00        64.08
  271.44        2950.50           1239          24.00        81.52
  271.47        2950.75           1242          24.00        81.52
  271.49        2951.00           1246          19.00        59.72
  271.52        2951.25           1249          21.00        68.44
  271.55        2951.50           1252          19.00        59.72
  271.57        2951.75           1256          22.00        72.80
  271.60        2952.00           1259          22.00        72.80
  271.63        2952.25           1262          21.00        68.44
  271.66        2952.50           1266          16.00        46.64
  271.68        2952.75           1269          18.00        55.36
  271.71        2953.00           1272          18.00        55.36
  271.74        2953.25           1276          18.00        55.36
  271.76        2953.50           1279          17.00        51.00
  271.79        2953.75           1282          17.00        51.00
  271.82        2954.00           1286          20.00        64.08
  271.85        2954.25           1289          21.00        68.44
  271.87        2954.50           1292          23.00        77.16
  271.90        2954.75           1295          25.00        85.88
  271.93        2955.00           1299          21.00        68.44
  271.95        2955.25           1302          20.00        64.08
  271.98        2955.50           1305          18.00        55.36
  272.01        2955.75           1309          22.00        72.80
  272.04        2956.00           1312          15.00        42.28
  272.06        2956.25           1315          21.00        68.44
  272.09        2956.50           1319          19.00        59.72
  272.12        2956.75           1322          22.00        72.80
  272.14        2957.00           1325          14.00        37.93
  272.17        2957.25           1329          24.00        81.52
  272.20        2957.50           1332          20.00        64.08
  272.23        2957.75           1335          19.00        59.72
  272.25        2958.00           1339          21.00        68.44
  272.28        2958.25           1342          19.00        59.72
  272.31        2958.50           1345          21.00        68.44
  272.33        2958.75           1348          22.00        72.80
  272.36        2959.00           1352          18.00        55.36
  272.39        2959.25           1355          22.00        72.80
  272.42        2959.50           1358          22.00        72.80
  272.44        2959.75           1362          19.00        59.72
  272.47        2960.00           1365          24.00        81.52
  272.50        2960.25           1368          24.00        81.52
  272.52        2960.50           1372          27.00        94.59
  272.55        2960.75           1375          31.00       112.03
  272.58        2961.00           1378          47.00       181.78
  272.61        2961.25           1382         251.00      1071.09
  272.63        2961.50           1385         695.00      3006.79
  272.66        2961.75           1388        1586.00      6891.91
  272.69        2962.00           1392        3421.00     14895.93
  272.71        2962.25           1395        5092.00     22187.71
  272.74        2962.50           1398        7166.00     31242.23
  272.77        2962.75           1402        9849.00     42962.29
  272.80        2963.00           1405       11907.00     51957.40
  272.82        2963.25           1408       13994.00     61083.90
  272.85        2963.50           1412       16779.00     73270.03
  272.88        2963.75           1415       18914.00     82617.66
  272.91        2964.00           1418       20905.00     91339.22
  272.93        2964.25           1422       23801.00    104032.80
  272.96        2964.50           1425       25870.00    113107.00
  272.99        2964.75           1428       27829.00    121703.00
  273.01        2965.00           1431       29866.00    130645.70
  273.04        2965.25           1435       32911.00    144022.10
  273.07        2965.50           1438       34984.00    153134.30
  273.10        2965.75           1441       37158.00    162695.40
  273.12        2966.00           1445       39835.00    174475.80
  273.15        2966.25           1448       41988.00    183956.00
  273.18        2966.50           1451       43511.00    190665.10
  273.21        2966.75           1455       44878.00    196689.20
  273.23        2967.00           1458       45343.00    198738.90
  273.26        2967.25           1461       45560.00    199695.40
  273.29        2967.50           1465       45357.00    198800.60
  273.32        2967.75           1468       45379.00    198897.60
  273.34        2968.00           1471       44531.00    195159.90
  273.37        2968.25           1475       42899.00    187968.90
  273.40        2968.50           1478       41328.00    181049.30
  273.43        2968.75           1481       39207.00    171711.60
  273.45        2969.00           1485       36536.00    159959.40
  273.48        2969.25           1488       34352.00    150355.70
  273.51        2969.50           1491       32238.00    141064.80
  273.54        2969.75           1495       29362.00    128432.70
  273.56        2970.00           1498       27228.00    119065.40
  273.59        2970.25           1501       24947.00    109058.30
  273.62        2970.50           1505       22052.00     96365.59
  273.64        2970.75           1508       19937.00     87098.38
  273.67        2971.00           1511       17810.00     77783.44
  273.70        2971.25           1515       14902.00     65056.06
  273.73        2971.50           1518       12914.00     56360.45
  273.75        2971.75           1521       10642.00     46427.80
  273.78        2972.00           1525        7941.00     34626.85
  273.81        2972.25           1528        5884.00     25644.83
  273.84        2972.50           1531        3938.00     17151.65
  273.86        2972.75           1535        1821.00      7916.75
  273.89        2973.00           1538         817.00      3538.71
  273.92        2973.25           1541         289.00      1236.75
  273.94        2973.50           1545          61.00       242.81
  273.97        2973.75           1548          35.00       129.47
  274.00        2974.00           1551          35.00       129.47
  274.03        2974.25           1555          28.00        98.95
  274.05        2974.50           1558          27.00        94.59
  274.08        2974.75           1561          27.00        94.59
  274.11        2975.00           1565          17.00        51.00
  274.14        2975.25           1568          20.00        64.08
  274.16        2975.50           1571          23.00        77.16
  274.19        2975.75           1575          20.00        64.08
  274.22        2976.00           1578          19.00        59.72
  274.24        2976.25           1581          19.00        59.72
  274.27        2976.50           1585          19.00        59.72
  274.30        2976.75           1588          26.00        90.24
  274.32        2977.00           1591          19.00        59.72
  274.35        2977.25           1595          18.00        55.36
  274.38        2977.50           1598          21.00        68.44
  274.41        2977.75           1601          24.00        81.52
  274.43        2978.00           1605          20.00        64.08
  274.46        2978.25           1608          23.00        77.16
  274.49        2978.50           1611          19.00        59.72
  274.52        2978.75           1615          19.00        59.72
  274.54        2979.00           1618          22.00        72.80
  274.57        2979.25           1621          18.00        55.36
  274.60        2979.50           1625          19.00        59.72
  274.62        2979.75           1628          17.00        51.00
  274.65        2980.00           1631          24.00        81.52
  274.68        2980.25           1635          15.00        42.28
  274.71        2980.50           1638          26.00        90.24
  274.73        2980.75           1641          25.00        85.88
  274.76        2981.00           1645          23.00        77.16
  274.79        2981.25           1648          21.00        68.44
  274.81        2981.50           1651          19.00        59.72
  274.84        2981.75           1655          15.00        42.28
  274.87        2982.00           1658          20.00        64.08
  274.90        2982.25           1661          14.00        37.93
  274.92        2982.50           1665          18.00        55.36
  274.95        2982.75           1668          23.00        77.16
  274.98        2983.00           1671          22.00        72.80
  275.00        2983.25           1675          21.00        68.44
  275.03        2983.50           1678          18.00        55.36
  275.06        2983.75           1681          13.00        33.57
  275.09        2984.00           1685          23.00        77.16
HS scan finished at 04:35:16
end
