************************************************************
  HS Scan of (1) Internal mercury lamp
************************************************************
Integration time is 0.2294 seconds per sample
dh030119Tamanrasset 22.79-5.529 4.974364pr865
************************************************************
Dead Time -------------------------  2.8E-08 
Number of Cycles Used -------------  4 
Starting Wavelength (Angstroms) ---  2950 
Final Wavelength (Angstoms) -------  2984 
Wavelength Increment (Angstroms) --  .25 
Filter Wheel #1 Position ---------- (1) Ground quartz diffuser (ND=2.32)
Filter Wheel #2 Position ---------- (1) Neutral Density 0.494



************************************************************
HS scan start time = 04:29:29
Dark Count =  5.4 


Time (GMT)  Wavelength (Ang)  Step Number  Raw Counts  Counts/Second

  269.83        2950.00           1233          18.00        54.93
  269.90        2950.25           1236          21.00        68.00
  269.92        2950.50           1239          16.00        46.21
  269.95        2950.75           1242          20.00        63.64
  269.98        2951.00           1246          26.00        89.80
  270.00        2951.25           1249          21.00        68.00
  270.03        2951.50           1252          22.00        72.36
  270.06        2951.75           1256          21.00        68.00
  270.09        2952.00           1259          17.00        50.57
  270.11        2952.25           1262          16.00        46.21
  270.14        2952.50           1266          21.00        68.00
  270.17        2952.75           1269          22.00        72.36
  270.20        2953.00           1272          18.00        54.93
  270.22        2953.25           1276          18.00        54.93
  270.25        2953.50           1279          19.00        59.29
  270.28        2953.75           1282          22.00        72.36
  270.30        2954.00           1286          18.00        54.93
  270.33        2954.25           1289          18.00        54.93
  270.36        2954.50           1292          17.00        50.57
  270.39        2954.75           1295          19.00        59.29
  270.41        2955.00           1299          24.00        81.08
  270.44        2955.25           1302          19.00        59.29
  270.47        2955.50           1305          17.00        50.57
  270.49        2955.75           1309          22.00        72.36
  270.52        2956.00           1312          24.00        81.08
  270.55        2956.25           1315          22.00        72.36
  270.58        2956.50           1319          21.00        68.00
  270.60        2956.75           1322          20.00        63.64
  270.63        2957.00           1325          23.00        76.72
  270.66        2957.25           1329          22.00        72.36
  270.68        2957.50           1332          26.00        89.80
  270.71        2957.75           1335          18.00        54.93
  270.74        2958.00           1339          19.00        59.29
  270.77        2958.25           1342          20.00        63.64
  270.79        2958.50           1345          23.00        76.72
  270.82        2958.75           1348          17.00        50.57
  270.85        2959.00           1352          21.00        68.00
  270.87        2959.25           1355          21.00        68.00
  270.90        2959.50           1358          20.00        63.64
  270.93        2959.75           1362          27.00        94.16
  270.96        2960.00           1365          25.00        85.44
  270.98        2960.25           1368          24.00        81.08
  271.01        2960.50           1372          30.00       107.24
  271.04        2960.75           1375          39.00       146.47
  271.06        2961.00           1378          71.00       285.97
  271.09        2961.25           1382         358.00      1537.12
  271.12        2961.50           1385         946.00      4100.73
  271.15        2961.75           1388        1943.00      8448.38
  271.17        2962.00           1392        4013.00     17478.47
  271.20        2962.25           1395        5929.00     25840.84
  271.23        2962.50           1398        7974.00     34770.54
  271.26        2962.75           1402       10665.00     46527.89
  271.28        2963.00           1405       12776.00     55756.55
  271.31        2963.25           1408       15001.00     65488.76
  271.34        2963.50           1412       17466.00     76276.95
  271.36        2963.75           1415       19785.00     86432.12
  271.39        2964.00           1418       21824.00     95365.91
  271.42        2964.25           1422       24548.00    107308.00
  271.45        2964.50           1425       26680.00    116660.30
  271.47        2964.75           1428       28862.00    126237.10
  271.50        2965.00           1431       30725.00    134417.80
  271.53        2965.25           1435       33883.00    148293.60
  271.56        2965.50           1438       36043.00    157790.70
  271.58        2965.75           1441       37884.00    165889.10
  271.61        2966.00           1445       40913.00    179221.50
  271.64        2966.25           1448       42803.00    187545.50
  271.67        2966.50           1451       44044.00    193013.30
  271.69        2966.75           1455       45201.00    198112.50
  271.72        2967.00           1458       45850.00    200973.50
  271.75        2967.25           1461       45763.00    200589.90
  271.78        2967.50           1465       45513.00    199487.80
  271.80        2967.75           1468       45295.00    198526.90
  271.83        2968.00           1471       44534.00    195172.70
  271.86        2968.25           1475       42919.00    188056.50
  271.89        2968.50           1478       40983.00    179529.70
  271.91        2968.75           1481       38703.00    169493.00
  271.94        2969.00           1485       36064.00    157883.00
  271.97        2969.25           1488       33705.00    147511.20
  271.99        2969.50           1491       31627.00    138380.00
  272.02        2969.75           1495       28614.00    125148.30
  272.05        2970.00           1498       26497.00    115857.40
  272.08        2970.25           1501       24328.00    106343.20
  272.10        2970.50           1505       21428.00     93630.50
  272.13        2970.75           1508       19435.00     84899.05
  272.16        2971.00           1511       17131.00     74810.43
  272.19        2971.25           1515       14277.00     62321.39
  272.21        2971.50           1518       12063.00     52638.99
  272.24        2971.75           1521       10047.00     43827.07
  272.27        2972.00           1525        7247.00     31595.51
  272.29        2972.25           1528        5315.00     23160.61
  272.32        2972.50           1531        3435.00     14956.57
  272.35        2972.75           1535        1563.00      6791.18
  272.38        2973.00           1538         649.00      2805.80
  272.40        2973.25           1541         225.00       957.31
  272.43        2973.50           1545          50.00       194.42
  272.46        2973.75           1548          35.00       129.03
  272.49        2974.00           1551          32.00       115.96
  272.51        2974.25           1555          27.00        94.16
  272.54        2974.50           1558          24.00        81.08
  272.57        2974.75           1561          21.00        68.00
  272.59        2975.00           1565          18.00        54.93
  272.62        2975.25           1568          22.00        72.36
  272.65        2975.50           1571          19.00        59.29
  272.68        2975.75           1575          17.00        50.57
  272.70        2976.00           1578          22.00        72.36
  272.73        2976.25           1581          24.00        81.08
  272.76        2976.50           1585          15.00        41.85
  272.78        2976.75           1588          21.00        68.00
  272.81        2977.00           1591          23.00        76.72
  272.84        2977.25           1595          18.00        54.93
  272.87        2977.50           1598          24.00        81.08
  272.89        2977.75           1601          25.00        85.44
  272.92        2978.00           1605          22.00        72.36
  272.95        2978.25           1608          22.00        72.36
  272.97        2978.50           1611          18.00        54.93
  273.00        2978.75           1615          23.00        76.72
  273.03        2979.00           1618          22.00        72.36
  273.06        2979.25           1621          18.00        54.93
  273.08        2979.50           1625          22.00        72.36
  273.11        2979.75           1628          22.00        72.36
  273.14        2980.00           1631          18.00        54.93
  273.16        2980.25           1635          25.00        85.44
  273.19        2980.50           1638          22.00        72.36
  273.22        2980.75           1641          17.00        50.57
  273.25        2981.00           1645          18.00        54.93
  273.27        2981.25           1648          21.00        68.00
  273.30        2981.50           1651          18.00        54.93
  273.33        2981.75           1655          18.00        54.93
  273.35        2982.00           1658          18.00        54.93
  273.38        2982.25           1661          22.00        72.36
  273.41        2982.50           1665          23.00        76.72
  273.44        2982.75           1668          25.00        85.44
  273.46        2983.00           1671          15.00        41.85
  273.49        2983.25           1675          14.00        37.49
  273.52        2983.50           1678          25.00        85.44
  273.54        2983.75           1681          22.00        72.36
  273.57        2984.00           1685          18.00        54.93
HS scan finished at 04:33:45
end
