************************************************************
  HS Scan of (1) Internal mercury lamp
************************************************************
Integration time is 0.2294 seconds per sample
dh110119Tamanrasset 22.79-5.529 4.974364pr865
************************************************************
Dead Time -------------------------  2.8E-08 
Number of Cycles Used -------------  4 
Starting Wavelength (Angstroms) ---  2950 
Final Wavelength (Angstoms) -------  2984 
Wavelength Increment (Angstroms) --  .25 
Filter Wheel #1 Position ---------- (1) Ground quartz diffuser (ND=2.32)
Filter Wheel #2 Position ---------- (1) Neutral Density 0.494



************************************************************
HS scan start time = 04:31:32
Dark Count =  6.6 


Time (GMT)  Wavelength (Ang)  Step Number  Raw Counts  Counts/Second

  271.88        2950.00           1233          21.00        62.77
  271.94        2950.25           1236          16.00        40.98
  271.97        2950.50           1239          20.00        58.41
  272.00        2950.75           1242          22.00        67.13
  272.03        2951.00           1246          18.00        49.69
  272.05        2951.25           1249          20.00        58.41
  272.08        2951.50           1252          17.00        45.34
  272.11        2951.75           1256          22.00        67.13
  272.13        2952.00           1259          17.00        45.34
  272.16        2952.25           1262          16.00        40.98
  272.19        2952.50           1266          19.00        54.05
  272.22        2952.75           1269          18.00        49.69
  272.24        2953.00           1272          19.00        54.05
  272.27        2953.25           1276          24.00        75.85
  272.30        2953.50           1279          21.00        62.77
  272.32        2953.75           1282          22.00        67.13
  272.35        2954.00           1286          15.00        36.62
  272.38        2954.25           1289          22.00        67.13
  272.41        2954.50           1292          22.00        67.13
  272.43        2954.75           1295          16.00        40.98
  272.46        2955.00           1299          19.00        54.05
  272.49        2955.25           1302          20.00        58.41
  272.51        2955.50           1305          25.00        80.21
  272.54        2955.75           1309          24.00        75.85
  272.57        2956.00           1312          23.00        71.49
  272.60        2956.25           1315          16.00        40.98
  272.62        2956.50           1319          19.00        54.05
  272.65        2956.75           1322          21.00        62.77
  272.68        2957.00           1325          19.00        54.05
  272.70        2957.25           1329          20.00        58.41
  272.73        2957.50           1332          20.00        58.41
  272.76        2957.75           1335          22.00        67.13
  272.79        2958.00           1339          20.00        58.41
  272.81        2958.25           1342          18.00        49.69
  272.84        2958.50           1345          20.00        58.41
  272.87        2958.75           1348          20.00        58.41
  272.89        2959.00           1352          23.00        71.49
  272.92        2959.25           1355          16.00        40.98
  272.95        2959.50           1358          18.00        49.69
  272.98        2959.75           1362          21.00        62.77
  273.00        2960.00           1365          22.00        67.13
  273.03        2960.25           1368          25.00        80.21
  273.06        2960.50           1372          24.00        75.85
  273.08        2960.75           1375          37.00       132.52
  273.11        2961.00           1378          72.00       285.09
  273.14        2961.25           1382         373.00      1597.28
  273.17        2961.50           1385         871.00      3768.49
  273.19        2961.75           1388        1862.00      8089.89
  273.22        2962.00           1392        4022.00     17512.51
  273.25        2962.25           1395        5990.00     26101.90
  273.28        2962.50           1398        7958.00     34695.42
  273.30        2962.75           1402       10611.00     46286.63
  273.33        2963.00           1405       12773.00     55738.19
  273.36        2963.25           1408       14759.00     64424.75
  273.38        2963.50           1412       17342.00     75728.85
  273.41        2963.75           1415       19692.00     86019.49
  273.44        2964.00           1418       21812.00     95308.06
  273.47        2964.25           1422       24565.00    107377.30
  273.49        2964.50           1425       26476.00    115760.00
  273.52        2964.75           1428       28766.00    125810.30
  273.55        2965.00           1431       30888.00    135128.40
  273.58        2965.25           1435       33717.00    147558.70
  273.60        2965.50           1438       35978.00    157499.50
  273.63        2965.75           1441       38033.00    166539.40
  273.66        2966.00           1445       40760.00    178542.50
  273.69        2966.25           1448       42744.00    187280.30
  273.71        2966.50           1451       44375.00    194466.60
  273.74        2966.75           1455       45233.00    198248.20
  273.77        2967.00           1458       45860.00    201012.20
  273.79        2967.25           1461       46099.00    202065.90
  273.82        2967.50           1465       45916.00    201259.10
  273.85        2967.75           1468       45459.00    199244.50
  273.88        2968.00           1471       44805.00    196361.80
  273.90        2968.25           1475       43042.00    188593.10
  273.93        2968.50           1478       41349.00    181136.10
  273.96        2968.75           1481       39224.00    171780.70
  273.99        2969.00           1485       36438.00    159522.60
  274.01        2969.25           1488       34065.00    149088.40
  274.04        2969.50           1491       31916.00    139644.40
  274.07        2969.75           1495       28808.00    125994.70
  274.10        2970.00           1498       26788.00    117129.00
  274.12        2970.25           1501       24530.00    107223.80
  274.15        2970.50           1505       21570.00     94247.52
  274.18        2970.75           1508       19227.00     83982.78
  274.20        2971.00           1511       17030.00     74363.06
  274.23        2971.25           1515       14229.00     62106.17
  274.26        2971.50           1518       12179.00     53140.92
  274.29        2971.75           1521       10057.00     43865.53
  274.31        2972.00           1525        7318.00     31900.32
  274.34        2972.25           1528        5194.00     22627.24
  274.37        2972.50           1531        3323.00     14462.70
  274.40        2972.75           1535        1427.00      6192.88
  274.42        2973.00           1538         557.00      2399.46
  274.45        2973.25           1541         171.00       716.67
  274.48        2973.50           1545          52.00       197.91
  274.50        2973.75           1548          39.00       141.24
  274.53        2974.00           1551          24.00        75.85
  274.56        2974.25           1555          23.00        71.49
  274.59        2974.50           1558          22.00        67.13
  274.61        2974.75           1561          23.00        71.49
  274.64        2975.00           1565          22.00        67.13
  274.67        2975.25           1568          23.00        71.49
  274.69        2975.50           1571          20.00        58.41
  274.72        2975.75           1575          21.00        62.77
  274.75        2976.00           1578          22.00        67.13
  274.78        2976.25           1581          23.00        71.49
  274.80        2976.50           1585          16.00        40.98
  274.83        2976.75           1588          16.00        40.98
  274.86        2977.00           1591          19.00        54.05
  274.88        2977.25           1595          23.00        71.49
  274.91        2977.50           1598          19.00        54.05
  274.94        2977.75           1601          24.00        75.85
  274.97        2978.00           1605          21.00        62.77
  274.99        2978.25           1608          21.00        62.77
  275.02        2978.50           1611          18.00        49.69
  275.05        2978.75           1615          20.00        58.41
  275.07        2979.00           1618          21.00        62.77
  275.10        2979.25           1621          21.00        62.77
  275.13        2979.50           1625          24.00        75.85
  275.16        2979.75           1628          17.00        45.34
  275.18        2980.00           1631          18.00        49.69
  275.21        2980.25           1635          22.00        67.13
  275.24        2980.50           1638          22.00        67.13
  275.27        2980.75           1641          23.00        71.49
  275.29        2981.00           1645          20.00        58.41
  275.32        2981.25           1648          23.00        71.49
  275.35        2981.50           1651          16.00        40.98
  275.37        2981.75           1655          19.00        54.05
  275.40        2982.00           1658          24.00        75.85
  275.43        2982.25           1661          20.00        58.41
  275.45        2982.50           1665          17.00        45.34
  275.48        2982.75           1668          19.00        54.05
  275.51        2983.00           1671          18.00        49.69
  275.54        2983.25           1675          19.00        54.05
  275.56        2983.50           1678          21.00        62.77
  275.59        2983.75           1681          18.00        49.69
  275.62        2984.00           1685          28.00        93.29
HS scan finished at 04:35:48
end
