************************************************************
  HS Scan of (1) Internal mercury lamp
************************************************************
Integration time is 0.2294 seconds per sample
dh150119Tamanrasset 22.79-5.529 4.974364pr865
************************************************************
Dead Time -------------------------  2.8E-08 
Number of Cycles Used -------------  4 
Starting Wavelength (Angstroms) ---  2950 
Final Wavelength (Angstoms) -------  2984 
Wavelength Increment (Angstroms) --  .25 
Filter Wheel #1 Position ---------- (1) Ground quartz diffuser (ND=2.32)
Filter Wheel #2 Position ---------- (1) Neutral Density 0.494



************************************************************
HS scan start time = 04:31:40
Dark Count =  .7 


Time (GMT)  Wavelength (Ang)  Step Number  Raw Counts  Counts/Second

  272.02        2950.00           1233          19.00        79.77
  272.08        2950.25           1236          17.00        71.06
  272.11        2950.50           1239          18.00        75.41
  272.13        2950.75           1242          17.00        71.06
  272.16        2951.00           1246          25.00       105.93
  272.19        2951.25           1249          19.00        79.77
  272.22        2951.50           1252          21.00        88.49
  272.24        2951.75           1256          24.00       101.57
  272.27        2952.00           1259          20.00        84.13
  272.30        2952.25           1262          17.00        71.06
  272.32        2952.50           1266          22.00        92.85
  272.35        2952.75           1269          18.00        75.41
  272.38        2953.00           1272          22.00        92.85
  272.41        2953.25           1276          19.00        79.77
  272.43        2953.50           1279          20.00        84.13
  272.46        2953.75           1282          18.00        75.41
  272.49        2954.00           1286          19.00        79.77
  272.52        2954.25           1289          15.00        62.34
  272.54        2954.50           1292          18.00        75.41
  272.57        2954.75           1295          24.00       101.57
  272.60        2955.00           1299          15.00        62.34
  272.62        2955.25           1302          19.00        79.77
  272.65        2955.50           1305          14.00        57.98
  272.68        2955.75           1309          19.00        79.77
  272.71        2956.00           1312          17.00        71.06
  272.73        2956.25           1315          18.00        75.41
  272.76        2956.50           1319          19.00        79.77
  272.79        2956.75           1322          22.00        92.85
  272.81        2957.00           1325          21.00        88.49
  272.84        2957.25           1329          21.00        88.49
  272.87        2957.50           1332          21.00        88.49
  272.89        2957.75           1335          16.00        66.70
  272.92        2958.00           1339          20.00        84.13
  272.95        2958.25           1342          18.00        75.41
  272.98        2958.50           1345          17.00        71.06
  273.00        2958.75           1348          17.00        71.06
  273.03        2959.00           1352          15.00        62.34
  273.06        2959.25           1355          15.00        62.34
  273.09        2959.50           1358          18.00        75.41
  273.11        2959.75           1362          20.00        84.13
  273.14        2960.00           1365          18.00        75.41
  273.17        2960.25           1368          25.00       105.93
  273.19        2960.50           1372          26.00       110.29
  273.22        2960.75           1375          32.00       136.44
  273.25        2961.00           1378          71.00       306.45
  273.28        2961.25           1382         364.00      1583.77
  273.30        2961.50           1385         901.00      3925.02
  273.33        2961.75           1388        1795.00      7823.42
  273.36        2962.00           1392        3910.00     17049.55
  273.38        2962.25           1395        5927.00     25852.62
  273.41        2962.50           1398        7821.00     34122.82
  273.44        2962.75           1402       10585.00     46198.78
  273.47        2963.00           1405       12548.00     54780.13
  273.49        2963.25           1408       14747.00     64398.06
  273.52        2963.50           1412       17359.00     75829.11
  273.55        2963.75           1415       19500.00     85204.34
  273.58        2964.00           1418       21576.00     94299.66
  273.60        2964.25           1422       24107.00    105394.70
  273.63        2964.50           1425       26289.00    114965.40
  273.66        2964.75           1428       28687.00    125489.40
  273.69        2965.00           1431       30597.00    133876.20
  273.71        2965.25           1435       33516.00    146701.20
  273.74        2965.50           1438       35725.00    156412.80
  273.77        2965.75           1441       37829.00    165667.80
  273.79        2966.00           1445       40569.00    177727.50
  273.82        2966.25           1448       42404.00    185808.60
  273.85        2966.50           1451       43848.00    192170.30
  273.88        2966.75           1455       45316.00    198640.10
  273.90        2967.00           1458       45469.00    199314.60
  273.93        2967.25           1461       45811.00    200822.20
  273.96        2967.50           1465       45490.00    199407.10
  273.99        2967.75           1468       45345.00    198768.00
  274.01        2968.00           1471       44578.00    195387.30
  274.04        2968.25           1475       42837.00    187716.00
  274.07        2968.50           1478       41053.00    179858.60
  274.10        2968.75           1481       39176.00    171595.40
  274.12        2969.00           1485       36150.00    158281.90
  274.15        2969.25           1488       33792.00    147914.30
  274.18        2969.50           1491       31705.00    138743.30
  274.20        2969.75           1495       28684.00    125476.30
  274.23        2970.00           1498       26512.00    115943.80
  274.26        2970.25           1501       24347.00    106447.10
  274.29        2970.50           1505       21419.00     93611.66
  274.31        2970.75           1508       19462.00     85037.91
  274.34        2971.00           1511       17113.00     74752.21
  274.37        2971.25           1515       14235.00     62158.22
  274.40        2971.50           1518       12152.00     53048.66
  274.42        2971.75           1521       10179.00     44424.45
  274.45        2972.00           1525        7369.00     32148.81
  274.48        2972.25           1528        5333.00     23259.69
  274.50        2972.50           1531        3355.00     14628.05
  274.53        2972.75           1535        1580.00      6885.81
  274.56        2973.00           1538         658.00      2865.53
  274.59        2973.25           1541         223.00       969.08
  274.61        2973.50           1545          51.00       219.27
  274.64        2973.75           1548          28.00       119.01
  274.67        2974.00           1551          27.00       114.65
  274.70        2974.25           1555          27.00       114.65
  274.72        2974.50           1558          25.00       105.93
  274.75        2974.75           1561          22.00        92.85
  274.78        2975.00           1565          26.00       110.29
  274.80        2975.25           1568          16.00        66.70
  274.83        2975.50           1571          19.00        79.77
  274.86        2975.75           1575          22.00        92.85
  274.89        2976.00           1578          17.00        71.06
  274.91        2976.25           1581          18.00        75.41
  274.94        2976.50           1585          22.00        92.85
  274.97        2976.75           1588          23.00        97.21
  274.99        2977.00           1591          24.00       101.57
  275.02        2977.25           1595          21.00        88.49
  275.05        2977.50           1598          20.00        84.13
  275.08        2977.75           1601          29.00       123.37
  275.10        2978.00           1605          25.00       105.93
  275.13        2978.25           1608          19.00        79.77
  275.16        2978.50           1611          21.00        88.49
  275.18        2978.75           1615          22.00        92.85
  275.21        2979.00           1618          18.00        75.41
  275.24        2979.25           1621          22.00        92.85
  275.27        2979.50           1625          17.00        71.06
  275.29        2979.75           1628          21.00        88.49
  275.32        2980.00           1631          20.00        84.13
  275.35        2980.25           1635          22.00        92.85
  275.37        2980.50           1638          19.00        79.77
  275.40        2980.75           1641          19.00        79.77
  275.43        2981.00           1645          13.00        53.62
  275.46        2981.25           1648          16.00        66.70
  275.48        2981.50           1651          21.00        88.49
  275.51        2981.75           1655          20.00        84.13
  275.54        2982.00           1658          18.00        75.41
  275.57        2982.25           1661          21.00        88.49
  275.59        2982.50           1665          20.00        84.13
  275.62        2982.75           1668          22.00        92.85
  275.65        2983.00           1671          18.00        75.41
  275.67        2983.25           1675          20.00        84.13
  275.70        2983.50           1678          17.00        71.06
  275.73        2983.75           1681          20.00        84.13
  275.75        2984.00           1685          21.00        88.49
HS scan finished at 04:35:57
end
