************************************************************
  HS Scan of (1) Internal mercury lamp
************************************************************
Integration time is 0.2294 seconds per sample
dh190119Tamanrasset 22.79-5.529 4.974364pr865
************************************************************
Dead Time -------------------------  2.8E-08 
Number of Cycles Used -------------  4 
Starting Wavelength (Angstroms) ---  2950 
Final Wavelength (Angstoms) -------  2984 
Wavelength Increment (Angstroms) --  .25 
Filter Wheel #1 Position ---------- (1) Ground quartz diffuser (ND=2.32)
Filter Wheel #2 Position ---------- (1) Neutral Density 0.494



************************************************************
HS scan start time = 04:31:40
Dark Count =  4.4 


Time (GMT)  Wavelength (Ang)  Step Number  Raw Counts  Counts/Second

  272.02        2950.00           1233          18.00        59.29
  272.08        2950.25           1236          21.00        72.36
  272.11        2950.50           1239          19.00        63.64
  272.14        2950.75           1242          16.00        50.57
  272.16        2951.00           1246          16.00        50.57
  272.19        2951.25           1249          19.00        63.64
  272.22        2951.50           1252          20.00        68.00
  272.24        2951.75           1256          19.00        63.64
  272.27        2952.00           1259          21.00        72.36
  272.30        2952.25           1262          20.00        68.00
  272.33        2952.50           1266          22.00        76.72
  272.35        2952.75           1269          19.00        63.64
  272.38        2953.00           1272          17.00        54.93
  272.41        2953.25           1276          18.00        59.29
  272.43        2953.50           1279          16.00        50.57
  272.46        2953.75           1282          19.00        63.64
  272.49        2954.00           1286          20.00        68.00
  272.52        2954.25           1289          17.00        54.93
  272.54        2954.50           1292          23.00        81.08
  272.57        2954.75           1295          22.00        76.72
  272.60        2955.00           1299          18.00        59.29
  272.62        2955.25           1302          21.00        72.36
  272.65        2955.50           1305          17.00        54.93
  272.68        2955.75           1309          18.00        59.29
  272.71        2956.00           1312          22.00        76.72
  272.73        2956.25           1315          17.00        54.93
  272.76        2956.50           1319          21.00        72.36
  272.79        2956.75           1322          18.00        59.29
  272.81        2957.00           1325          18.00        59.29
  272.84        2957.25           1329          21.00        72.36
  272.87        2957.50           1332          21.00        72.36
  272.90        2957.75           1335          16.00        50.57
  272.92        2958.00           1339          18.00        59.29
  272.95        2958.25           1342          19.00        63.64
  272.98        2958.50           1345          18.00        59.29
  273.00        2958.75           1348          24.00        85.44
  273.03        2959.00           1352          21.00        72.36
  273.06        2959.25           1355          17.00        54.93
  273.09        2959.50           1358          22.00        76.72
  273.11        2959.75           1362          22.00        76.72
  273.14        2960.00           1365          25.00        89.80
  273.17        2960.25           1368          27.00        98.52
  273.19        2960.50           1372          27.00        98.52
  273.22        2960.75           1375          32.00       120.31
  273.25        2961.00           1378          96.00       399.31
  273.28        2961.25           1382         472.00      2038.48
  273.30        2961.50           1385        1090.00      4732.97
  273.33        2961.75           1388        2204.00      9591.07
  273.36        2962.00           1392        4373.00     19053.76
  273.39        2962.25           1395        6415.00     27966.97
  273.41        2962.50           1398        8641.00     37688.40
  273.44        2962.75           1402       11370.00     49613.77
  273.47        2963.00           1405       13698.00     59793.14
  273.49        2963.25           1408       16015.00     69930.16
  273.52        2963.50           1412       18964.00     82840.58
  273.55        2963.75           1415       21083.00     92123.11
  273.58        2964.00           1418       23338.00    102006.70
  273.60        2964.25           1422       26291.00    114957.90
  273.63        2964.50           1425       28380.00    124125.50
  273.66        2964.75           1428       30786.00    134690.10
  273.69        2965.00           1431       32974.00    144302.90
  273.71        2965.25           1435       35976.00    157500.40
  273.74        2965.50           1438       38634.00    169193.70
  273.77        2965.75           1441       40651.00    178072.20
  273.79        2966.00           1445       43614.00    191122.90
  273.82        2966.25           1448       45209.00    198152.20
  273.85        2966.50           1451       46817.00    205241.50
  273.88        2966.75           1455       48439.00    212395.40
  273.90        2967.00           1458       48617.00    213180.70
  273.93        2967.25           1461       48953.00    214663.00
  273.96        2967.50           1465       48466.00    212514.50
  273.99        2967.75           1468       48178.00    211244.10
  274.01        2968.00           1471       47359.00    207631.70
  274.04        2968.25           1475       45465.00    199280.60
  274.07        2968.50           1478       43500.00    190620.60
  274.10        2968.75           1481       41206.00    180516.10
  274.12        2969.00           1485       38490.00    168560.00
  274.15        2969.25           1488       35993.00    157575.10
  274.18        2969.50           1491       33691.00    147454.10
  274.20        2969.75           1495       30316.00    132625.90
  274.23        2970.00           1498       28090.00    122852.60
  274.26        2970.25           1501       25677.00    112264.30
  274.29        2970.50           1505       22635.00     98924.90
  274.31        2970.75           1508       20265.00     88539.19
  274.34        2971.00           1511       17775.00     77634.15
  274.37        2971.25           1515       14844.00     64806.25
  274.40        2971.50           1518       12670.00     55297.41
  274.42        2971.75           1521       10569.00     46112.69
  274.45        2972.00           1525        7647.00     33346.73
  274.48        2972.25           1528        5429.00     23662.58
  274.50        2972.50           1531        3491.00     15205.25
  274.53        2972.75           1535        1466.00      6372.54
  274.56        2973.00           1538         572.00      2474.45
  274.59        2973.25           1541         184.00       782.93
  274.61        2973.50           1545          50.00       198.78
  274.64        2973.75           1548          40.00       155.19
  274.67        2974.00           1551          26.00        94.16
  274.70        2974.25           1555          29.00       107.24
  274.72        2974.50           1558          22.00        76.72
  274.75        2974.75           1561          25.00        89.80
  274.78        2975.00           1565          30.00       111.60
  274.80        2975.25           1568          23.00        81.08
  274.83        2975.50           1571          27.00        98.52
  274.86        2975.75           1575          22.00        76.72
  274.89        2976.00           1578          22.00        76.72
  274.91        2976.25           1581          23.00        81.08
  274.94        2976.50           1585          19.00        63.64
  274.97        2976.75           1588          20.00        68.00
  274.99        2977.00           1591          21.00        72.36
  275.02        2977.25           1595          21.00        72.36
  275.05        2977.50           1598          17.00        54.93
  275.08        2977.75           1601          18.00        59.29
  275.10        2978.00           1605          19.00        63.64
  275.13        2978.25           1608          20.00        68.00
  275.16        2978.50           1611          21.00        72.36
  275.18        2978.75           1615          18.00        59.29
  275.21        2979.00           1618          16.00        50.57
  275.24        2979.25           1621          20.00        68.00
  275.27        2979.50           1625          20.00        68.00
  275.29        2979.75           1628          18.00        59.29
  275.32        2980.00           1631          16.00        50.57
  275.35        2980.25           1635          22.00        76.72
  275.37        2980.50           1638          14.00        41.85
  275.40        2980.75           1641          21.00        72.36
  275.43        2981.00           1645          14.00        41.85
  275.46        2981.25           1648          22.00        76.72
  275.48        2981.50           1651          19.00        63.64
  275.51        2981.75           1655          20.00        68.00
  275.54        2982.00           1658          21.00        72.36
  275.56        2982.25           1661          20.00        68.00
  275.59        2982.50           1665          17.00        54.93
  275.62        2982.75           1668          22.00        76.72
  275.65        2983.00           1671          16.00        50.57
  275.67        2983.25           1675          19.00        63.64
  275.70        2983.50           1678          27.00        98.52
  275.73        2983.75           1681          18.00        59.29
  275.75        2984.00           1685          19.00        63.64
HS scan finished at 04:35:56
end
