************************************************************
  HS Scan of (1) Internal mercury lamp
************************************************************
Integration time is 0.2294 seconds per sample
dh120119Tamanrasset 22.79-5.529 4.974364pr865
************************************************************
Dead Time -------------------------  2.8E-08 
Number of Cycles Used -------------  4 
Starting Wavelength (Angstroms) ---  2950 
Final Wavelength (Angstoms) -------  2984 
Wavelength Increment (Angstroms) --  .25 
Filter Wheel #1 Position ---------- (1) Ground quartz diffuser (ND=2.32)
Filter Wheel #2 Position ---------- (1) Neutral Density 0.494



************************************************************
HS scan start time = 04:31:32
Dark Count =  6.5 


Time (GMT)  Wavelength (Ang)  Step Number  Raw Counts  Counts/Second

  271.90        2950.00           1233          16.00        41.41
  271.96        2950.25           1236          25.00        80.65
  271.99        2950.50           1239          19.00        54.49
  272.01        2950.75           1242          17.00        45.77
  272.04        2951.00           1246          18.00        50.13
  272.07        2951.25           1249          22.00        67.57
  272.09        2951.50           1252          20.00        58.85
  272.12        2951.75           1256          18.00        50.13
  272.15        2952.00           1259          23.00        71.93
  272.18        2952.25           1262          23.00        71.93
  272.20        2952.50           1266          18.00        50.13
  272.23        2952.75           1269          19.00        54.49
  272.26        2953.00           1272          20.00        58.85
  272.29        2953.25           1276          16.00        41.41
  272.31        2953.50           1279          16.00        41.41
  272.34        2953.75           1282          22.00        67.57
  272.37        2954.00           1286          21.00        63.21
  272.39        2954.25           1289          14.00        32.69
  272.42        2954.50           1292          21.00        63.21
  272.45        2954.75           1295          20.00        58.85
  272.48        2955.00           1299          18.00        50.13
  272.50        2955.25           1302          20.00        58.85
  272.53        2955.50           1305          18.00        50.13
  272.56        2955.75           1309          20.00        58.85
  272.58        2956.00           1312          22.00        67.57
  272.61        2956.25           1315          19.00        54.49
  272.64        2956.50           1319          19.00        54.49
  272.67        2956.75           1322          19.00        54.49
  272.69        2957.00           1325          20.00        58.85
  272.72        2957.25           1329          17.00        45.77
  272.75        2957.50           1332          21.00        63.21
  272.77        2957.75           1335          21.00        63.21
  272.80        2958.00           1339          20.00        58.85
  272.83        2958.25           1342          21.00        63.21
  272.86        2958.50           1345          21.00        63.21
  272.88        2958.75           1348          21.00        63.21
  272.91        2959.00           1352          20.00        58.85
  272.94        2959.25           1355          21.00        63.21
  272.96        2959.50           1358          20.00        58.85
  272.99        2959.75           1362          24.00        76.29
  273.02        2960.00           1365          24.00        76.29
  273.05        2960.25           1368          24.00        76.29
  273.07        2960.50           1372          26.00        85.00
  273.10        2960.75           1375          39.00       141.67
  273.13        2961.00           1378          97.00       394.51
  273.15        2961.25           1382         414.00      1776.46
  273.18        2961.50           1385        1011.00      4379.35
  273.21        2961.75           1388        1956.00      8500.28
  273.24        2962.00           1392        4197.00     18276.57
  273.26        2962.25           1395        6094.00     26556.36
  273.29        2962.50           1398        8197.00     35739.76
  273.32        2962.75           1402       10841.00     47292.31
  273.35        2963.00           1405       12851.00     56079.71
  273.37        2963.25           1408       15041.00     65658.96
  273.40        2963.50           1412       17709.00     77335.99
  273.43        2963.75           1415       19536.00     85336.62
  273.45        2964.00           1418       21805.00     95277.82
  273.48        2964.25           1422       24518.00    107171.60
  273.51        2964.50           1425       26699.00    116738.90
  273.54        2964.75           1428       28752.00    125749.30
  273.56        2965.00           1431       31103.00    136073.30
  273.59        2965.25           1435       33525.00    146715.30
  273.62        2965.50           1438       36124.00    158142.00
  273.65        2965.75           1441       38247.00    167481.50
  273.67        2966.00           1445       40874.00    179044.90
  273.70        2966.25           1448       42700.00    187086.90
  273.73        2966.50           1451       44123.00    193356.60
  273.75        2966.75           1455       45220.00    198191.40
  273.78        2967.00           1458       45581.00    199782.70
  273.81        2967.25           1461       45966.00    201480.00
  273.84        2967.50           1465       45843.00    200937.70
  273.86        2967.75           1468       45123.00    197763.80
  273.89        2968.00           1471       44611.00    195507.20
  273.92        2968.25           1475       42845.00    187725.70
  273.95        2968.50           1478       41160.00    180304.20
  273.97        2968.75           1481       38918.00    170434.30
  274.00        2969.00           1485       36293.00    158885.30
  274.03        2969.25           1488       33873.00    148244.90
  274.06        2969.50           1491       31701.00    138700.20
  274.08        2969.75           1495       28845.00    126157.60
  274.11        2970.00           1498       26589.00    116256.20
  274.14        2970.25           1501       24307.00    106246.30
  274.16        2970.50           1505       21461.00     93770.30
  274.19        2970.75           1508       19570.00     85485.55
  274.22        2971.00           1511       17143.00     74858.15
  274.25        2971.25           1515       14363.00     62692.78
  274.27        2971.50           1518       12129.00     52922.75
  274.30        2971.75           1521       10100.00     44053.88
  274.33        2972.00           1525        7254.00     31621.27
  274.36        2972.25           1528        5193.00     22623.31
  274.38        2972.50           1531        3364.00     14642.01
  274.41        2972.75           1535        1509.00      6550.90
  274.44        2973.00           1538         673.00      2905.64
  274.46        2973.25           1541         194.00       817.37
  274.49        2973.50           1545          48.00       180.91
  274.52        2973.75           1548          35.00       124.24
  274.55        2974.00           1551          31.00       106.80
  274.57        2974.25           1555          24.00        76.29
  274.60        2974.50           1558          24.00        76.29
  274.63        2974.75           1561          20.00        58.85
  274.66        2975.00           1565          21.00        63.21
  274.68        2975.25           1568          24.00        76.29
  274.71        2975.50           1571          21.00        63.21
  274.74        2975.75           1575          27.00        89.36
  274.76        2976.00           1578          24.00        76.29
  274.79        2976.25           1581          28.00        93.72
  274.82        2976.50           1585          18.00        50.13
  274.85        2976.75           1588          21.00        63.21
  274.87        2977.00           1591          20.00        58.85
  274.90        2977.25           1595          22.00        67.57
  274.93        2977.50           1598          19.00        54.49
  274.95        2977.75           1601          21.00        63.21
  274.98        2978.00           1605          22.00        67.57
  275.01        2978.25           1608          21.00        63.21
  275.04        2978.50           1611          22.00        67.57
  275.06        2978.75           1615          19.00        54.49
  275.09        2979.00           1618          23.00        71.93
  275.12        2979.25           1621          19.00        54.49
  275.14        2979.50           1625          18.00        50.13
  275.17        2979.75           1628          21.00        63.21
  275.20        2980.00           1631          22.00        67.57
  275.23        2980.25           1635          20.00        58.85
  275.25        2980.50           1638          21.00        63.21
  275.28        2980.75           1641          17.00        45.77
  275.31        2981.00           1645          20.00        58.85
  275.33        2981.25           1648          19.00        54.49
  275.36        2981.50           1651          20.00        58.85
  275.39        2981.75           1655          17.00        45.77
  275.42        2982.00           1658          19.00        54.49
  275.44        2982.25           1661          17.00        45.77
  275.47        2982.50           1665          17.00        45.77
  275.50        2982.75           1668          21.00        63.21
  275.52        2983.00           1671          12.00        23.98
  275.55        2983.25           1675          21.00        63.21
  275.58        2983.50           1678          18.00        50.13
  275.61        2983.75           1681          16.00        41.41
  275.63        2984.00           1685          16.00        41.41
HS scan finished at 04:35:49
end
