************************************************************
  HS Scan of (1) Internal mercury lamp
************************************************************
Integration time is 0.2294 seconds per sample
dh160119Tamanrasset 22.79-5.529 4.974364pr865
************************************************************
Dead Time -------------------------  2.8E-08 
Number of Cycles Used -------------  4 
Starting Wavelength (Angstroms) ---  2950 
Final Wavelength (Angstoms) -------  2984 
Wavelength Increment (Angstroms) --  .25 
Filter Wheel #1 Position ---------- (1) Ground quartz diffuser (ND=2.32)
Filter Wheel #2 Position ---------- (1) Neutral Density 0.494



************************************************************
HS scan start time = 04:32:03
Dark Count =  6.3 


Time (GMT)  Wavelength (Ang)  Step Number  Raw Counts  Counts/Second

  272.41        2950.00           1233          19.00        55.36
  272.47        2950.25           1236          19.00        55.36
  272.50        2950.50           1239          19.00        55.36
  272.53        2950.75           1242          19.00        55.36
  272.55        2951.00           1246          19.00        55.36
  272.58        2951.25           1249          21.00        64.08
  272.61        2951.50           1252          19.00        55.36
  272.63        2951.75           1256          20.00        59.72
  272.66        2952.00           1259          15.00        37.93
  272.69        2952.25           1262          22.00        68.44
  272.72        2952.50           1266          22.00        68.44
  272.74        2952.75           1269          18.00        51.00
  272.77        2953.00           1272          18.00        51.00
  272.80        2953.25           1276          15.00        37.93
  272.82        2953.50           1279          21.00        64.08
  272.85        2953.75           1282          17.00        46.64
  272.88        2954.00           1286          20.00        59.72
  272.91        2954.25           1289          21.00        64.08
  272.93        2954.50           1292          18.00        51.00
  272.96        2954.75           1295          19.00        55.36
  272.99        2955.00           1299          19.00        55.36
  273.01        2955.25           1302          23.00        72.80
  273.04        2955.50           1305          16.00        42.28
  273.07        2955.75           1309          17.00        46.64
  273.10        2956.00           1312          18.00        51.00
  273.12        2956.25           1315          27.00        90.24
  273.15        2956.50           1319          16.00        42.28
  273.18        2956.75           1322          19.00        55.36
  273.20        2957.00           1325          23.00        72.80
  273.23        2957.25           1329          19.00        55.36
  273.26        2957.50           1332          18.00        51.00
  273.29        2957.75           1335          18.00        51.00
  273.31        2958.00           1339          21.00        64.08
  273.34        2958.25           1342          20.00        59.72
  273.37        2958.50           1345          19.00        55.36
  273.39        2958.75           1348          16.00        42.28
  273.42        2959.00           1352          18.00        51.00
  273.45        2959.25           1355          21.00        64.08
  273.48        2959.50           1358          17.00        46.64
  273.50        2959.75           1362          26.00        85.88
  273.53        2960.00           1365          21.00        64.08
  273.56        2960.25           1368          23.00        72.80
  273.58        2960.50           1372          27.00        90.24
  273.61        2960.75           1375          32.00       112.03
  273.64        2961.00           1378          78.00       312.56
  273.67        2961.25           1382         400.00      1716.30
  273.69        2961.50           1385         979.00      4240.70
  273.72        2961.75           1388        2041.00      8871.86
  273.75        2962.00           1392        4156.00     18098.54
  273.77        2962.25           1395        6115.00     26648.91
  273.80        2962.50           1398        8170.00     35622.70
  273.83        2962.75           1402       10693.00     46646.33
  273.86        2963.00           1405       12883.00     56220.52
  273.88        2963.25           1408       14975.00     65371.07
  273.91        2963.50           1412       17507.00     76452.50
  273.94        2963.75           1415       19645.00     85814.93
  273.97        2964.00           1418       21738.00     94985.07
  273.99        2964.25           1422       24599.00    107527.70
  274.02        2964.50           1425       26744.00    116937.20
  274.05        2964.75           1428       28768.00    125820.40
  274.07        2965.00           1431       30947.00    135388.90
  274.10        2965.25           1435       33800.00    147924.90
  274.13        2965.50           1438       35816.00    156788.40
  274.16        2965.75           1441       38113.00    166892.70
  274.18        2966.00           1445       40569.00    177702.90
  274.21        2966.25           1448       42730.00    187219.90
  274.24        2966.50           1451       44214.00    193758.50
  274.27        2966.75           1455       45190.00    198060.00
  274.29        2967.00           1458       45583.00    199792.40
  274.32        2967.25           1461       45760.00    200572.70
  274.35        2967.50           1465       45705.00    200330.20
  274.38        2967.75           1468       45254.00    198342.10
  274.40        2968.00           1471       44488.00    194966.00
  274.43        2968.25           1475       42856.00    187775.00
  274.46        2968.50           1478       41252.00    180710.20
  274.48        2968.75           1481       38785.00    169849.90
  274.51        2969.00           1485       36022.00    157694.30
  274.54        2969.25           1488       33638.00    147212.80
  274.57        2969.50           1491       31601.00    138261.80
  274.59        2969.75           1495       28556.00    124889.80
  274.62        2970.00           1498       26358.00    115243.50
  274.65        2970.25           1501       24080.00    105251.80
  274.68        2970.50           1505       21319.00     93148.90
  274.70        2970.75           1508       19018.00     83068.75
  274.73        2971.00           1511       17203.00     75121.66
  274.76        2971.25           1515       14231.00     62116.23
  274.79        2971.50           1518       12142.00     52980.46
  274.81        2971.75           1521       10011.00     43665.83
  274.84        2972.00           1525        7372.00     32137.45
  274.87        2972.25           1528        5180.00     22567.44
  274.89        2972.50           1531        3349.00     14577.44
  274.92        2972.75           1535        1487.00      6455.83
  274.95        2973.00           1538         573.00      2470.53
  274.98        2973.25           1541         186.00       783.37
  275.00        2973.50           1545          46.00       173.06
  275.03        2973.75           1548          36.00       129.47
  275.06        2974.00           1551          27.00        90.24
  275.08        2974.25           1555          24.00        77.16
  275.11        2974.50           1558          23.00        72.80
  275.14        2974.75           1561          22.00        68.44
  275.17        2975.00           1565          24.00        77.16
  275.19        2975.25           1568          22.00        68.44
  275.22        2975.50           1571          21.00        64.08
  275.25        2975.75           1575          20.00        59.72
  275.28        2976.00           1578          17.00        46.64
  275.30        2976.25           1581          23.00        72.80
  275.33        2976.50           1585          23.00        72.80
  275.36        2976.75           1588          18.00        51.00
  275.38        2977.00           1591          22.00        68.44
  275.41        2977.25           1595          19.00        55.36
  275.44        2977.50           1598          19.00        55.36
  275.46        2977.75           1601          22.00        68.44
  275.49        2978.00           1605          15.00        37.93
  275.52        2978.25           1608          19.00        55.36
  275.55        2978.50           1611          18.00        51.00
  275.57        2978.75           1615          20.00        59.72
  275.60        2979.00           1618          23.00        72.80
  275.63        2979.25           1621          27.00        90.24
  275.65        2979.50           1625          24.00        77.16
  275.68        2979.75           1628          23.00        72.80
  275.71        2980.00           1631          18.00        51.00
  275.74        2980.25           1635          19.00        55.36
  275.76        2980.50           1638          18.00        51.00
  275.79        2980.75           1641          21.00        64.08
  275.82        2981.00           1645          19.00        55.36
  275.84        2981.25           1648          18.00        51.00
  275.87        2981.50           1651          22.00        68.44
  275.90        2981.75           1655          18.00        51.00
  275.93        2982.00           1658          18.00        51.00
  275.95        2982.25           1661          20.00        59.72
  275.98        2982.50           1665          19.00        55.36
  276.01        2982.75           1668          19.00        55.36
  276.03        2983.00           1671          20.00        59.72
  276.06        2983.25           1675          24.00        77.16
  276.09        2983.50           1678          18.00        51.00
  276.12        2983.75           1681          19.00        55.36
  276.14        2984.00           1685          16.00        42.28
HS scan finished at 04:36:20
end
