************************************************************
  HS Scan of (1) Internal mercury lamp
************************************************************
Integration time is 0.2294 seconds per sample
dh130119Tamanrasset 22.79-5.529 4.974364pr865
************************************************************
Dead Time -------------------------  2.8E-08 
Number of Cycles Used -------------  4 
Starting Wavelength (Angstroms) ---  2950 
Final Wavelength (Angstoms) -------  2984 
Wavelength Increment (Angstroms) --  .25 
Filter Wheel #1 Position ---------- (1) Ground quartz diffuser (ND=2.32)
Filter Wheel #2 Position ---------- (1) Neutral Density 0.494



************************************************************
HS scan start time = 04:31:22
Dark Count =  5.4 


Time (GMT)  Wavelength (Ang)  Step Number  Raw Counts  Counts/Second

  271.72        2950.00           1233          16.00        46.21
  271.78        2950.25           1236          20.00        63.64
  271.81        2950.50           1239          19.00        59.29
  271.84        2950.75           1242          18.00        54.93
  271.86        2951.00           1246          17.00        50.57
  271.89        2951.25           1249          21.00        68.00
  271.92        2951.50           1252          22.00        72.36
  271.94        2951.75           1256          22.00        72.36
  271.97        2952.00           1259          24.00        81.08
  272.00        2952.25           1262          20.00        63.64
  272.03        2952.50           1266          19.00        59.29
  272.05        2952.75           1269          16.00        46.21
  272.08        2953.00           1272          20.00        63.64
  272.11        2953.25           1276          18.00        54.93
  272.14        2953.50           1279          21.00        68.00
  272.16        2953.75           1282          19.00        59.29
  272.19        2954.00           1286          16.00        46.21
  272.22        2954.25           1289          19.00        59.29
  272.24        2954.50           1292          22.00        72.36
  272.27        2954.75           1295          19.00        59.29
  272.30        2955.00           1299          23.00        76.72
  272.32        2955.25           1302          25.00        85.44
  272.35        2955.50           1305          22.00        72.36
  272.38        2955.75           1309          22.00        72.36
  272.41        2956.00           1312          17.00        50.57
  272.43        2956.25           1315          16.00        46.21
  272.46        2956.50           1319          18.00        54.93
  272.49        2956.75           1322          22.00        72.36
  272.52        2957.00           1325          17.00        50.57
  272.54        2957.25           1329          21.00        68.00
  272.57        2957.50           1332          20.00        63.64
  272.60        2957.75           1335          22.00        72.36
  272.62        2958.00           1339          18.00        54.93
  272.65        2958.25           1342          19.00        59.29
  272.68        2958.50           1345          24.00        81.08
  272.70        2958.75           1348          19.00        59.29
  272.73        2959.00           1352          25.00        85.44
  272.76        2959.25           1355          19.00        59.29
  272.79        2959.50           1358          21.00        68.00
  272.81        2959.75           1362          20.00        63.64
  272.84        2960.00           1365          21.00        68.00
  272.87        2960.25           1368          31.00       111.60
  272.89        2960.50           1372          30.00       107.24
  272.92        2960.75           1375          32.00       115.96
  272.95        2961.00           1378          86.00       351.35
  272.98        2961.25           1382         446.00      1920.77
  273.00        2961.50           1385        1090.00      4728.61
  273.03        2961.75           1388        2148.00      9342.46
  273.06        2962.00           1392        4361.00     18997.03
  273.09        2962.25           1395        6185.00     26958.44
  273.11        2962.50           1398        8249.00     35971.70
  273.14        2962.75           1402       11011.00     48040.17
  273.17        2963.00           1405       13172.00     57488.28
  273.19        2963.25           1408       15299.00     66792.63
  273.22        2963.50           1412       17931.00     78312.78
  273.25        2963.75           1415       20019.00     87457.14
  273.28        2964.00           1418       22034.00     96286.27
  273.30        2964.25           1422       25000.00    109290.40
  273.33        2964.50           1425       26887.00    117568.60
  273.36        2964.75           1428       29095.00    127260.00
  273.39        2965.00           1431       31252.00    136732.60
  273.41        2965.25           1435       34207.00    149717.90
  273.44        2965.50           1438       36282.00    158841.80
  273.47        2965.75           1441       38387.00    168102.40
  273.50        2966.00           1445       41065.00    179890.80
  273.52        2966.25           1448       43104.00    188871.50
  273.55        2966.50           1451       44118.00    193339.40
  273.58        2966.75           1455       45270.00    198416.60
  273.60        2967.00           1458       45719.00    200395.90
  273.63        2967.25           1461       45888.00    201141.00
  273.66        2967.50           1465       45578.00    199774.40
  273.69        2967.75           1468       45303.00    198562.10
  273.71        2968.00           1471       44565.00    195309.30
  273.74        2968.25           1475       42617.00    186726.10
  273.77        2968.50           1478       40811.00    178772.30
  273.80        2968.75           1481       38708.00    169515.00
  273.82        2969.00           1485       35965.00    157447.60
  273.85        2969.25           1488       33649.00    147265.10
  273.88        2969.50           1491       31524.00    137927.50
  273.91        2969.75           1495       28660.00    125350.30
  273.93        2970.00           1498       26376.00    115326.50
  273.96        2970.25           1501       24246.00    105983.60
  273.99        2970.50           1505       21260.00     92894.32
  274.01        2970.75           1508       19251.00     84093.16
  274.04        2971.00           1511       17095.00     74652.83
  274.07        2971.25           1515       14197.00     61971.44
  274.10        2971.50           1518       12065.00     52647.74
  274.12        2971.75           1521       10049.00     43835.82
  274.15        2972.00           1525        7176.00     31285.46
  274.18        2972.25           1528        5164.00     22501.53
  274.20        2972.50           1531        3308.00     14402.50
  274.23        2972.75           1535        1440.00      6254.80
  274.26        2973.00           1538         572.00      2470.09
  274.29        2973.25           1541         188.00       796.01
  274.31        2973.50           1545          49.00       190.06
  274.34        2973.75           1548          35.00       129.03
  274.37        2974.00           1551          28.00        98.52
  274.40        2974.25           1555          26.00        89.80
  274.42        2974.50           1558          21.00        68.00
  274.45        2974.75           1561          24.00        81.08
  274.48        2975.00           1565          20.00        63.64
  274.50        2975.25           1568          20.00        63.64
  274.53        2975.50           1571          20.00        63.64
  274.56        2975.75           1575          19.00        59.29
  274.59        2976.00           1578          18.00        54.93
  274.61        2976.25           1581          21.00        68.00
  274.64        2976.50           1585          21.00        68.00
  274.67        2976.75           1588          19.00        59.29
  274.69        2977.00           1591          23.00        76.72
  274.72        2977.25           1595          20.00        63.64
  274.75        2977.50           1598          19.00        59.29
  274.78        2977.75           1601          21.00        68.00
  274.80        2978.00           1605          23.00        76.72
  274.83        2978.25           1608          20.00        63.64
  274.86        2978.50           1611          17.00        50.57
  274.88        2978.75           1615          23.00        76.72
  274.91        2979.00           1618          17.00        50.57
  274.94        2979.25           1621          21.00        68.00
  274.97        2979.50           1625          21.00        68.00
  274.99        2979.75           1628          20.00        63.64
  275.02        2980.00           1631          23.00        76.72
  275.05        2980.25           1635          19.00        59.29
  275.07        2980.50           1638          22.00        72.36
  275.10        2980.75           1641          19.00        59.29
  275.13        2981.00           1645          19.00        59.29
  275.16        2981.25           1648          20.00        63.64
  275.18        2981.50           1651          21.00        68.00
  275.21        2981.75           1655          20.00        63.64
  275.24        2982.00           1658          21.00        68.00
  275.26        2982.25           1661          18.00        54.93
  275.29        2982.50           1665          22.00        72.36
  275.32        2982.75           1668          14.00        37.49
  275.35        2983.00           1671          18.00        54.93
  275.37        2983.25           1675          21.00        68.00
  275.40        2983.50           1678          22.00        72.36
  275.43        2983.75           1681          22.00        72.36
  275.45        2984.00           1685          16.00        46.21
HS scan finished at 04:35:39
end
