************************************************************
  HS Scan of (1) Internal mercury lamp
************************************************************
Integration time is 0.2294 seconds per sample
dh180119Tamanrasset 22.79-5.529 4.974364pr865
************************************************************
Dead Time -------------------------  2.8E-08 
Number of Cycles Used -------------  4 
Starting Wavelength (Angstroms) ---  2950 
Final Wavelength (Angstoms) -------  2984 
Wavelength Increment (Angstroms) --  .25 
Filter Wheel #1 Position ---------- (1) Ground quartz diffuser (ND=2.32)
Filter Wheel #2 Position ---------- (1) Neutral Density 0.494



************************************************************
HS scan start time = 04:31:39
Dark Count =  5.1 


Time (GMT)  Wavelength (Ang)  Step Number  Raw Counts  Counts/Second

  272.00        2950.00           1233          17.00        51.87
  272.06        2950.25           1236          17.00        51.87
  272.09        2950.50           1239          19.00        60.59
  272.12        2950.75           1242          21.00        69.31
  272.15        2951.00           1246          16.00        47.52
  272.17        2951.25           1249          16.00        47.52
  272.20        2951.50           1252          20.00        64.95
  272.23        2951.75           1256          20.00        64.95
  272.25        2952.00           1259          18.00        56.23
  272.28        2952.25           1262          20.00        64.95
  272.31        2952.50           1266          17.00        51.87
  272.34        2952.75           1269          20.00        64.95
  272.36        2953.00           1272          19.00        60.59
  272.39        2953.25           1276          21.00        69.31
  272.42        2953.50           1279          19.00        60.59
  272.44        2953.75           1282          15.00        43.16
  272.47        2954.00           1286          17.00        51.87
  272.50        2954.25           1289          20.00        64.95
  272.53        2954.50           1292          20.00        64.95
  272.55        2954.75           1295          19.00        60.59
  272.58        2955.00           1299          16.00        47.52
  272.61        2955.25           1302          21.00        69.31
  272.63        2955.50           1305          22.00        73.67
  272.66        2955.75           1309          23.00        78.03
  272.69        2956.00           1312          15.00        43.16
  272.72        2956.25           1315          19.00        60.59
  272.74        2956.50           1319          19.00        60.59
  272.77        2956.75           1322          18.00        56.23
  272.80        2957.00           1325          18.00        56.23
  272.82        2957.25           1329          18.00        56.23
  272.85        2957.50           1332          23.00        78.03
  272.88        2957.75           1335          17.00        51.87
  272.91        2958.00           1339          21.00        69.31
  272.93        2958.25           1342          15.00        43.16
  272.96        2958.50           1345          16.00        47.52
  272.99        2958.75           1348          20.00        64.95
  273.01        2959.00           1352          20.00        64.95
  273.04        2959.25           1355          16.00        47.52
  273.07        2959.50           1358          24.00        82.39
  273.10        2959.75           1362          19.00        60.59
  273.12        2960.00           1365          23.00        78.03
  273.15        2960.25           1368          26.00        91.11
  273.18        2960.50           1372          27.00        95.47
  273.20        2960.75           1375          26.00        91.11
  273.23        2961.00           1378          72.00       291.63
  273.26        2961.25           1382         317.00      1359.69
  273.29        2961.50           1385         845.00      3661.67
  273.31        2961.75           1388        1790.00      7782.43
  273.34        2962.00           1392        3677.00     16013.72
  273.37        2962.25           1395        5527.00     24087.30
  273.39        2962.50           1398        7653.00     33369.88
  273.42        2962.75           1402       10257.00     44746.09
  273.45        2963.00           1405       12437.00     54275.54
  273.48        2963.25           1408       14499.00     63293.86
  273.50        2963.50           1412       17285.00     75485.90
  273.53        2963.75           1415       19357.00     84558.74
  273.56        2964.00           1418       21274.00     92956.99
  273.59        2964.25           1422       24061.00    105173.70
  273.61        2964.50           1425       26114.00    114178.30
  273.64        2964.75           1428       28110.00    122937.30
  273.67        2965.00           1431       30068.00    131533.70
  273.70        2965.25           1435       33073.00    144734.90
  273.72        2965.50           1438       35233.00    154230.00
  273.75        2965.75           1441       37421.00    163853.30
  273.78        2966.00           1445       40085.00    175577.30
  273.80        2966.25           1448       42252.00    185119.70
  273.83        2966.50           1451       43717.00    191573.70
  273.86        2966.75           1455       44875.00    196676.90
  273.89        2967.00           1458       45477.00    199330.40
  273.91        2967.25           1461       45652.00    200101.90
  273.94        2967.50           1465       45529.00    199559.70
  273.97        2967.75           1468       45414.00    199052.70
  274.00        2968.00           1471       44652.00    195694.00
  274.02        2968.25           1475       43283.00    189661.40
  274.05        2968.50           1478       41452.00    181596.30
  274.08        2968.75           1481       39395.00    172539.90
  274.11        2969.00           1485       36489.00    159753.50
  274.13        2969.25           1488       34339.00    150299.50
  274.16        2969.50           1491       31866.00    139431.30
  274.19        2969.75           1495       29064.00    127125.20
  274.21        2970.00           1498       26852.00    117416.40
  274.24        2970.25           1501       24547.00    107304.90
  274.27        2970.50           1505       22021.00     96230.61
  274.30        2970.75           1508       19716.00     86131.19
  274.32        2971.00           1511       17467.00     76282.65
  274.35        2971.25           1515       14710.00     64216.94
  274.38        2971.50           1518       12738.00     55591.71
  274.41        2971.75           1521       10491.00     45768.74
  274.43        2972.00           1525        7773.00     33893.97
  274.46        2972.25           1528        5747.00     25047.64
  274.49        2972.50           1531        3884.00     16916.90
  274.52        2972.75           1535        1747.00      7594.90
  274.54        2973.00           1538         787.00      3408.78
  274.57        2973.25           1541         265.00      1132.99
  274.60        2973.50           1545          53.00       208.81
  274.62        2973.75           1548          33.00       121.62
  274.65        2974.00           1551          29.00       104.19
  274.68        2974.25           1555          24.00        82.39
  274.71        2974.50           1558          26.00        91.11
  274.73        2974.75           1561          23.00        78.03
  274.76        2975.00           1565          22.00        73.67
  274.79        2975.25           1568          23.00        78.03
  274.81        2975.50           1571          25.00        86.75
  274.84        2975.75           1575          25.00        86.75
  274.87        2976.00           1578          21.00        69.31
  274.90        2976.25           1581          17.00        51.87
  274.92        2976.50           1585          21.00        69.31
  274.95        2976.75           1588          20.00        64.95
  274.98        2977.00           1591          19.00        60.59
  275.00        2977.25           1595          18.00        56.23
  275.03        2977.50           1598          25.00        86.75
  275.06        2977.75           1601          18.00        56.23
  275.09        2978.00           1605          25.00        86.75
  275.11        2978.25           1608          27.00        95.47
  275.14        2978.50           1611          19.00        60.59
  275.17        2978.75           1615          17.00        51.87
  275.19        2979.00           1618          23.00        78.03
  275.22        2979.25           1621          22.00        73.67
  275.25        2979.50           1625          22.00        73.67
  275.28        2979.75           1628          22.00        73.67
  275.30        2980.00           1631          24.00        82.39
  275.33        2980.25           1635          23.00        78.03
  275.36        2980.50           1638          22.00        73.67
  275.38        2980.75           1641          22.00        73.67
  275.41        2981.00           1645          17.00        51.87
  275.44        2981.25           1648          19.00        60.59
  275.47        2981.50           1651          26.00        91.11
  275.49        2981.75           1655          22.00        73.67
  275.52        2982.00           1658          22.00        73.67
  275.55        2982.25           1661          21.00        69.31
  275.57        2982.50           1665          17.00        51.87
  275.60        2982.75           1668          16.00        47.52
  275.63        2983.00           1671          20.00        64.95
  275.66        2983.25           1675          16.00        47.52
  275.68        2983.50           1678          20.00        64.95
  275.71        2983.75           1681          23.00        78.03
  275.74        2984.00           1685          18.00        56.23
HS scan finished at 04:35:55
end
