************************************************************
  HS Scan of (1) Internal mercury lamp
************************************************************
Integration time is 0.2294 seconds per sample
dh170119Tamanrasset 22.79-5.529 4.974364pr865
************************************************************
Dead Time -------------------------  2.8E-08 
Number of Cycles Used -------------  4 
Starting Wavelength (Angstroms) ---  2950 
Final Wavelength (Angstoms) -------  2984 
Wavelength Increment (Angstroms) --  .25 
Filter Wheel #1 Position ---------- (1) Ground quartz diffuser (ND=2.32)
Filter Wheel #2 Position ---------- (1) Neutral Density 0.494



************************************************************
HS scan start time = 04:31:56
Dark Count =  4.7 


Time (GMT)  Wavelength (Ang)  Step Number  Raw Counts  Counts/Second

  272.30        2950.00           1233          17.00        53.62
  272.36        2950.25           1236          15.00        44.90
  272.39        2950.50           1239          22.00        75.41
  272.42        2950.75           1242          18.00        57.98
  272.44        2951.00           1246          21.00        71.06
  272.47        2951.25           1249          18.00        57.98
  272.50        2951.50           1252          19.00        62.34
  272.53        2951.75           1256          17.00        53.62
  272.55        2952.00           1259          19.00        62.34
  272.58        2952.25           1262          20.00        66.70
  272.61        2952.50           1266          19.00        62.34
  272.63        2952.75           1269          17.00        53.62
  272.66        2953.00           1272          21.00        71.06
  272.69        2953.25           1276          17.00        53.62
  272.71        2953.50           1279          18.00        57.98
  272.74        2953.75           1282          18.00        57.98
  272.77        2954.00           1286          19.00        62.34
  272.80        2954.25           1289          18.00        57.98
  272.82        2954.50           1292          17.00        53.62
  272.85        2954.75           1295          21.00        71.06
  272.88        2955.00           1299          21.00        71.06
  272.91        2955.25           1302          19.00        62.34
  272.93        2955.50           1305          16.00        49.26
  272.96        2955.75           1309          19.00        62.34
  272.99        2956.00           1312          19.00        62.34
  273.01        2956.25           1315          20.00        66.70
  273.04        2956.50           1319          17.00        53.62
  273.07        2956.75           1322          21.00        71.06
  273.10        2957.00           1325          21.00        71.06
  273.12        2957.25           1329          22.00        75.41
  273.15        2957.50           1332          21.00        71.06
  273.18        2957.75           1335          18.00        57.98
  273.20        2958.00           1339          19.00        62.34
  273.23        2958.25           1342          20.00        66.70
  273.26        2958.50           1345          20.00        66.70
  273.29        2958.75           1348          21.00        71.06
  273.31        2959.00           1352          24.00        84.13
  273.34        2959.25           1355          18.00        57.98
  273.37        2959.50           1358          22.00        75.41
  273.39        2959.75           1362          26.00        92.85
  273.42        2960.00           1365          22.00        75.41
  273.45        2960.25           1368          27.00        97.21
  273.48        2960.50           1372          32.00       119.01
  273.50        2960.75           1375          32.00       119.01
  273.53        2961.00           1378          69.00       280.30
  273.56        2961.25           1382         366.00      1575.05
  273.58        2961.50           1385         914.00      3964.26
  273.61        2961.75           1388        1868.00      8124.34
  273.64        2962.00           1392        3832.00     16691.76
  273.67        2962.25           1395        5723.00     24944.62
  273.69        2962.50           1398        7871.00     34323.73
  273.72        2962.75           1402       10507.00     45840.41
  273.75        2963.00           1405       12531.00     54688.30
  273.78        2963.25           1408       14803.00     64625.56
  273.80        2963.50           1412       17480.00     76341.31
  273.83        2963.75           1415       19538.00     85353.27
  273.86        2964.00           1418       21759.00     95084.11
  273.89        2964.25           1422       24468.00    106960.20
  273.91        2964.50           1425       26475.00    115763.90
  273.94        2964.75           1428       28810.00    126011.80
  273.97        2965.00           1431       30762.00    134583.40
  273.99        2965.25           1435       33728.00    147615.40
  274.02        2965.50           1438       35850.00    156944.90
  274.05        2965.75           1441       37890.00    165918.60
  274.08        2966.00           1445       40848.00    178938.30
  274.10        2966.25           1448       42575.00    186544.20
  274.13        2966.50           1451       44106.00    193289.60
  274.16        2966.75           1455       45147.00    197877.60
  274.19        2967.00           1458       45712.00    200368.20
  274.21        2967.25           1461       45840.00    200932.40
  274.24        2967.50           1465       45596.00    199856.80
  274.27        2967.75           1468       45384.00    198922.20
  274.30        2968.00           1471       44487.00    194968.60
  274.32        2968.25           1475       42623.00    186755.60
  274.35        2968.50           1478       40952.00    179396.30
  274.38        2968.75           1481       38846.00    170125.40
  274.40        2969.00           1485       35984.00    157534.30
  274.43        2969.25           1488       33660.00    147316.50
  274.46        2969.50           1491       31375.00    137276.00
  274.49        2969.75           1495       28442.00    124396.40
  274.51        2970.00           1498       26163.00    114395.00
  274.54        2970.25           1501       24145.00    105543.80
  274.57        2970.50           1505       21221.00     92726.49
  274.60        2970.75           1508       19003.00     83010.06
  274.62        2971.00           1511       16925.00     73911.75
  274.65        2971.25           1515       14088.00     61497.70
  274.68        2971.50           1518       11949.00     52143.64
  274.71        2971.75           1521        9932.00     43327.60
  274.73        2972.00           1525        7250.00     31611.67
  274.76        2972.25           1528        5253.00     22893.05
  274.79        2972.50           1531        3331.00     14505.89
  274.81        2972.75           1535        1509.00      6558.75
  274.84        2973.00           1538         605.00      2617.02
  274.87        2973.25           1541         214.00       912.40
  274.90        2973.50           1545          50.00       197.47
  274.92        2973.75           1548          37.00       140.80
  274.95        2974.00           1551          31.00       114.65
  274.98        2974.25           1555          24.00        84.13
  275.01        2974.50           1558          25.00        88.49
  275.03        2974.75           1561          24.00        84.13
  275.06        2975.00           1565          20.00        66.70
  275.09        2975.25           1568          21.00        71.06
  275.11        2975.50           1571          23.00        79.77
  275.14        2975.75           1575          21.00        71.06
  275.17        2976.00           1578          19.00        62.34
  275.19        2976.25           1581          22.00        75.41
  275.22        2976.50           1585          19.00        62.34
  275.25        2976.75           1588          22.00        75.41
  275.28        2977.00           1591          20.00        66.70
  275.30        2977.25           1595          22.00        75.41
  275.33        2977.50           1598          18.00        57.98
  275.36        2977.75           1601          19.00        62.34
  275.38        2978.00           1605          20.00        66.70
  275.41        2978.25           1608          21.00        71.06
  275.44        2978.50           1611          18.00        57.98
  275.47        2978.75           1615          22.00        75.41
  275.49        2979.00           1618          18.00        57.98
  275.52        2979.25           1621          18.00        57.98
  275.55        2979.50           1625          19.00        62.34
  275.57        2979.75           1628          20.00        66.70
  275.60        2980.00           1631          17.00        53.62
  275.63        2980.25           1635          23.00        79.77
  275.66        2980.50           1638          19.00        62.34
  275.68        2980.75           1641          21.00        71.06
  275.71        2981.00           1645          26.00        92.85
  275.74        2981.25           1648          18.00        57.98
  275.76        2981.50           1651          18.00        57.98
  275.79        2981.75           1655          20.00        66.70
  275.82        2982.00           1658          20.00        66.70
  275.85        2982.25           1661          20.00        66.70
  275.87        2982.50           1665          18.00        57.98
  275.90        2982.75           1668          17.00        53.62
  275.93        2983.00           1671          19.00        62.34
  275.95        2983.25           1675          16.00        49.26
  275.98        2983.50           1678          18.00        57.98
  276.01        2983.75           1681          15.00        44.90
  276.04        2984.00           1685          18.00        57.98
HS scan finished at 04:36:13
end
