************************************************************
  HS Scan of (1) Internal mercury lamp
************************************************************
Integration time is 0.2294 seconds per sample
dh100119Tamanrasset 22.79-5.529 4.974364pr865
************************************************************
Dead Time -------------------------  2.8E-08 
Number of Cycles Used -------------  4 
Starting Wavelength (Angstroms) ---  2950 
Final Wavelength (Angstoms) -------  2984 
Wavelength Increment (Angstroms) --  .25 
Filter Wheel #1 Position ---------- (1) Ground quartz diffuser (ND=2.32)
Filter Wheel #2 Position ---------- (1) Neutral Density 0.494



************************************************************
HS scan start time = 04:31:32
Dark Count =  4.7 


Time (GMT)  Wavelength (Ang)  Step Number  Raw Counts  Counts/Second

  271.90        2950.00           1233          21.00        71.06
  271.96        2950.25           1236          17.00        53.62
  271.99        2950.50           1239          20.00        66.70
  272.02        2950.75           1242          18.00        57.98
  272.04        2951.00           1246          16.00        49.26
  272.07        2951.25           1249          18.00        57.98
  272.10        2951.50           1252          22.00        75.41
  272.12        2951.75           1256          20.00        66.70
  272.15        2952.00           1259          18.00        57.98
  272.18        2952.25           1262          20.00        66.70
  272.21        2952.50           1266          18.00        57.98
  272.23        2952.75           1269          20.00        66.70
  272.26        2953.00           1272          17.00        53.62
  272.29        2953.25           1276          26.00        92.85
  272.31        2953.50           1279          21.00        71.06
  272.34        2953.75           1282          22.00        75.41
  272.37        2954.00           1286          18.00        57.98
  272.40        2954.25           1289          24.00        84.13
  272.42        2954.50           1292          18.00        57.98
  272.45        2954.75           1295          18.00        57.98
  272.48        2955.00           1299          19.00        62.34
  272.51        2955.25           1302          25.00        88.49
  272.53        2955.50           1305          20.00        66.70
  272.56        2955.75           1309          18.00        57.98
  272.59        2956.00           1312          22.00        75.41
  272.61        2956.25           1315          19.00        62.34
  272.64        2956.50           1319          17.00        53.62
  272.67        2956.75           1322          19.00        62.34
  272.69        2957.00           1325          21.00        71.06
  272.72        2957.25           1329          18.00        57.98
  272.75        2957.50           1332          22.00        75.41
  272.78        2957.75           1335          20.00        66.70
  272.80        2958.00           1339          21.00        71.06
  272.83        2958.25           1342          23.00        79.77
  272.86        2958.50           1345          18.00        57.98
  272.88        2958.75           1348          17.00        53.62
  272.91        2959.00           1352          19.00        62.34
  272.94        2959.25           1355          24.00        84.13
  272.97        2959.50           1358          17.00        53.62
  272.99        2959.75           1362          21.00        71.06
  273.02        2960.00           1365          20.00        66.70
  273.05        2960.25           1368          29.00       105.93
  273.07        2960.50           1372          28.00       101.57
  273.10        2960.75           1375          38.00       145.16
  273.13        2961.00           1378          71.00       289.02
  273.16        2961.25           1382         333.00      1431.18
  273.18        2961.50           1385         906.00      3929.38
  273.21        2961.75           1388        1885.00      8198.48
  273.24        2962.00           1392        3886.00     16927.38
  273.27        2962.25           1395        5765.00     25127.96
  273.29        2962.50           1398        7916.00     34520.27
  273.32        2962.75           1402       10521.00     45901.59
  273.35        2963.00           1405       12745.00     55624.05
  273.37        2963.25           1408       14869.00     64914.31
  273.40        2963.50           1412       17584.00     76796.61
  273.43        2963.75           1415       19779.00     86408.90
  273.46        2964.00           1418       21825.00     95373.36
  273.48        2964.25           1422       24588.00    107486.50
  273.51        2964.50           1425       26634.00    116461.60
  273.54        2964.75           1428       29206.00    127750.40
  273.57        2965.00           1431       30998.00    135620.00
  273.59        2965.25           1435       34060.00    149074.80
  273.62        2965.50           1438       36218.00    158563.40
  273.65        2965.75           1441       38348.00    167933.80
  273.67        2966.00           1445       40948.00    179378.70
  273.70        2966.25           1448       42866.00    187826.10
  273.73        2966.50           1451       44322.00    194241.50
  273.76        2966.75           1455       45156.00    197917.20
  273.78        2967.00           1458       45841.00    200936.90
  273.81        2967.25           1461       46040.00    201814.20
  273.84        2967.50           1465       45748.00    200526.90
  273.87        2967.75           1468       45396.00    198975.10
  273.89        2968.00           1471       44584.00    195396.10
  273.92        2968.25           1475       42834.00    187685.10
  273.95        2968.50           1478       40966.00    179457.90
  273.98        2968.75           1481       39046.00    171005.60
  274.00        2969.00           1485       36130.00    158176.40
  274.03        2969.25           1488       33902.00    148380.20
  274.06        2969.50           1491       31608.00    138299.60
  274.08        2969.75           1495       28755.00    125770.40
  274.11        2970.00           1498       26585.00    116246.60
  274.14        2970.25           1501       24365.00    106508.50
  274.17        2970.50           1505       21547.00     94155.05
  274.19        2970.75           1508       19387.00     84691.88
  274.22        2971.00           1511       17306.00     75579.57
  274.25        2971.25           1515       14342.00     62608.80
  274.28        2971.50           1518       12197.00     53227.92
  274.30        2971.75           1521       10256.00     44743.47
  274.33        2972.00           1525        7425.00     32375.89
  274.36        2972.25           1528        5404.00     23552.15
  274.38        2972.50           1531        3559.00     15500.62
  274.41        2972.75           1535        1583.00      6881.45
  274.44        2973.00           1538         653.00      2826.29
  274.47        2973.25           1541         225.00       960.36
  274.49        2973.50           1545          60.00       241.07
  274.52        2973.75           1548          35.00       132.08
  274.55        2974.00           1551          28.00       101.57
  274.58        2974.25           1555          23.00        79.77
  274.60        2974.50           1558          30.00       110.29
  274.63        2974.75           1561          16.00        49.26
  274.66        2975.00           1565          22.00        75.41
  274.68        2975.25           1568          22.00        75.41
  274.71        2975.50           1571          17.00        53.62
  274.74        2975.75           1575          17.00        53.62
  274.77        2976.00           1578          21.00        71.06
  274.79        2976.25           1581          25.00        88.49
  274.82        2976.50           1585          19.00        62.34
  274.85        2976.75           1588          19.00        62.34
  274.87        2977.00           1591          23.00        79.77
  274.90        2977.25           1595          18.00        57.98
  274.93        2977.50           1598          17.00        53.62
  274.96        2977.75           1601          22.00        75.41
  274.98        2978.00           1605          20.00        66.70
  275.01        2978.25           1608          24.00        84.13
  275.04        2978.50           1611          20.00        66.70
  275.06        2978.75           1615          23.00        79.77
  275.09        2979.00           1618          21.00        71.06
  275.12        2979.25           1621          18.00        57.98
  275.15        2979.50           1625          17.00        53.62
  275.17        2979.75           1628          18.00        57.98
  275.20        2980.00           1631          22.00        75.41
  275.23        2980.25           1635          19.00        62.34
  275.25        2980.50           1638          21.00        71.06
  275.28        2980.75           1641          16.00        49.26
  275.31        2981.00           1645          17.00        53.62
  275.34        2981.25           1648          24.00        84.13
  275.36        2981.50           1651          23.00        79.77
  275.39        2981.75           1655          25.00        88.49
  275.42        2982.00           1658          15.00        44.90
  275.44        2982.25           1661          20.00        66.70
  275.47        2982.50           1665          22.00        75.41
  275.50        2982.75           1668          19.00        62.34
  275.53        2983.00           1671          22.00        75.41
  275.55        2983.25           1675          19.00        62.34
  275.58        2983.50           1678          20.00        66.70
  275.61        2983.75           1681          21.00        71.06
  275.63        2984.00           1685          24.00        84.13
HS scan finished at 04:35:49
end
