************************************************************
  HS Scan of (1) Internal mercury lamp
************************************************************
Integration time is 0.2294 seconds per sample
dh140119Tamanrasset 22.79-5.529 4.974364pr865
************************************************************
Dead Time -------------------------  2.8E-08 
Number of Cycles Used -------------  4 
Starting Wavelength (Angstroms) ---  2950 
Final Wavelength (Angstoms) -------  2984 
Wavelength Increment (Angstroms) --  .25 
Filter Wheel #1 Position ---------- (1) Ground quartz diffuser (ND=2.32)
Filter Wheel #2 Position ---------- (1) Neutral Density 0.494



************************************************************
HS scan start time = 04:32:02
Dark Count =  5.3 


Time (GMT)  Wavelength (Ang)  Step Number  Raw Counts  Counts/Second

  272.38        2950.00           1233          20.00        64.08
  272.45        2950.25           1236          21.00        68.44
  272.48        2950.50           1239          18.00        55.36
  272.50        2950.75           1242          19.00        59.72
  272.53        2951.00           1246          20.00        64.08
  272.56        2951.25           1249          20.00        64.08
  272.58        2951.50           1252          19.00        59.72
  272.61        2951.75           1256          18.00        55.36
  272.64        2952.00           1259          19.00        59.72
  272.67        2952.25           1262          23.00        77.16
  272.69        2952.50           1266          21.00        68.44
  272.72        2952.75           1269          18.00        55.36
  272.75        2953.00           1272          22.00        72.80
  272.77        2953.25           1276          17.00        51.00
  272.80        2953.50           1279          22.00        72.80
  272.83        2953.75           1282          17.00        51.00
  272.86        2954.00           1286          17.00        51.00
  272.88        2954.25           1289          21.00        68.44
  272.91        2954.50           1292          17.00        51.00
  272.94        2954.75           1295          22.00        72.80
  272.96        2955.00           1299          19.00        59.72
  272.99        2955.25           1302          20.00        64.08
  273.02        2955.50           1305          19.00        59.72
  273.05        2955.75           1309          19.00        59.72
  273.07        2956.00           1312          20.00        64.08
  273.10        2956.25           1315          17.00        51.00
  273.13        2956.50           1319          17.00        51.00
  273.15        2956.75           1322          22.00        72.80
  273.18        2957.00           1325          18.00        55.36
  273.21        2957.25           1329          18.00        55.36
  273.24        2957.50           1332          20.00        64.08
  273.26        2957.75           1335          20.00        64.08
  273.29        2958.00           1339          20.00        64.08
  273.32        2958.25           1342          18.00        55.36
  273.34        2958.50           1345          14.00        37.93
  273.37        2958.75           1348          21.00        68.44
  273.40        2959.00           1352          22.00        72.80
  273.43        2959.25           1355          21.00        68.44
  273.45        2959.50           1358          20.00        64.08
  273.48        2959.75           1362          21.00        68.44
  273.51        2960.00           1365          23.00        77.16
  273.53        2960.25           1368          23.00        77.16
  273.56        2960.50           1372          28.00        98.95
  273.59        2960.75           1375          32.00       116.39
  273.62        2961.00           1378          58.00       229.73
  273.64        2961.25           1382         321.00      1376.25
  273.67        2961.50           1385         848.00      3673.87
  273.70        2961.75           1388        1801.00      7829.53
  273.72        2962.00           1392        3568.00     15537.27
  273.75        2962.25           1395        5501.00     23972.93
  273.78        2962.50           1398        7468.00     32561.06
  273.81        2962.75           1402       10207.00     44526.71
  273.83        2963.00           1405       12268.00     53535.73
  273.86        2963.25           1408       14385.00     62794.27
  273.89        2963.50           1412       17113.00     74732.07
  273.92        2963.75           1415       19386.00     84684.87
  273.94        2964.00           1418       21234.00     92780.82
  273.97        2964.25           1422       23959.00    104725.60
  274.00        2964.50           1425       26166.00    114405.60
  274.02        2964.75           1428       27987.00    122396.50
  274.05        2965.00           1431       30331.00    132687.80
  274.08        2965.25           1435       33007.00    144444.00
  274.11        2965.50           1438       35383.00    154888.70
  274.13        2965.75           1441       37287.00    163262.90
  274.16        2966.00           1445       40394.00    176936.80
  274.19        2966.25           1448       42121.00    184541.80
  274.22        2966.50           1451       43275.00    189625.40
  274.24        2966.75           1455       44978.00    197130.00
  274.27        2967.00           1458       45732.00    200453.70
  274.30        2967.25           1461       45454.00    199228.20
  274.32        2967.50           1465       45543.00    199620.50
  274.35        2967.75           1468       45236.00    198267.20
  274.38        2968.00           1471       44772.00    196222.10
  274.41        2968.25           1475       43087.00    188797.10
  274.43        2968.50           1478       41583.00    182172.30
  274.46        2968.75           1481       39610.00    173485.40
  274.49        2969.00           1485       36614.00    160302.50
  274.52        2969.25           1488       34196.00    149669.90
  274.54        2969.50           1491       32167.00    140752.90
  274.57        2969.75           1495       29502.00    129047.40
  274.60        2970.00           1498       27029.00    118192.20
  274.63        2970.25           1501       24867.00    108707.50
  274.65        2970.50           1505       22013.00     96194.68
  274.68        2970.75           1508       19653.00     85854.35
  274.71        2971.00           1511       17538.00     76592.59
  274.73        2971.25           1515       14757.00     64421.68
  274.76        2971.50           1518       12556.00     54794.99
  274.79        2971.75           1521       10230.00     44627.23
  274.82        2972.00           1525        7496.00     32683.34
  274.84        2972.25           1528        5573.00     24287.22
  274.87        2972.50           1531        3783.00     16475.34
  274.90        2972.75           1535        1619.00      7035.82
  274.93        2973.00           1538         737.00      3189.91
  274.95        2973.25           1541         260.00      1110.32
  274.98        2973.50           1545          66.00       264.61
  275.01        2973.75           1548          32.00       116.39
  275.03        2974.00           1551          32.00       116.39
  275.06        2974.25           1555          28.00        98.95
  275.09        2974.50           1558          27.00        94.59
  275.12        2974.75           1561          22.00        72.80
  275.14        2975.00           1565          23.00        77.16
  275.17        2975.25           1568          21.00        68.44
  275.20        2975.50           1571          21.00        68.44
  275.22        2975.75           1575          19.00        59.72
  275.25        2976.00           1578          21.00        68.44
  275.28        2976.25           1581          24.00        81.52
  275.31        2976.50           1585          19.00        59.72
  275.33        2976.75           1588          20.00        64.08
  275.36        2977.00           1591          15.00        42.28
  275.39        2977.25           1595          20.00        64.08
  275.41        2977.50           1598          26.00        90.24
  275.44        2977.75           1601          19.00        59.72
  275.47        2978.00           1605          20.00        64.08
  275.50        2978.25           1608          18.00        55.36
  275.52        2978.50           1611          23.00        77.16
  275.55        2978.75           1615          18.00        55.36
  275.58        2979.00           1618          18.00        55.36
  275.60        2979.25           1621          24.00        81.52
  275.63        2979.50           1625          19.00        59.72
  275.66        2979.75           1628          22.00        72.80
  275.69        2980.00           1631          19.00        59.72
  275.71        2980.25           1635          24.00        81.52
  275.74        2980.50           1638          17.00        51.00
  275.77        2980.75           1641          21.00        68.44
  275.80        2981.00           1645          22.00        72.80
  275.82        2981.25           1648          18.00        55.36
  275.85        2981.50           1651          22.00        72.80
  275.88        2981.75           1655          20.00        64.08
  275.90        2982.00           1658          20.00        64.08
  275.93        2982.25           1661          15.00        42.28
  275.96        2982.50           1665          15.00        42.28
  275.99        2982.75           1668          21.00        68.44
  276.01        2983.00           1671          17.00        51.00
  276.04        2983.25           1675          18.00        55.36
  276.07        2983.50           1678          21.00        68.44
  276.09        2983.75           1681          14.00        37.93
  276.12        2984.00           1685          18.00        55.36
HS scan finished at 04:36:18
end
