************************************************************
  HS Scan of (1) Internal mercury lamp
************************************************************
Integration time is 0.2294 seconds per sample
dh290119Tamanrasset 22.79-5.529 4.974364pr865
************************************************************
Dead Time -------------------------  2.8E-08 
Number of Cycles Used -------------  4 
Starting Wavelength (Angstroms) ---  2950 
Final Wavelength (Angstoms) -------  2984 
Wavelength Increment (Angstroms) --  .25 
Filter Wheel #1 Position ---------- (1) Ground quartz diffuser (ND=2.32)
Filter Wheel #2 Position ---------- (1) Neutral Density 0.494



************************************************************
HS scan start time = 04:29:45
Dark Count =  6.6 


Time (GMT)  Wavelength (Ang)  Step Number  Raw Counts  Counts/Second

  270.12        2950.00           1233          16.00        40.98
  270.18        2950.25           1236          18.00        49.69
  270.21        2950.50           1239          18.00        49.69
  270.23        2950.75           1242          16.00        40.98
  270.26        2951.00           1246          17.00        45.34
  270.29        2951.25           1249          21.00        62.77
  270.31        2951.50           1252          19.00        54.05
  270.34        2951.75           1256          22.00        67.13
  270.37        2952.00           1259          22.00        67.13
  270.40        2952.25           1262          14.00        32.26
  270.42        2952.50           1266          22.00        67.13
  270.45        2952.75           1269          19.00        54.05
  270.48        2953.00           1272          19.00        54.05
  270.50        2953.25           1276          18.00        49.69
  270.53        2953.50           1279          20.00        58.41
  270.56        2953.75           1282          22.00        67.13
  270.59        2954.00           1286          16.00        40.98
  270.61        2954.25           1289          22.00        67.13
  270.64        2954.50           1292          18.00        49.69
  270.67        2954.75           1295          21.00        62.77
  270.69        2955.00           1299          22.00        67.13
  270.72        2955.25           1302          18.00        49.69
  270.75        2955.50           1305          21.00        62.77
  270.78        2955.75           1309          21.00        62.77
  270.80        2956.00           1312          20.00        58.41
  270.83        2956.25           1315          16.00        40.98
  270.86        2956.50           1319          17.00        45.34
  270.88        2956.75           1322          21.00        62.77
  270.91        2957.00           1325          19.00        54.05
  270.94        2957.25           1329          19.00        54.05
  270.97        2957.50           1332          17.00        45.34
  270.99        2957.75           1335          17.00        45.34
  271.02        2958.00           1339          16.00        40.98
  271.05        2958.25           1342          18.00        49.69
  271.08        2958.50           1345          20.00        58.41
  271.10        2958.75           1348          19.00        54.05
  271.13        2959.00           1352          19.00        54.05
  271.16        2959.25           1355          19.00        54.05
  271.18        2959.50           1358          20.00        58.41
  271.21        2959.75           1362          19.00        54.05
  271.24        2960.00           1365          25.00        80.21
  271.27        2960.25           1368          24.00        75.85
  271.29        2960.50           1372          28.00        93.29
  271.32        2960.75           1375          30.00       102.01
  271.35        2961.00           1378          85.00       341.76
  271.37        2961.25           1382         427.00      1832.70
  271.40        2961.50           1385        1060.00      4592.57
  271.43        2961.75           1388        2126.00      9241.27
  271.46        2962.00           1392        4342.00     18908.88
  271.48        2962.25           1395        6220.00     27106.01
  271.51        2962.50           1398        8235.00     35905.31
  271.54        2962.75           1402       10806.00     47138.90
  271.57        2963.00           1405       12827.00     55974.33
  271.59        2963.25           1408       14935.00     65194.76
  271.62        2963.50           1412       17744.00     77488.78
  271.65        2963.75           1415       19770.00     86361.16
  271.67        2964.00           1418       21838.00     95422.01
  271.70        2964.25           1422       24707.00    108000.00
  271.73        2964.50           1425       26641.00    116483.90
  271.76        2964.75           1428       28835.00    126113.20
  271.78        2965.00           1431       30920.00    135269.00
  271.81        2965.25           1435       33872.00    148240.00
  271.84        2965.50           1438       36215.00    158541.80
  271.87        2965.75           1441       38245.00    167472.20
  271.89        2966.00           1445       40915.00    179225.00
  271.92        2966.25           1448       42422.00    185861.90
  271.95        2966.50           1451       43813.00    191990.10
  271.98        2966.75           1455       44989.00    197172.70
  272.00        2967.00           1458       45481.00    199341.40
  272.03        2967.25           1461       45533.00    199570.70
  272.06        2967.50           1465       45305.00    198565.60
  272.08        2967.75           1468       45051.00    197446.00
  272.11        2968.00           1471       44116.00    193325.30
  272.14        2968.25           1475       42107.00    184474.40
  272.17        2968.50           1478       40458.00    177212.80
  272.19        2968.75           1481       38345.00    167912.30
  272.22        2969.00           1485       35438.00    155124.80
  272.25        2969.25           1488       33261.00    145554.50
  272.28        2969.50           1491       31074.00    135945.40
  272.30        2969.75           1495       28265.00    123611.10
  272.33        2970.00           1498       26085.00    114044.50
  272.36        2970.25           1501       23825.00    104132.30
  272.39        2970.50           1505       20913.00     91368.59
  272.41        2970.75           1508       18715.00     81740.50
  272.44        2971.00           1511       16572.00     72358.31
  272.47        2971.25           1515       13725.00     59901.61
  272.49        2971.50           1518       11583.00     50535.28
  272.52        2971.75           1521        9543.00     41619.53
  272.55        2972.00           1525        6841.00     29817.39
  272.58        2972.25           1528        4845.00     21104.01
  272.60        2972.50           1531        3037.00     13215.00
  272.63        2972.75           1535        1240.00      5377.44
  272.66        2973.00           1538         543.00      2338.43
  272.69        2973.25           1541         180.00       755.90
  272.71        2973.50           1545          48.00       180.47
  272.74        2973.75           1548          37.00       132.52
  272.77        2974.00           1551          32.00       110.72
  272.79        2974.25           1555          26.00        84.57
  272.82        2974.50           1558          26.00        84.57
  272.85        2974.75           1561          23.00        71.49
  272.87        2975.00           1565          22.00        67.13
  272.90        2975.25           1568          26.00        84.57
  272.93        2975.50           1571          21.00        62.77
  272.96        2975.75           1575          15.00        36.62
  272.98        2976.00           1578          23.00        71.49
  273.01        2976.25           1581          25.00        80.21
  273.04        2976.50           1585          19.00        54.05
  273.07        2976.75           1588          20.00        58.41
  273.09        2977.00           1591          20.00        58.41
  273.12        2977.25           1595          25.00        80.21
  273.15        2977.50           1598          18.00        49.69
  273.17        2977.75           1601          22.00        67.13
  273.20        2978.00           1605          24.00        75.85
  273.23        2978.25           1608          24.00        75.85
  273.25        2978.50           1611          20.00        58.41
  273.28        2978.75           1615          24.00        75.85
  273.31        2979.00           1618          24.00        75.85
  273.34        2979.25           1621          23.00        71.49
  273.36        2979.50           1625          22.00        67.13
  273.39        2979.75           1628          21.00        62.77
  273.42        2980.00           1631          23.00        71.49
  273.44        2980.25           1635          22.00        67.13
  273.47        2980.50           1638          17.00        45.34
  273.50        2980.75           1641          24.00        75.85
  273.53        2981.00           1645          17.00        45.34
  273.55        2981.25           1648          21.00        62.77
  273.58        2981.50           1651          21.00        62.77
  273.61        2981.75           1655          21.00        62.77
  273.63        2982.00           1658          19.00        54.05
  273.66        2982.25           1661          18.00        49.69
  273.69        2982.50           1665          19.00        54.05
  273.72        2982.75           1668          20.00        58.41
  273.74        2983.00           1671          14.00        32.26
  273.77        2983.25           1675          24.00        75.85
  273.80        2983.50           1678          22.00        67.13
  273.82        2983.75           1681          22.00        67.13
  273.85        2984.00           1685          17.00        45.34
HS scan finished at 04:34:02
end
