************************************************************
  HS Scan of (1) Internal mercury lamp
************************************************************
Integration time is 0.2294 seconds per sample
dh230119Tamanrasset 22.79-5.529 4.974364pr865
************************************************************
Dead Time -------------------------  2.8E-08 
Number of Cycles Used -------------  4 
Starting Wavelength (Angstroms) ---  2950 
Final Wavelength (Angstoms) -------  2984 
Wavelength Increment (Angstroms) --  .25 
Filter Wheel #1 Position ---------- (1) Ground quartz diffuser (ND=2.32)
Filter Wheel #2 Position ---------- (1) Neutral Density 0.494



************************************************************
HS scan start time = 04:32:12
Dark Count =  2.8 


Time (GMT)  Wavelength (Ang)  Step Number  Raw Counts  Counts/Second

  272.56        2950.00           1233          22.00        83.70
  272.62        2950.25           1236          19.00        70.62
  272.65        2950.50           1239          17.00        61.90
  272.68        2950.75           1242          20.00        74.98
  272.71        2951.00           1246          18.00        66.26
  272.73        2951.25           1249          17.00        61.90
  272.76        2951.50           1252          20.00        74.98
  272.79        2951.75           1256          18.00        66.26
  272.81        2952.00           1259          22.00        83.70
  272.84        2952.25           1262          20.00        74.98
  272.87        2952.50           1266          19.00        70.62
  272.89        2952.75           1269          22.00        83.70
  272.92        2953.00           1272          19.00        70.62
  272.95        2953.25           1276          19.00        70.62
  272.98        2953.50           1279          19.00        70.62
  273.00        2953.75           1282          20.00        74.98
  273.03        2954.00           1286          23.00        88.06
  273.06        2954.25           1289          17.00        61.90
  273.08        2954.50           1292          19.00        70.62
  273.11        2954.75           1295          21.00        79.34
  273.14        2955.00           1299          16.00        57.54
  273.17        2955.25           1302          21.00        79.34
  273.19        2955.50           1305          16.00        57.54
  273.22        2955.75           1309          22.00        83.70
  273.25        2956.00           1312          16.00        57.54
  273.27        2956.25           1315          18.00        66.26
  273.30        2956.50           1319          19.00        70.62
  273.33        2956.75           1322          17.00        61.90
  273.36        2957.00           1325          22.00        83.70
  273.38        2957.25           1329          20.00        74.98
  273.41        2957.50           1332          19.00        70.62
  273.44        2957.75           1335          18.00        66.26
  273.46        2958.00           1339          20.00        74.98
  273.49        2958.25           1342          18.00        66.26
  273.52        2958.50           1345          15.00        53.18
  273.55        2958.75           1348          23.00        88.06
  273.57        2959.00           1352          18.00        66.26
  273.60        2959.25           1355          23.00        88.06
  273.63        2959.50           1358          23.00        88.06
  273.65        2959.75           1362          22.00        83.70
  273.68        2960.00           1365          20.00        74.98
  273.71        2960.25           1368          23.00        88.06
  273.74        2960.50           1372          24.00        92.42
  273.76        2960.75           1375          36.00       144.73
  273.79        2961.00           1378          47.00       192.68
  273.82        2961.25           1382         237.00      1020.95
  273.85        2961.50           1385         674.00      2926.13
  273.87        2961.75           1388        1517.00      6601.92
  273.90        2962.00           1392        3276.00     14274.23
  273.93        2962.25           1395        5026.00     21910.56
  273.95        2962.50           1398        7108.00     30999.87
  273.98        2962.75           1402        9769.00     42623.64
  274.01        2963.00           1405       12044.00     52567.30
  274.04        2963.25           1408       14042.00     61304.80
  274.06        2963.50           1412       16890.00     73766.85
  274.09        2963.75           1415       18960.00     82830.07
  274.12        2964.00           1418       20864.00     91170.55
  274.15        2964.25           1422       23806.00    104065.70
  274.17        2964.50           1425       25596.00    111916.00
  274.20        2964.75           1428       27755.00    121389.20
  274.23        2965.00           1431       29861.00    130634.80
  274.25        2965.25           1435       32697.00    143092.70
  274.28        2965.50           1438       34836.00    152494.60
  274.31        2965.75           1441       37103.00    162464.50
  274.34        2966.00           1445       39741.00    174073.10
  274.36        2966.25           1448       41940.00    183755.60
  274.39        2966.50           1451       43345.00    189944.80
  274.42        2966.75           1455       44922.00    196894.20
  274.45        2967.00           1458       45431.00    199137.80
  274.47        2967.25           1461       45464.00    199283.30
  274.50        2967.50           1465       45604.00    199900.40
  274.53        2967.75           1468       45278.00    198463.40
  274.56        2968.00           1471       44907.00    196828.10
  274.58        2968.25           1475       43416.00    190257.60
  274.61        2968.50           1478       41808.00    183174.20
  274.64        2968.75           1481       39655.00    173694.50
  274.67        2969.00           1485       36893.00    161540.70
  274.69        2969.25           1488       34621.00    151549.30
  274.72        2969.50           1491       32370.00    141655.80
  274.75        2969.75           1495       29452.00    128838.80
  274.78        2970.00           1498       27103.00    118527.90
  274.80        2970.25           1501       24801.00    108429.00
  274.83        2970.50           1505       22080.00     96499.27
  274.86        2970.75           1508       19849.00     86723.85
  274.88        2971.00           1511       17776.00     77645.52
  274.91        2971.25           1515       14903.00     65071.38
  274.94        2971.50           1518       12851.00     56095.89
  274.97        2971.75           1521       10572.00     46132.80
  274.99        2972.00           1525        7953.00     34690.18
  275.02        2972.25           1528        5893.00     25695.03
  275.05        2972.50           1531        3930.00     17127.65
  275.07        2972.75           1535        1864.00      8115.18
  275.10        2973.00           1538         834.00      3623.73
  275.13        2973.25           1541         294.00      1269.44
  275.16        2973.50           1545          60.00       249.35
  275.18        2973.75           1548          37.00       149.09
  275.21        2974.00           1551          27.00       105.49
  275.24        2974.25           1555          27.00       105.49
  275.27        2974.50           1558          24.00        92.42
  275.29        2974.75           1561          23.00        88.06
  275.32        2975.00           1565          20.00        74.98
  275.35        2975.25           1568          24.00        92.42
  275.37        2975.50           1571          20.00        74.98
  275.40        2975.75           1575          19.00        70.62
  275.43        2976.00           1578          18.00        66.26
  275.45        2976.25           1581          16.00        57.54
  275.48        2976.50           1585          18.00        66.26
  275.51        2976.75           1588          17.00        61.90
  275.54        2977.00           1591          22.00        83.70
  275.56        2977.25           1595          17.00        61.90
  275.59        2977.50           1598          20.00        74.98
  275.62        2977.75           1601          19.00        70.62
  275.64        2978.00           1605          24.00        92.42
  275.67        2978.25           1608          21.00        79.34
  275.70        2978.50           1611          19.00        70.62
  275.73        2978.75           1615          22.00        83.70
  275.75        2979.00           1618          18.00        66.26
  275.78        2979.25           1621          20.00        74.98
  275.81        2979.50           1625          21.00        79.34
  275.83        2979.75           1628          20.00        74.98
  275.86        2980.00           1631          22.00        83.70
  275.89        2980.25           1635          22.00        83.70
  275.92        2980.50           1638          19.00        70.62
  275.94        2980.75           1641          19.00        70.62
  275.97        2981.00           1645          23.00        88.06
  276.00        2981.25           1648          24.00        92.42
  276.02        2981.50           1651          16.00        57.54
  276.05        2981.75           1655          19.00        70.62
  276.08        2982.00           1658          23.00        88.06
  276.11        2982.25           1661          21.00        79.34
  276.13        2982.50           1665          19.00        70.62
  276.16        2982.75           1668          19.00        70.62
  276.19        2983.00           1671          19.00        70.62
  276.21        2983.25           1675          20.00        74.98
  276.24        2983.50           1678          20.00        74.98
  276.27        2983.75           1681          24.00        92.42
  276.30        2984.00           1685          17.00        61.90
HS scan finished at 04:36:29
end
