************************************************************
  HS Scan of (1) Internal mercury lamp
************************************************************
Integration time is 0.2294 seconds per sample
dh270119Tamanrasset 22.79-5.529 4.974364pr865
************************************************************
Dead Time -------------------------  2.8E-08 
Number of Cycles Used -------------  4 
Starting Wavelength (Angstroms) ---  2950 
Final Wavelength (Angstoms) -------  2984 
Wavelength Increment (Angstroms) --  .25 
Filter Wheel #1 Position ---------- (1) Ground quartz diffuser (ND=2.32)
Filter Wheel #2 Position ---------- (1) Neutral Density 0.494



************************************************************
HS scan start time = 04:30:45
Dark Count =  4.9 


Time (GMT)  Wavelength (Ang)  Step Number  Raw Counts  Counts/Second

  271.11        2950.00           1233          19.00        61.46
  271.17        2950.25           1236          23.00        78.90
  271.20        2950.50           1239          20.00        65.82
  271.23        2950.75           1242          17.00        52.75
  271.26        2951.00           1246          18.00        57.11
  271.28        2951.25           1249          22.00        74.54
  271.31        2951.50           1252          15.00        44.03
  271.34        2951.75           1256          18.00        57.11
  271.36        2952.00           1259          17.00        52.75
  271.39        2952.25           1262          23.00        78.90
  271.42        2952.50           1266          20.00        65.82
  271.45        2952.75           1269          17.00        52.75
  271.47        2953.00           1272          19.00        61.46
  271.50        2953.25           1276          17.00        52.75
  271.53        2953.50           1279          14.00        39.67
  271.55        2953.75           1282          22.00        74.54
  271.58        2954.00           1286          19.00        61.46
  271.61        2954.25           1289          17.00        52.75
  271.64        2954.50           1292          15.00        44.03
  271.66        2954.75           1295          20.00        65.82
  271.69        2955.00           1299          19.00        61.46
  271.72        2955.25           1302          22.00        74.54
  271.74        2955.50           1305          16.00        48.39
  271.77        2955.75           1309          19.00        61.46
  271.80        2956.00           1312          23.00        78.90
  271.83        2956.25           1315          18.00        57.11
  271.85        2956.50           1319          15.00        44.03
  271.88        2956.75           1322          17.00        52.75
  271.91        2957.00           1325          18.00        57.11
  271.93        2957.25           1329          22.00        74.54
  271.96        2957.50           1332          15.00        44.03
  271.99        2957.75           1335          19.00        61.46
  272.02        2958.00           1339          17.00        52.75
  272.04        2958.25           1342          19.00        61.46
  272.07        2958.50           1345          19.00        61.46
  272.10        2958.75           1348          17.00        52.75
  272.13        2959.00           1352          18.00        57.11
  272.15        2959.25           1355          20.00        65.82
  272.18        2959.50           1358          22.00        74.54
  272.21        2959.75           1362          21.00        70.18
  272.23        2960.00           1365          21.00        70.18
  272.26        2960.25           1368          20.00        65.82
  272.29        2960.50           1372          25.00        87.62
  272.31        2960.75           1375          31.00       113.78
  272.34        2961.00           1378          74.00       301.22
  272.37        2961.25           1382         400.00      1722.40
  272.40        2961.50           1385         928.00      4024.43
  272.42        2961.75           1388        1915.00      8328.45
  272.45        2962.00           1392        4005.00     17445.75
  272.48        2962.25           1395        5844.00     25471.95
  272.51        2962.50           1398        7790.00     33969.09
  272.53        2962.75           1402       10563.00     46084.28
  272.56        2963.00           1405       12660.00     55251.50
  272.59        2963.25           1408       14727.00     64292.19
  272.61        2963.50           1412       17199.00     75110.28
  272.64        2963.75           1415       19468.00     85045.78
  272.67        2964.00           1418       21771.00     95135.82
  272.70        2964.25           1422       24433.00    106805.90
  272.72        2964.50           1425       26394.00    115407.60
  272.75        2964.75           1428       28637.00    125251.50
  272.78        2965.00           1431       30749.00    134525.40
  272.81        2965.25           1435       33808.00    147966.20
  272.83        2965.50           1438       36025.00    157713.70
  272.86        2965.75           1441       38146.00    167044.10
  272.89        2966.00           1445       40827.00    178845.00
  272.92        2966.25           1448       42657.00    186904.50
  272.94        2966.50           1451       44066.00    193112.40
  272.97        2966.75           1455       45200.00    198110.30
  273.00        2967.00           1458       45783.00    200680.30
  273.02        2967.25           1461       45695.00    200292.30
  273.05        2967.50           1465       45631.00    200010.20
  273.08        2967.75           1468       45309.00    198590.80
  273.11        2968.00           1471       44453.00    194817.90
  273.13        2968.25           1475       42682.00    187014.70
  273.16        2968.50           1478       40872.00    179043.10
  273.19        2968.75           1481       38660.00    169306.00
  273.22        2969.00           1485       35978.00    157507.00
  273.24        2969.25           1488       33505.00    146634.40
  273.27        2969.50           1491       31478.00    137727.60
  273.30        2969.75           1495       28522.00    124746.70
  273.33        2970.00           1498       26310.00    115039.10
  273.35        2970.25           1501       24226.00    105898.10
  273.38        2970.50           1505       21209.00     92673.02
  273.41        2970.75           1508       19038.00     83162.47
  273.43        2971.00           1511       16960.00     74064.06
  273.46        2971.25           1515       14171.00     61859.89
  273.49        2971.50           1518       11985.00     52300.16
  273.52        2971.75           1521        9829.00     42876.64
  273.54        2972.00           1525        7084.00     30885.90
  273.57        2972.25           1528        5005.00     21809.74
  273.60        2972.50           1531        3278.00     14273.80
  273.63        2972.75           1535        1402.00      6091.27
  273.65        2973.00           1538         561.00      2424.31
  273.68        2973.25           1541         192.00       815.62
  273.71        2973.50           1545          47.00       183.52
  273.73        2973.75           1548          32.00       118.13
  273.76        2974.00           1551          31.00       113.78
  273.79        2974.25           1555          26.00        91.98
  273.82        2974.50           1558          27.00        96.34
  273.84        2974.75           1561          24.00        83.26
  273.87        2975.00           1565          21.00        70.18
  273.90        2975.25           1568          22.00        74.54
  273.92        2975.50           1571          20.00        65.82
  273.95        2975.75           1575          20.00        65.82
  273.98        2976.00           1578          21.00        70.18
  274.01        2976.25           1581          20.00        65.82
  274.03        2976.50           1585          19.00        61.46
  274.06        2976.75           1588          21.00        70.18
  274.09        2977.00           1591          22.00        74.54
  274.11        2977.25           1595          28.00       100.70
  274.14        2977.50           1598          24.00        83.26
  274.17        2977.75           1601          20.00        65.82
  274.20        2978.00           1605          22.00        74.54
  274.22        2978.25           1608          19.00        61.46
  274.25        2978.50           1611          20.00        65.82
  274.28        2978.75           1615          21.00        70.18
  274.30        2979.00           1618          22.00        74.54
  274.33        2979.25           1621          16.00        48.39
  274.36        2979.50           1625          24.00        83.26
  274.39        2979.75           1628          21.00        70.18
  274.41        2980.00           1631          19.00        61.46
  274.44        2980.25           1635          22.00        74.54
  274.47        2980.50           1638          16.00        48.39
  274.49        2980.75           1641          21.00        70.18
  274.52        2981.00           1645          20.00        65.82
  274.55        2981.25           1648          20.00        65.82
  274.58        2981.50           1651          14.00        39.67
  274.60        2981.75           1655          21.00        70.18
  274.63        2982.00           1658          22.00        74.54
  274.66        2982.25           1661          23.00        78.90
  274.69        2982.50           1665          24.00        83.26
  274.71        2982.75           1668          17.00        52.75
  274.74        2983.00           1671          19.00        61.46
  274.77        2983.25           1675          17.00        52.75
  274.79        2983.50           1678          20.00        65.82
  274.82        2983.75           1681          22.00        74.54
  274.85        2984.00           1685          16.00        48.39
HS scan finished at 04:35:02
end
