************************************************************
  HS Scan of (1) Internal mercury lamp
************************************************************
Integration time is 0.2294 seconds per sample
dh220119Tamanrasset 22.79-5.529 4.974364pr865
************************************************************
Dead Time -------------------------  2.8E-08 
Number of Cycles Used -------------  4 
Starting Wavelength (Angstroms) ---  2950 
Final Wavelength (Angstoms) -------  2984 
Wavelength Increment (Angstroms) --  .25 
Filter Wheel #1 Position ---------- (1) Ground quartz diffuser (ND=2.32)
Filter Wheel #2 Position ---------- (1) Neutral Density 0.494



************************************************************
HS scan start time = 04:31:42
Dark Count =  6.3 


Time (GMT)  Wavelength (Ang)  Step Number  Raw Counts  Counts/Second

  272.05        2950.00           1233          19.00        55.36
  272.11        2950.25           1236          20.00        59.72
  272.14        2950.50           1239          22.00        68.44
  272.17        2950.75           1242          22.00        68.44
  272.19        2951.00           1246          22.00        68.44
  272.22        2951.25           1249          18.00        51.00
  272.25        2951.50           1252          20.00        59.72
  272.28        2951.75           1256          20.00        59.72
  272.30        2952.00           1259          21.00        64.08
  272.33        2952.25           1262          21.00        64.08
  272.36        2952.50           1266          20.00        59.72
  272.38        2952.75           1269          19.00        55.36
  272.41        2953.00           1272          21.00        64.08
  272.44        2953.25           1276          19.00        55.36
  272.46        2953.50           1279          18.00        51.00
  272.49        2953.75           1282          16.00        42.28
  272.52        2954.00           1286          20.00        59.72
  272.55        2954.25           1289          22.00        68.44
  272.57        2954.50           1292          19.00        55.36
  272.60        2954.75           1295          18.00        51.00
  272.63        2955.00           1299          24.00        77.16
  272.66        2955.25           1302          21.00        64.08
  272.68        2955.50           1305          23.00        72.80
  272.71        2955.75           1309          23.00        72.80
  272.74        2956.00           1312          19.00        55.36
  272.76        2956.25           1315          19.00        55.36
  272.79        2956.50           1319          18.00        51.00
  272.82        2956.75           1322          19.00        55.36
  272.85        2957.00           1325          20.00        59.72
  272.87        2957.25           1329          20.00        59.72
  272.90        2957.50           1332          15.00        37.93
  272.93        2957.75           1335          21.00        64.08
  272.95        2958.00           1339          22.00        68.44
  272.98        2958.25           1342          22.00        68.44
  273.01        2958.50           1345          19.00        55.36
  273.04        2958.75           1348          20.00        59.72
  273.06        2959.00           1352          19.00        55.36
  273.09        2959.25           1355          18.00        51.00
  273.12        2959.50           1358          18.00        51.00
  273.14        2959.75           1362          18.00        51.00
  273.17        2960.00           1365          21.00        64.08
  273.20        2960.25           1368          23.00        72.80
  273.23        2960.50           1372          29.00        98.95
  273.25        2960.75           1375          31.00       107.67
  273.28        2961.00           1378          70.00       277.68
  273.31        2961.25           1382         369.00      1581.15
  273.33        2961.50           1385         936.00      4053.21
  273.36        2961.75           1388        1940.00      8431.37
  273.39        2962.00           1392        4110.00     17897.81
  273.42        2962.25           1395        6096.00     26565.96
  273.44        2962.50           1398        8283.00     36116.28
  273.47        2962.75           1402       10787.00     47057.17
  273.50        2963.00           1405       12919.00     56377.95
  273.52        2963.25           1408       15085.00     65852.35
  273.55        2963.50           1412       17738.00     77463.83
  273.58        2963.75           1415       19794.00     86467.59
  273.61        2964.00           1418       22250.00     97229.02
  273.63        2964.25           1422       24993.00    109255.70
  273.66        2964.50           1425       27058.00    118315.00
  273.69        2964.75           1428       29420.00    128683.00
  273.72        2965.00           1431       31650.00    138477.10
  273.74        2965.25           1435       34538.00    151169.00
  273.77        2965.50           1438       36809.00    161155.80
  273.80        2965.75           1441       38913.00    170413.20
  273.83        2966.00           1445       41515.00    181868.40
  273.85        2966.25           1448       43612.00    191105.70
  273.88        2966.50           1451       44754.00    196138.30
  273.91        2966.75           1455       45609.00    199907.00
  273.93        2967.00           1458       46057.00    201882.10
  273.96        2967.25           1461       46177.00    202411.20
  273.99        2967.50           1465       45996.00    201613.10
  274.02        2967.75           1468       45542.00    199611.70
  274.04        2968.00           1471       44683.00    195825.40
  274.07        2968.25           1475       42829.00    187656.10
  274.10        2968.50           1478       40776.00    178614.20
  274.13        2968.75           1481       38857.00    170166.80
  274.15        2969.00           1485       36044.00    157791.10
  274.18        2969.25           1488       33590.00    147001.80
  274.21        2969.50           1491       31278.00    136842.90
  274.24        2969.75           1495       28483.00    124569.30
  274.26        2970.00           1498       26321.00    115081.20
  274.29        2970.25           1501       24181.00    105694.60
  274.32        2970.50           1505       21103.00     92202.42
  274.34        2970.75           1508       19056.00     83235.18
  274.37        2971.00           1511       16818.00     73436.38
  274.40        2971.25           1515       14082.00     61464.46
  274.43        2971.50           1518       11888.00     51869.96
  274.45        2971.75           1521        9874.00     43067.16
  274.48        2972.00           1525        6871.00     29949.70
  274.51        2972.25           1528        4940.00     21519.94
  274.54        2972.50           1531        3113.00     13547.86
  274.56        2972.75           1535        1376.00      5971.79
  274.59        2973.00           1538         525.00      2261.26
  274.62        2973.25           1541         177.00       744.13
  274.64        2973.50           1545          51.00       194.86
  274.67        2973.75           1548          38.00       138.19
  274.70        2974.00           1551          28.00        94.59
  274.73        2974.25           1555          25.00        81.52
  274.75        2974.50           1558          20.00        59.72
  274.78        2974.75           1561          19.00        55.36
  274.81        2975.00           1565          18.00        51.00
  274.83        2975.25           1568          24.00        77.16
  274.86        2975.50           1571          23.00        72.80
  274.89        2975.75           1575          18.00        51.00
  274.92        2976.00           1578          20.00        59.72
  274.94        2976.25           1581          18.00        51.00
  274.97        2976.50           1585          23.00        72.80
  275.00        2976.75           1588          22.00        68.44
  275.02        2977.00           1591          19.00        55.36
  275.05        2977.25           1595          19.00        55.36
  275.08        2977.50           1598          18.00        51.00
  275.11        2977.75           1601          20.00        59.72
  275.13        2978.00           1605          18.00        51.00
  275.16        2978.25           1608          22.00        68.44
  275.19        2978.50           1611          19.00        55.36
  275.21        2978.75           1615          24.00        77.16
  275.24        2979.00           1618          24.00        77.16
  275.27        2979.25           1621          14.00        33.57
  275.30        2979.50           1625          21.00        64.08
  275.32        2979.75           1628          21.00        64.08
  275.35        2980.00           1631          18.00        51.00
  275.38        2980.25           1635          20.00        59.72
  275.40        2980.50           1638          15.00        37.93
  275.43        2980.75           1641          17.00        46.64
  275.46        2981.00           1645          18.00        51.00
  275.49        2981.25           1648          16.00        42.28
  275.51        2981.50           1651          22.00        68.44
  275.54        2981.75           1655          22.00        68.44
  275.57        2982.00           1658          20.00        59.72
  275.59        2982.25           1661          22.00        68.44
  275.62        2982.50           1665          18.00        51.00
  275.65        2982.75           1668          18.00        51.00
  275.68        2983.00           1671          20.00        59.72
  275.70        2983.25           1675          18.00        51.00
  275.73        2983.50           1678          18.00        51.00
  275.76        2983.75           1681          15.00        37.93
  275.78        2984.00           1685          19.00        55.36
HS scan finished at 04:35:58
end
