************************************************************
  HS Scan of (1) Internal mercury lamp
************************************************************
Integration time is 0.2294 seconds per sample
dh250119Tamanrasset 22.79-5.529 4.974364pr865
************************************************************
Dead Time -------------------------  2.8E-08 
Number of Cycles Used -------------  4 
Starting Wavelength (Angstroms) ---  2950 
Final Wavelength (Angstoms) -------  2984 
Wavelength Increment (Angstroms) --  .25 
Filter Wheel #1 Position ---------- (1) Ground quartz diffuser (ND=2.32)
Filter Wheel #2 Position ---------- (1) Neutral Density 0.494



************************************************************
HS scan start time = 04:30:48
Dark Count =  6.8 


Time (GMT)  Wavelength (Ang)  Step Number  Raw Counts  Counts/Second

  271.16        2950.00           1233          17.00        44.46
  271.22        2950.25           1236          20.00        57.54
  271.25        2950.50           1239          21.00        61.90
  271.28        2950.75           1242          13.00        27.03
  271.30        2951.00           1246          17.00        44.46
  271.33        2951.25           1249          18.00        48.82
  271.36        2951.50           1252          21.00        61.90
  271.39        2951.75           1256          20.00        57.54
  271.41        2952.00           1259          21.00        61.90
  271.44        2952.25           1262          21.00        61.90
  271.47        2952.50           1266          24.00        74.98
  271.49        2952.75           1269          21.00        61.90
  271.52        2953.00           1272          19.00        53.18
  271.55        2953.25           1276          20.00        57.54
  271.57        2953.50           1279          25.00        79.34
  271.60        2953.75           1282          17.00        44.46
  271.63        2954.00           1286          18.00        48.82
  271.66        2954.25           1289          15.00        35.75
  271.68        2954.50           1292          21.00        61.90
  271.71        2954.75           1295          23.00        70.62
  271.74        2955.00           1299          22.00        66.26
  271.77        2955.25           1302          19.00        53.18
  271.79        2955.50           1305          17.00        44.46
  271.82        2955.75           1309          20.00        57.54
  271.85        2956.00           1312          18.00        48.82
  271.87        2956.25           1315          18.00        48.82
  271.90        2956.50           1319          19.00        53.18
  271.93        2956.75           1322          15.00        35.75
  271.95        2957.00           1325          21.00        61.90
  271.98        2957.25           1329          21.00        61.90
  272.01        2957.50           1332          17.00        44.46
  272.04        2957.75           1335          18.00        48.82
  272.06        2958.00           1339          18.00        48.82
  272.09        2958.25           1342          19.00        53.18
  272.12        2958.50           1345          18.00        48.82
  272.14        2958.75           1348          22.00        66.26
  272.17        2959.00           1352          19.00        53.18
  272.20        2959.25           1355          21.00        61.90
  272.23        2959.50           1358          20.00        57.54
  272.25        2959.75           1362          17.00        44.46
  272.28        2960.00           1365          23.00        70.62
  272.31        2960.25           1368          26.00        83.70
  272.33        2960.50           1372          29.00        96.77
  272.36        2960.75           1375          30.00       101.13
  272.39        2961.00           1378          72.00       284.22
  272.42        2961.25           1382         371.00      1587.69
  272.44        2961.50           1385         930.00      4024.87
  272.47        2961.75           1388        1937.00      8416.11
  272.50        2962.00           1392        3921.00     17070.93
  272.53        2962.25           1395        5871.00     25581.53
  272.55        2962.50           1398        7956.00     34685.81
  272.58        2962.75           1402       10502.00     45809.38
  272.61        2963.00           1405       12496.00     54526.08
  272.64        2963.25           1408       14851.00     64826.37
  272.66        2963.50           1412       17387.00     75924.96
  272.69        2963.75           1415       19368.00     84599.46
  272.72        2964.00           1418       21703.00     94829.49
  272.74        2964.25           1422       24384.00    106582.70
  272.77        2964.50           1425       26355.00    115228.20
  272.80        2964.75           1428       28645.00    125278.30
  272.83        2965.00           1431       30652.00    134091.00
  272.85        2965.25           1435       33559.00    146863.40
  272.88        2965.50           1438       35727.00    156394.80
  272.91        2965.75           1441       37713.00    165130.50
  272.94        2966.00           1445       40617.00    177912.00
  272.96        2966.25           1448       42401.00    185768.50
  272.99        2966.50           1451       43759.00    191751.30
  273.02        2966.75           1455       44930.00    196911.80
  273.05        2967.00           1458       45494.00    199397.90
  273.07        2967.25           1461       45730.00    200438.20
  273.10        2967.50           1465       45276.00    198436.90
  273.13        2967.75           1468       45253.00    198335.50
  273.15        2968.00           1471       44160.00    193518.30
  273.18        2968.25           1475       42741.00    187266.20
  273.21        2968.50           1478       40761.00    178546.00
  273.24        2968.75           1481       38848.00    170124.90
  273.26        2969.00           1485       35964.00    157437.10
  273.29        2969.25           1488       33435.00    146318.40
  273.32        2969.50           1491       31332.00    137077.90
  273.35        2969.75           1495       28559.00    124900.70
  273.37        2970.00           1498       26240.00    114723.70
  273.40        2970.25           1501       23993.00    104868.10
  273.43        2970.50           1505       21192.00     92590.21
  273.46        2970.75           1508       19022.00     83084.08
  273.48        2971.00           1511       16823.00     73456.06
  273.51        2971.25           1515       14074.00     61427.28
  273.54        2971.50           1518       12068.00     52654.74
  273.56        2971.75           1521        9987.00     43558.76
  273.59        2972.00           1525        7280.00     31733.51
  273.62        2972.25           1528        5292.00     23054.11
  273.65        2972.50           1531        3541.00     15412.93
  273.67        2972.75           1535        1546.00      6710.94
  273.70        2973.00           1538         644.00      2777.90
  273.73        2973.25           1541         223.00       942.48
  273.75        2973.50           1545          52.00       197.04
  273.78        2973.75           1548          38.00       136.01
  273.81        2974.00           1551          29.00        96.77
  273.84        2974.25           1555          29.00        96.77
  273.86        2974.50           1558          27.00        88.06
  273.89        2974.75           1561          21.00        61.90
  273.92        2975.00           1565          24.00        74.98
  273.94        2975.25           1568          19.00        53.18
  273.97        2975.50           1571          20.00        57.54
  274.00        2975.75           1575          19.00        53.18
  274.03        2976.00           1578          20.00        57.54
  274.05        2976.25           1581          26.00        83.70
  274.08        2976.50           1585          23.00        70.62
  274.11        2976.75           1588          22.00        66.26
  274.14        2977.00           1591          23.00        70.62
  274.16        2977.25           1595          21.00        61.90
  274.19        2977.50           1598          18.00        48.82
  274.22        2977.75           1601          20.00        57.54
  274.24        2978.00           1605          17.00        44.46
  274.27        2978.25           1608          23.00        70.62
  274.30        2978.50           1611          17.00        44.46
  274.33        2978.75           1615          19.00        53.18
  274.35        2979.00           1618          23.00        70.62
  274.38        2979.25           1621          16.00        40.10
  274.41        2979.50           1625          21.00        61.90
  274.43        2979.75           1628          21.00        61.90
  274.46        2980.00           1631          19.00        53.18
  274.49        2980.25           1635          18.00        48.82
  274.52        2980.50           1638          22.00        66.26
  274.54        2980.75           1641          15.00        35.75
  274.57        2981.00           1645          17.00        44.46
  274.60        2981.25           1648          22.00        66.26
  274.62        2981.50           1651          14.00        31.39
  274.65        2981.75           1655          21.00        61.90
  274.68        2982.00           1658          15.00        35.75
  274.71        2982.25           1661          17.00        44.46
  274.73        2982.50           1665          21.00        61.90
  274.76        2982.75           1668          21.00        61.90
  274.79        2983.00           1671          19.00        53.18
  274.81        2983.25           1675          17.00        44.46
  274.84        2983.50           1678          16.00        40.10
  274.87        2983.75           1681          16.00        40.10
  274.90        2984.00           1685          17.00        44.46
HS scan finished at 04:35:05
end
