************************************************************
  HS Scan of (1) Internal mercury lamp
************************************************************
Integration time is 0.2294 seconds per sample
dh200119Tamanrasset 22.79-5.529 4.974364pr865
************************************************************
Dead Time -------------------------  2.8E-08 
Number of Cycles Used -------------  4 
Starting Wavelength (Angstroms) ---  2950 
Final Wavelength (Angstoms) -------  2984 
Wavelength Increment (Angstroms) --  .25 
Filter Wheel #1 Position ---------- (1) Ground quartz diffuser (ND=2.32)
Filter Wheel #2 Position ---------- (1) Neutral Density 0.494



************************************************************
HS scan start time = 04:32:13
Dark Count =  2.5 


Time (GMT)  Wavelength (Ang)  Step Number  Raw Counts  Counts/Second

  272.57        2950.00           1233          21.00        80.65
  272.64        2950.25           1236          18.00        67.57
  272.66        2950.50           1239          21.00        80.65
  272.69        2950.75           1242          19.00        71.93
  272.72        2951.00           1246          17.00        63.21
  272.75        2951.25           1249          18.00        67.57
  272.77        2951.50           1252          21.00        80.65
  272.80        2951.75           1256          19.00        71.93
  272.83        2952.00           1259          14.00        50.13
  272.85        2952.25           1262          19.00        71.93
  272.88        2952.50           1266          19.00        71.93
  272.91        2952.75           1269          22.00        85.00
  272.94        2953.00           1272          16.00        58.85
  272.96        2953.25           1276          14.00        50.13
  272.99        2953.50           1279          19.00        71.93
  273.02        2953.75           1282          23.00        89.36
  273.04        2954.00           1286          19.00        71.93
  273.07        2954.25           1289          22.00        85.00
  273.10        2954.50           1292          20.00        76.29
  273.13        2954.75           1295          21.00        80.65
  273.15        2955.00           1299          18.00        67.57
  273.18        2955.25           1302          23.00        89.36
  273.21        2955.50           1305          15.00        54.49
  273.23        2955.75           1309          20.00        76.29
  273.26        2956.00           1312          21.00        80.65
  273.29        2956.25           1315          23.00        89.36
  273.32        2956.50           1319          18.00        67.57
  273.34        2956.75           1322          19.00        71.93
  273.37        2957.00           1325          23.00        89.36
  273.40        2957.25           1329          14.00        50.13
  273.42        2957.50           1332          17.00        63.21
  273.45        2957.75           1335          19.00        71.93
  273.48        2958.00           1339          18.00        67.57
  273.51        2958.25           1342          21.00        80.65
  273.53        2958.50           1345          18.00        67.57
  273.56        2958.75           1348          19.00        71.93
  273.59        2959.00           1352          22.00        85.00
  273.61        2959.25           1355          20.00        76.29
  273.64        2959.50           1358          18.00        67.57
  273.67        2959.75           1362          19.00        71.93
  273.70        2960.00           1365          23.00        89.36
  273.72        2960.25           1368          28.00       111.16
  273.75        2960.50           1372          26.00       102.44
  273.78        2960.75           1375          36.00       146.03
  273.80        2961.00           1378          71.00       298.61
  273.83        2961.25           1382         347.00      1501.81
  273.86        2961.50           1385         933.00      4056.69
  273.89        2961.75           1388        1973.00      8591.87
  273.91        2962.00           1392        4062.00     17704.94
  273.94        2962.25           1395        6176.00     26931.81
  273.97        2962.50           1398        8152.00     35560.68
  274.00        2962.75           1402       10654.00     46492.48
  274.02        2963.00           1405       12750.00     55655.54
  274.05        2963.25           1408       14887.00     65002.69
  274.08        2963.50           1412       17537.00     76600.48
  274.10        2963.75           1415       19719.00     86155.72
  274.13        2964.00           1418       21862.00     95545.16
  274.16        2964.25           1422       24605.00    107570.70
  274.19        2964.50           1425       26627.00    116440.50
  274.21        2964.75           1428       28950.00    126636.10
  274.24        2965.00           1431       30972.00    135515.40
  274.27        2965.25           1435       34058.00    149075.60
  274.30        2965.50           1438       36153.00    158287.20
  274.32        2965.75           1441       38235.00    167446.30
  274.35        2966.00           1445       41060.00    179881.50
  274.38        2966.25           1448       42713.00    187161.80
  274.40        2966.50           1451       44202.00    193722.30
  274.43        2966.75           1455       45307.00    198592.50
  274.46        2967.00           1458       45830.00    200898.10
  274.49        2967.25           1461       45874.00    201092.00
  274.51        2967.50           1465       45652.00    200113.40
  274.54        2967.75           1468       45500.00    199443.30
  274.57        2968.00           1471       44750.00    196137.40
  274.60        2968.25           1475       42933.00    188131.00
  274.62        2968.50           1478       40998.00    179608.50
  274.65        2968.75           1481       38846.00    170135.10
  274.68        2969.00           1485       35986.00    157552.70
  274.71        2969.25           1488       33698.00    147493.20
  274.73        2969.50           1491       31583.00    138199.40
  274.76        2969.75           1495       28716.00    125608.80
  274.79        2970.00           1498       26406.00    115470.80
  274.81        2970.25           1501       24393.00    106641.00
  274.84        2970.50           1505       21357.00     93332.08
  274.87        2970.75           1508       19233.00     84027.02
  274.90        2971.00           1511       16943.00     74000.16
  274.92        2971.25           1515       14224.00     62102.23
  274.95        2971.50           1518       12130.00     52944.61
  274.98        2971.75           1521       10123.00     44171.87
  275.01        2972.00           1525        7366.00     32127.85
  275.03        2972.25           1528        5255.00     22911.38
  275.06        2972.50           1531        3372.00     14694.36
  275.09        2972.75           1535        1459.00      6350.30
  275.11        2973.00           1538         628.00      2726.89
  275.14        2973.25           1541         203.00       874.04
  275.17        2973.50           1545          48.00       198.34
  275.20        2973.75           1548          37.00       150.39
  275.22        2974.00           1551          28.00       111.16
  275.25        2974.25           1555          30.00       119.88
  275.28        2974.50           1558          26.00       102.44
  275.30        2974.75           1561          24.00        93.72
  275.33        2975.00           1565          21.00        80.65
  275.36        2975.25           1568          22.00        85.00
  275.39        2975.50           1571          18.00        67.57
  275.41        2975.75           1575          20.00        76.29
  275.44        2976.00           1578          23.00        89.36
  275.47        2976.25           1581          22.00        85.00
  275.49        2976.50           1585          19.00        71.93
  275.52        2976.75           1588          16.00        58.85
  275.55        2977.00           1591          17.00        63.21
  275.58        2977.25           1595          15.00        54.49
  275.60        2977.50           1598          22.00        85.00
  275.63        2977.75           1601          21.00        80.65
  275.66        2978.00           1605          23.00        89.36
  275.68        2978.25           1608          20.00        76.29
  275.71        2978.50           1611          21.00        80.65
  275.74        2978.75           1615          18.00        67.57
  275.77        2979.00           1618          18.00        67.57
  275.79        2979.25           1621          18.00        67.57
  275.82        2979.50           1625          23.00        89.36
  275.85        2979.75           1628          23.00        89.36
  275.87        2980.00           1631          17.00        63.21
  275.90        2980.25           1635          24.00        93.72
  275.93        2980.50           1638          22.00        85.00
  275.96        2980.75           1641          19.00        71.93
  275.98        2981.00           1645          21.00        80.65
  276.01        2981.25           1648          21.00        80.65
  276.04        2981.50           1651          22.00        85.00
  276.06        2981.75           1655          22.00        85.00
  276.09        2982.00           1658          19.00        71.93
  276.12        2982.25           1661          19.00        71.93
  276.15        2982.50           1665          19.00        71.93
  276.17        2982.75           1668          21.00        80.65
  276.20        2983.00           1671          15.00        54.49
  276.23        2983.25           1675          15.00        54.49
  276.25        2983.50           1678          24.00        93.72
  276.28        2983.75           1681          19.00        71.93
  276.31        2984.00           1685          20.00        76.29
HS scan finished at 04:36:30
end
