************************************************************
  HS Scan of (1) Internal mercury lamp
************************************************************
Integration time is 0.2294 seconds per sample
dh240119Tamanrasset 22.79-5.529 4.974364pr865
************************************************************
Dead Time -------------------------  2.8E-08 
Number of Cycles Used -------------  4 
Starting Wavelength (Angstroms) ---  2950 
Final Wavelength (Angstoms) -------  2984 
Wavelength Increment (Angstroms) --  .25 
Filter Wheel #1 Position ---------- (1) Ground quartz diffuser (ND=2.32)
Filter Wheel #2 Position ---------- (1) Neutral Density 0.494



************************************************************
HS scan start time = 04:32:10
Dark Count =  .8 


Time (GMT)  Wavelength (Ang)  Step Number  Raw Counts  Counts/Second

  272.52        2950.00           1233          17.00        70.62
  272.59        2950.25           1236          22.00        92.42
  272.61        2950.50           1239          22.00        92.42
  272.64        2950.75           1242          21.00        88.06
  272.67        2951.00           1246          17.00        70.62
  272.69        2951.25           1249          17.00        70.62
  272.72        2951.50           1252          20.00        83.70
  272.75        2951.75           1256          23.00        96.77
  272.78        2952.00           1259          19.00        79.34
  272.80        2952.25           1262          17.00        70.62
  272.83        2952.50           1266          18.00        74.98
  272.86        2952.75           1269          23.00        96.77
  272.88        2953.00           1272          20.00        83.70
  272.91        2953.25           1276          22.00        92.42
  272.94        2953.50           1279          23.00        96.77
  272.97        2953.75           1282          20.00        83.70
  272.99        2954.00           1286          21.00        88.06
  273.02        2954.25           1289          20.00        83.70
  273.05        2954.50           1292          22.00        92.42
  273.07        2954.75           1295          24.00       101.13
  273.10        2955.00           1299          20.00        83.70
  273.13        2955.25           1302          20.00        83.70
  273.16        2955.50           1305          18.00        74.98
  273.18        2955.75           1309          19.00        79.34
  273.21        2956.00           1312          23.00        96.77
  273.24        2956.25           1315          20.00        83.70
  273.26        2956.50           1319          20.00        83.70
  273.29        2956.75           1322          18.00        74.98
  273.32        2957.00           1325          21.00        88.06
  273.35        2957.25           1329          20.00        83.70
  273.37        2957.50           1332          22.00        92.42
  273.40        2957.75           1335          19.00        79.34
  273.43        2958.00           1339          19.00        79.34
  273.46        2958.25           1342          19.00        79.34
  273.48        2958.50           1345          15.00        61.90
  273.51        2958.75           1348          15.00        61.90
  273.54        2959.00           1352          20.00        83.70
  273.56        2959.25           1355          20.00        83.70
  273.59        2959.50           1358          20.00        83.70
  273.62        2959.75           1362          17.00        70.62
  273.64        2960.00           1365          24.00       101.13
  273.67        2960.25           1368          21.00        88.06
  273.70        2960.50           1372          31.00       131.65
  273.73        2960.75           1375          31.00       131.65
  273.75        2961.00           1378          48.00       205.76
  273.78        2961.25           1382         256.00      1112.50
  273.81        2961.50           1385         689.00      3000.25
  273.84        2961.75           1388        1547.00      6741.47
  273.86        2962.00           1392        3291.00     14348.40
  273.89        2962.25           1395        5072.00     22120.06
  273.92        2962.50           1398        7125.00     31082.84
  273.94        2962.75           1402        9836.00     42925.15
  273.97        2963.00           1405       12021.00     52475.49
  274.00        2963.25           1408       13890.00     60648.68
  274.03        2963.50           1412       16598.00     72497.50
  274.05        2963.75           1415       18933.00     82720.58
  274.08        2964.00           1418       20840.00     91074.15
  274.11        2964.25           1422       23424.00    102399.50
  274.14        2964.50           1425       25648.00    112152.90
  274.16        2964.75           1428       27775.00    121485.80
  274.19        2965.00           1431       29986.00    131192.50
  274.22        2965.25           1435       32883.00    143918.80
  274.25        2965.50           1438       34866.00    152635.30
  274.27        2965.75           1441       37363.00    163617.10
  274.30        2966.00           1445       40098.00    175653.40
  274.33        2966.25           1448       41984.00    183958.20
  274.35        2966.50           1451       43684.00    191447.20
  274.38        2966.75           1455       45093.00    197656.70
  274.41        2967.00           1458       45449.00    199226.00
  274.44        2967.25           1461       45517.00    199525.70
  274.46        2967.50           1465       45659.00    200151.70
  274.49        2967.75           1468       45328.00    198692.60
  274.52        2968.00           1471       44598.00    195475.00
  274.55        2968.25           1475       42806.00    187579.00
  274.57        2968.50           1478       41286.00    180884.20
  274.60        2968.75           1481       39068.00    171119.60
  274.63        2969.00           1485       36120.00    158149.50
  274.65        2969.25           1488       33871.00    148261.10
  274.68        2969.50           1491       31793.00    139129.40
  274.71        2969.75           1495       28647.00    125313.40
  274.74        2970.00           1498       26371.00    115324.70
  274.76        2970.25           1501       24279.00    106148.50
  274.79        2970.50           1505       21541.00     94145.84
  274.82        2970.75           1508       19288.00     84275.35
  274.85        2971.00           1511       17280.00     75482.81
  274.87        2971.25           1515       14399.00     62875.20
  274.90        2971.50           1518       12413.00     54189.40
  274.93        2971.75           1521       10046.00     43842.81
  274.96        2972.00           1525        7462.00     32554.51
  274.98        2972.25           1528        5440.00     23726.31
  275.01        2972.50           1531        3577.00     15596.17
  275.04        2972.75           1535        1580.00      6885.37
  275.06        2973.00           1538         673.00      2930.49
  275.09        2973.25           1541         220.00       955.56
  275.12        2973.50           1545          60.00       258.07
  275.15        2973.75           1548          36.00       153.44
  275.17        2974.00           1551          33.00       140.37
  275.20        2974.25           1555          25.00       105.49
  275.23        2974.50           1558          24.00       101.13
  275.25        2974.75           1561          22.00        92.42
  275.28        2975.00           1565          26.00       109.85
  275.31        2975.25           1568          18.00        74.98
  275.34        2975.50           1571          21.00        88.06
  275.36        2975.75           1575          26.00       109.85
  275.39        2976.00           1578          22.00        92.42
  275.42        2976.25           1581          20.00        83.70
  275.44        2976.50           1585          17.00        70.62
  275.47        2976.75           1588          20.00        83.70
  275.50        2977.00           1591          21.00        88.06
  275.53        2977.25           1595          22.00        92.42
  275.55        2977.50           1598          20.00        83.70
  275.58        2977.75           1601          17.00        70.62
  275.61        2978.00           1605          16.00        66.26
  275.64        2978.25           1608          19.00        79.34
  275.66        2978.50           1611          22.00        92.42
  275.69        2978.75           1615          20.00        83.70
  275.72        2979.00           1618          19.00        79.34
  275.74        2979.25           1621          19.00        79.34
  275.77        2979.50           1625          20.00        83.70
  275.80        2979.75           1628          20.00        83.70
  275.83        2980.00           1631          18.00        74.98
  275.85        2980.25           1635          17.00        70.62
  275.88        2980.50           1638          19.00        79.34
  275.91        2980.75           1641          22.00        92.42
  275.94        2981.00           1645          20.00        83.70
  275.96        2981.25           1648          20.00        83.70
  275.99        2981.50           1651          22.00        92.42
  276.02        2981.75           1655          19.00        79.34
  276.04        2982.00           1658          20.00        83.70
  276.07        2982.25           1661          22.00        92.42
  276.10        2982.50           1665          22.00        92.42
  276.13        2982.75           1668          22.00        92.42
  276.15        2983.00           1671          18.00        74.98
  276.18        2983.25           1675          20.00        83.70
  276.21        2983.50           1678          20.00        83.70
  276.23        2983.75           1681          22.00        92.42
  276.26        2984.00           1685          17.00        70.62
HS scan finished at 04:36:27
end
