************************************************************
  HS Scan of (1) Internal mercury lamp
************************************************************
Integration time is 0.2294 seconds per sample
dh260119Tamanrasset 22.79-5.529 4.974364pr865
************************************************************
Dead Time -------------------------  2.8E-08 
Number of Cycles Used -------------  4 
Starting Wavelength (Angstroms) ---  2950 
Final Wavelength (Angstoms) -------  2984 
Wavelength Increment (Angstroms) --  .25 
Filter Wheel #1 Position ---------- (1) Ground quartz diffuser (ND=2.32)
Filter Wheel #2 Position ---------- (1) Neutral Density 0.494



************************************************************
HS scan start time = 04:30:44
Dark Count =  1.8 


Time (GMT)  Wavelength (Ang)  Step Number  Raw Counts  Counts/Second

  271.10        2950.00           1233          18.00        70.62
  271.16        2950.25           1236          19.00        74.98
  271.19        2950.50           1239          18.00        70.62
  271.21        2950.75           1242          22.00        88.06
  271.24        2951.00           1246          21.00        83.70
  271.27        2951.25           1249          20.00        79.34
  271.30        2951.50           1252          20.00        79.34
  271.32        2951.75           1256          15.00        57.54
  271.35        2952.00           1259          18.00        70.62
  271.38        2952.25           1262          18.00        70.62
  271.40        2952.50           1266          21.00        83.70
  271.43        2952.75           1269          19.00        74.98
  271.46        2953.00           1272          18.00        70.62
  271.49        2953.25           1276          15.00        57.54
  271.51        2953.50           1279          20.00        79.34
  271.54        2953.75           1282          19.00        74.98
  271.57        2954.00           1286          19.00        74.98
  271.59        2954.25           1289          19.00        74.98
  271.62        2954.50           1292          22.00        88.06
  271.65        2954.75           1295          20.00        79.34
  271.68        2955.00           1299          17.00        66.26
  271.70        2955.25           1302          20.00        79.34
  271.73        2955.50           1305          19.00        74.98
  271.76        2955.75           1309          19.00        74.98
  271.78        2956.00           1312          18.00        70.62
  271.81        2956.25           1315          23.00        92.42
  271.84        2956.50           1319          11.00        40.10
  271.87        2956.75           1322          19.00        74.98
  271.89        2957.00           1325          20.00        79.34
  271.92        2957.25           1329          23.00        92.42
  271.95        2957.50           1332          20.00        79.34
  271.98        2957.75           1335          21.00        83.70
  272.00        2958.00           1339          16.00        61.90
  272.03        2958.25           1342          15.00        57.54
  272.06        2958.50           1345          15.00        57.54
  272.08        2958.75           1348          18.00        70.62
  272.11        2959.00           1352          17.00        66.26
  272.14        2959.25           1355          20.00        79.34
  272.17        2959.50           1358          22.00        88.06
  272.19        2959.75           1362          18.00        70.62
  272.22        2960.00           1365          23.00        92.42
  272.25        2960.25           1368          30.00       122.93
  272.27        2960.50           1372          27.00       109.85
  272.30        2960.75           1375          33.00       136.01
  272.33        2961.00           1378          71.00       301.66
  272.36        2961.25           1382         348.00      1509.22
  272.38        2961.50           1385         892.00      3880.98
  272.41        2961.75           1388        1892.00      8241.66
  272.44        2962.00           1392        3971.00     17310.92
  272.46        2962.25           1395        5950.00     25948.23
  272.49        2962.50           1398        8111.00     35384.65
  272.52        2962.75           1402       10488.00     45770.04
  272.55        2963.00           1405       12456.00     54373.05
  272.57        2963.25           1408       14640.00     63925.13
  272.60        2963.50           1412       17290.00     75522.23
  272.63        2963.75           1415       19295.00     84301.62
  272.66        2964.00           1418       21400.00     93523.57
  272.68        2964.25           1422       24272.00    106113.40
  272.71        2964.50           1425       26263.00    114846.50
  272.74        2964.75           1428       28621.00    125194.90
  272.77        2965.00           1431       30535.00    133599.10
  272.79        2965.25           1435       33447.00    146393.10
  272.82        2965.50           1438       35889.00    157129.20
  272.85        2965.75           1441       37683.00    165020.60
  272.87        2966.00           1445       40523.00    177520.10
  272.90        2966.25           1448       42265.00    185191.50
  272.93        2966.50           1451       43753.00    191746.90
  272.96        2966.75           1455       45004.00    197260.00
  272.98        2967.00           1458       45397.00    198992.30
  273.01        2967.25           1461       45520.00    199534.50
  273.04        2967.50           1465       45383.00    198930.60
  273.07        2967.75           1468       45128.00    197806.60
  273.09        2968.00           1471       44366.00    194448.10
  273.12        2968.25           1475       42577.00    186565.80
  273.15        2968.50           1478       40746.00    178502.00
  273.18        2968.75           1481       38597.00    169042.30
  273.20        2969.00           1485       35842.00    156922.50
  273.23        2969.25           1488       33499.00    146621.60
  273.26        2969.50           1491       31300.00    136959.30
  273.28        2969.75           1495       28494.00    124637.40
  273.31        2970.00           1498       26418.00    115526.50
  273.34        2970.25           1501       24214.00    105859.10
  273.37        2970.50           1505       21434.00     93672.57
  273.39        2970.75           1508       19305.00     84345.44
  273.42        2971.00           1511       17287.00     75509.08
  273.45        2971.25           1515       14544.00     63505.15
  273.48        2971.50           1518       12434.00     54276.85
  273.50        2971.75           1521       10273.00     44830.43
  273.53        2972.00           1525        7476.00     32611.28
  273.56        2972.25           1528        5369.00     23412.03
  273.59        2972.50           1531        3540.00     15430.38
  273.61        2972.75           1535        1585.00      6902.82
  273.64        2973.00           1538         688.00      2991.53
  273.67        2973.25           1541         207.00       894.53
  273.69        2973.50           1545          62.00       262.43
  273.72        2973.75           1548          36.00       149.09
  273.75        2974.00           1551          34.00       140.37
  273.78        2974.25           1555          24.00        96.77
  273.80        2974.50           1558          24.00        96.77
  273.83        2974.75           1561          24.00        96.77
  273.86        2975.00           1565          25.00       101.13
  273.88        2975.25           1568          18.00        70.62
  273.91        2975.50           1571          23.00        92.42
  273.94        2975.75           1575          27.00       109.85
  273.97        2976.00           1578          15.00        57.54
  273.99        2976.25           1581          21.00        83.70
  274.02        2976.50           1585          24.00        96.77
  274.05        2976.75           1588          23.00        92.42
  274.07        2977.00           1591          23.00        92.42
  274.10        2977.25           1595          21.00        83.70
  274.13        2977.50           1598          21.00        83.70
  274.16        2977.75           1601          16.00        61.90
  274.18        2978.00           1605          22.00        88.06
  274.21        2978.25           1608          16.00        61.90
  274.24        2978.50           1611          15.00        57.54
  274.26        2978.75           1615          19.00        74.98
  274.29        2979.00           1618          17.00        66.26
  274.32        2979.25           1621          23.00        92.42
  274.35        2979.50           1625          15.00        57.54
  274.37        2979.75           1628          21.00        83.70
  274.40        2980.00           1631          17.00        66.26
  274.43        2980.25           1635          19.00        74.98
  274.45        2980.50           1638          21.00        83.70
  274.48        2980.75           1641          21.00        83.70
  274.51        2981.00           1645          17.00        66.26
  274.54        2981.25           1648          19.00        74.98
  274.56        2981.50           1651          19.00        74.98
  274.59        2981.75           1655          23.00        92.42
  274.62        2982.00           1658          19.00        74.98
  274.64        2982.25           1661          20.00        79.34
  274.67        2982.50           1665          19.00        74.98
  274.70        2982.75           1668          19.00        74.98
  274.73        2983.00           1671          18.00        70.62
  274.75        2983.25           1675          19.00        74.98
  274.78        2983.50           1678          19.00        74.98
  274.81        2983.75           1681          21.00        83.70
  274.83        2984.00           1685          14.00        53.18
HS scan finished at 04:35:01
end
