************************************************************
  HS Scan of (1) Internal mercury lamp
************************************************************
Integration time is 0.2294 seconds per sample
dh280119Tamanrasset 22.79-5.529 4.974364pr865
************************************************************
Dead Time -------------------------  2.8E-08 
Number of Cycles Used -------------  4 
Starting Wavelength (Angstroms) ---  2950 
Final Wavelength (Angstoms) -------  2984 
Wavelength Increment (Angstroms) --  .25 
Filter Wheel #1 Position ---------- (1) Ground quartz diffuser (ND=2.32)
Filter Wheel #2 Position ---------- (1) Neutral Density 0.494



************************************************************
HS scan start time = 04:30:45
Dark Count =  5.7 


Time (GMT)  Wavelength (Ang)  Step Number  Raw Counts  Counts/Second

  271.11        2950.00           1233          22.00        71.06
  271.18        2950.25           1236          15.00        40.54
  271.20        2950.50           1239          16.00        44.90
  271.23        2950.75           1242          16.00        44.90
  271.26        2951.00           1246          22.00        71.06
  271.28        2951.25           1249          20.00        62.34
  271.31        2951.50           1252          22.00        71.06
  271.34        2951.75           1256          18.00        53.62
  271.37        2952.00           1259          21.00        66.70
  271.39        2952.25           1262          19.00        57.98
  271.42        2952.50           1266          19.00        57.98
  271.45        2952.75           1269          21.00        66.70
  271.47        2953.00           1272          18.00        53.62
  271.50        2953.25           1276          22.00        71.06
  271.53        2953.50           1279          21.00        66.70
  271.56        2953.75           1282          19.00        57.98
  271.58        2954.00           1286          18.00        53.62
  271.61        2954.25           1289          20.00        62.34
  271.64        2954.50           1292          19.00        57.98
  271.66        2954.75           1295          18.00        53.62
  271.69        2955.00           1299          21.00        66.70
  271.72        2955.25           1302          18.00        53.62
  271.75        2955.50           1305          18.00        53.62
  271.77        2955.75           1309          22.00        71.06
  271.80        2956.00           1312          18.00        53.62
  271.83        2956.25           1315          19.00        57.98
  271.85        2956.50           1319          17.00        49.26
  271.88        2956.75           1322          19.00        57.98
  271.91        2957.00           1325          18.00        53.62
  271.94        2957.25           1329          17.00        49.26
  271.96        2957.50           1332          16.00        44.90
  271.99        2957.75           1335          23.00        75.41
  272.02        2958.00           1339          20.00        62.34
  272.04        2958.25           1342          21.00        66.70
  272.07        2958.50           1345          20.00        62.34
  272.10        2958.75           1348          16.00        44.90
  272.13        2959.00           1352          22.00        71.06
  272.15        2959.25           1355          21.00        66.70
  272.18        2959.50           1358          21.00        66.70
  272.21        2959.75           1362          21.00        66.70
  272.23        2960.00           1365          23.00        75.41
  272.26        2960.25           1368          27.00        92.85
  272.29        2960.50           1372          27.00        92.85
  272.32        2960.75           1375          31.00       110.29
  272.34        2961.00           1378          83.00       336.97
  272.37        2961.25           1382         389.00      1670.96
  272.40        2961.50           1385        1015.00      4400.28
  272.42        2961.75           1388        2068.00      8992.24
  272.45        2962.00           1392        4171.00     18166.61
  272.48        2962.25           1395        5984.00     26079.63
  272.51        2962.50           1398        8071.00     35192.90
  272.53        2962.75           1402       10744.00     46871.85
  272.56        2963.00           1405       12888.00     56245.00
  272.59        2963.25           1408       14878.00     64949.31
  272.61        2963.50           1412       17825.00     77847.36
  272.64        2963.75           1415       19749.00     86273.11
  272.67        2964.00           1418       21934.00     95846.69
  272.70        2964.25           1422       24702.00    107982.10
  272.72        2964.50           1425       26870.00    117492.70
  272.75        2964.75           1428       29236.00    127877.70
  272.78        2965.00           1431       31292.00    136907.00
  272.81        2965.25           1435       34148.00    149457.20
  272.83        2965.50           1438       36456.00    159605.80
  272.86        2965.75           1441       38415.00    168224.30
  272.89        2966.00           1445       41199.00    180479.50
  272.92        2966.25           1448       43134.00    189002.40
  272.94        2966.50           1451       44539.00    195193.40
  272.97        2966.75           1455       45523.00    199530.60
  273.00        2967.00           1458       45991.00    201593.70
  273.02        2967.25           1461       46101.00    202078.70
  273.05        2967.50           1465       45997.00    201620.20
  273.08        2967.75           1468       45899.00    201188.20
  273.11        2968.00           1471       44808.00    196379.00
  273.13        2968.25           1475       43128.00    188975.90
  273.16        2968.50           1478       41223.00    180585.20
  273.19        2968.75           1481       39173.00    171560.20
  273.22        2969.00           1485       36387.00    159302.30
  273.24        2969.25           1488       33945.00    148564.90
  273.27        2969.50           1491       31837.00    139301.20
  273.30        2969.75           1495       28793.00    125932.80
  273.33        2970.00           1498       26629.00    116435.20
  273.35        2970.25           1501       24449.00    106872.50
  273.38        2970.50           1505       21461.00     93773.81
  273.41        2970.75           1508       19101.00     83434.88
  273.43        2971.00           1511       17130.00     74804.74
  273.46        2971.25           1515       14307.00     62451.31
  273.49        2971.50           1518       12116.00     52869.40
  273.52        2971.75           1521        9845.00     42943.07
  273.54        2972.00           1525        7304.00     31843.11
  273.57        2972.25           1528        5313.00     23150.57
  273.60        2972.50           1531        3394.00     14776.38
  273.63        2972.75           1535        1429.00      6205.53
  273.65        2973.00           1538         585.00      2525.46
  273.68        2973.25           1541         204.00       864.45
  273.71        2973.50           1545          48.00       184.40
  273.73        2973.75           1548          33.00       119.01
  273.76        2974.00           1551          31.00       110.29
  273.79        2974.25           1555          24.00        79.77
  273.82        2974.50           1558          28.00        97.21
  273.84        2974.75           1561          17.00        49.26
  273.87        2975.00           1565          21.00        66.70
  273.90        2975.25           1568          23.00        75.41
  273.92        2975.50           1571          24.00        79.77
  273.95        2975.75           1575          25.00        84.13
  273.98        2976.00           1578          20.00        62.34
  274.01        2976.25           1581          23.00        75.41
  274.03        2976.50           1585          16.00        44.90
  274.06        2976.75           1588          27.00        92.85
  274.09        2977.00           1591          21.00        66.70
  274.11        2977.25           1595          19.00        57.98
  274.14        2977.50           1598          27.00        92.85
  274.17        2977.75           1601          20.00        62.34
  274.20        2978.00           1605          22.00        71.06
  274.22        2978.25           1608          22.00        71.06
  274.25        2978.50           1611          20.00        62.34
  274.28        2978.75           1615          22.00        71.06
  274.30        2979.00           1618          19.00        57.98
  274.33        2979.25           1621          18.00        53.62
  274.36        2979.50           1625          21.00        66.70
  274.39        2979.75           1628          21.00        66.70
  274.41        2980.00           1631          18.00        53.62
  274.44        2980.25           1635          19.00        57.98
  274.47        2980.50           1638          24.00        79.77
  274.49        2980.75           1641          16.00        44.90
  274.52        2981.00           1645          20.00        62.34
  274.55        2981.25           1648          20.00        62.34
  274.58        2981.50           1651          19.00        57.98
  274.60        2981.75           1655          18.00        53.62
  274.63        2982.00           1658          18.00        53.62
  274.66        2982.25           1661          19.00        57.98
  274.68        2982.50           1665          19.00        57.98
  274.71        2982.75           1668          20.00        62.34
  274.74        2983.00           1671          18.00        53.62
  274.77        2983.25           1675          18.00        53.62
  274.79        2983.50           1678          17.00        49.26
  274.82        2983.75           1681          18.00        53.62
  274.85        2984.00           1685          16.00        44.90
HS scan finished at 04:35:02
end
