************************************************************
  HS Scan of (1) Internal mercury lamp
************************************************************
Integration time is 0.2294 seconds per sample
dh300119Tamanrasset 22.79-5.529 4.974364pr865
************************************************************
Dead Time -------------------------  2.8E-08 
Number of Cycles Used -------------  4 
Starting Wavelength (Angstroms) ---  2950 
Final Wavelength (Angstoms) -------  2984 
Wavelength Increment (Angstroms) --  .25 
Filter Wheel #1 Position ---------- (1) Ground quartz diffuser (ND=2.32)
Filter Wheel #2 Position ---------- (1) Neutral Density 0.494



************************************************************
HS scan start time = 04:29:48
Dark Count =  5.3 


Time (GMT)  Wavelength (Ang)  Step Number  Raw Counts  Counts/Second

  270.15        2950.00           1233          22.00        72.80
  270.21        2950.25           1236          19.00        59.72
  270.24        2950.50           1239          21.00        68.44
  270.27        2950.75           1242          20.00        64.08
  270.30        2951.00           1246          22.00        72.80
  270.32        2951.25           1249          16.00        46.64
  270.35        2951.50           1252          16.00        46.64
  270.38        2951.75           1256          21.00        68.44
  270.40        2952.00           1259          19.00        59.72
  270.43        2952.25           1262          20.00        64.08
  270.46        2952.50           1266          17.00        51.00
  270.48        2952.75           1269          19.00        59.72
  270.51        2953.00           1272          18.00        55.36
  270.54        2953.25           1276          21.00        68.44
  270.57        2953.50           1279          17.00        51.00
  270.59        2953.75           1282          18.00        55.36
  270.62        2954.00           1286          19.00        59.72
  270.65        2954.25           1289          19.00        59.72
  270.68        2954.50           1292          21.00        68.44
  270.70        2954.75           1295          19.00        59.72
  270.73        2955.00           1299          19.00        59.72
  270.76        2955.25           1302          18.00        55.36
  270.78        2955.50           1305          20.00        64.08
  270.81        2955.75           1309          19.00        59.72
  270.84        2956.00           1312          19.00        59.72
  270.87        2956.25           1315          19.00        59.72
  270.89        2956.50           1319          20.00        64.08
  270.92        2956.75           1322          16.00        46.64
  270.95        2957.00           1325          25.00        85.88
  270.97        2957.25           1329          19.00        59.72
  271.00        2957.50           1332          18.00        55.36
  271.03        2957.75           1335          18.00        55.36
  271.06        2958.00           1339          18.00        55.36
  271.08        2958.25           1342          22.00        72.80
  271.11        2958.50           1345          14.00        37.93
  271.14        2958.75           1348          18.00        55.36
  271.17        2959.00           1352          18.00        55.36
  271.19        2959.25           1355          19.00        59.72
  271.22        2959.50           1358          22.00        72.80
  271.25        2959.75           1362          19.00        59.72
  271.27        2960.00           1365          23.00        77.16
  271.30        2960.25           1368          25.00        85.88
  271.33        2960.50           1372          26.00        90.24
  271.36        2960.75           1375          32.00       116.39
  271.38        2961.00           1378          70.00       282.04
  271.41        2961.25           1382         347.00      1489.60
  271.44        2961.50           1385         884.00      3830.84
  271.46        2961.75           1388        1789.00      7777.20
  271.49        2962.00           1392        3896.00     16968.39
  271.52        2962.25           1395        5802.00     25286.86
  271.55        2962.50           1398        7888.00     34395.36
  271.57        2962.75           1402       10676.00     46576.40
  271.60        2963.00           1405       12524.00     54655.07
  271.63        2963.25           1408       14775.00     64500.44
  271.66        2963.50           1412       17586.00     76802.74
  271.68        2963.75           1415       19496.00     85166.68
  271.71        2964.00           1418       21574.00     94270.74
  271.74        2964.25           1422       24369.00    106523.40
  271.76        2964.50           1425       26483.00    115796.40
  271.79        2964.75           1428       28870.00    126272.60
  271.82        2965.00           1431       31110.00    136109.30
  271.85        2965.25           1435       33915.00    148434.70
  271.87        2965.50           1438       36202.00    158490.40
  271.90        2965.75           1441       38222.00    167376.80
  271.93        2966.00           1445       40825.00    178834.40
  271.96        2966.25           1448       42697.00    187079.00
  271.98        2966.50           1451       44100.00    193260.50
  272.01        2966.75           1455       45474.00    199316.30
  272.04        2967.00           1458       45598.00    199863.00
  272.07        2967.25           1461       45881.00    201110.50
  272.09        2967.50           1465       45851.00    200978.30
  272.12        2967.75           1468       45395.00    198968.10
  272.15        2968.00           1471       44781.00    196261.70
  272.17        2968.25           1475       43063.00    188691.30
  272.20        2968.50           1478       41437.00    181529.30
  272.23        2968.75           1481       39186.00    171619.10
  272.26        2969.00           1485       36218.00    158560.70
  272.28        2969.25           1488       33954.00    148606.20
  272.31        2969.50           1491       31797.00    139127.20
  272.34        2969.75           1495       28823.00    126066.30
  272.37        2970.00           1498       26929.00    117753.40
  272.39        2970.25           1501       24486.00    107036.50
  272.42        2970.50           1505       21655.00     94625.71
  272.45        2970.75           1508       19551.00     85407.58
  272.48        2971.00           1511       17278.00     75454.37
  272.50        2971.25           1515       14308.00     62457.44
  272.53        2971.50           1518       12296.00     53658.16
  272.56        2971.75           1521       10214.00     44557.30
  272.59        2972.00           1525        7448.00     32473.72
  272.61        2972.25           1528        5461.00     23798.33
  272.64        2972.50           1531        3562.00     15511.10
  272.67        2972.75           1535        1584.00      6883.19
  272.69        2973.00           1538         694.00      3002.43
  272.72        2973.25           1541         214.00       909.79
  272.75        2973.50           1545          60.00       238.45
  272.78        2973.75           1548          39.00       146.91
  272.80        2974.00           1551          33.00       120.75
  272.83        2974.25           1555          30.00       107.67
  272.86        2974.50           1558          22.00        72.80
  272.88        2974.75           1561          26.00        90.24
  272.91        2975.00           1565          26.00        90.24
  272.94        2975.25           1568          20.00        64.08
  272.97        2975.50           1571          24.00        81.52
  272.99        2975.75           1575          21.00        68.44
  273.02        2976.00           1578          20.00        64.08
  273.05        2976.25           1581          25.00        85.88
  273.07        2976.50           1585          17.00        51.00
  273.10        2976.75           1588          20.00        64.08
  273.13        2977.00           1591          19.00        59.72
  273.15        2977.25           1595          21.00        68.44
  273.18        2977.50           1598          25.00        85.88
  273.21        2977.75           1601          24.00        81.52
  273.24        2978.00           1605          24.00        81.52
  273.26        2978.25           1608          25.00        85.88
  273.29        2978.50           1611          20.00        64.08
  273.32        2978.75           1615          19.00        59.72
  273.35        2979.00           1618          21.00        68.44
  273.37        2979.25           1621          18.00        55.36
  273.40        2979.50           1625          21.00        68.44
  273.43        2979.75           1628          27.00        94.59
  273.45        2980.00           1631          17.00        51.00
  273.48        2980.25           1635          16.00        46.64
  273.51        2980.50           1638          20.00        64.08
  273.53        2980.75           1641          13.00        33.57
  273.56        2981.00           1645          23.00        77.16
  273.59        2981.25           1648          20.00        64.08
  273.62        2981.50           1651          19.00        59.72
  273.64        2981.75           1655          23.00        77.16
  273.67        2982.00           1658          18.00        55.36
  273.70        2982.25           1661          20.00        64.08
  273.72        2982.50           1665          18.00        55.36
  273.75        2982.75           1668          18.00        55.36
  273.78        2983.00           1671          14.00        37.93
  273.81        2983.25           1675          16.00        46.64
  273.83        2983.50           1678          20.00        64.08
  273.86        2983.75           1681          17.00        51.00
  273.89        2984.00           1685          14.00        37.93
HS scan finished at 04:34:04
end
