************************************************************
  HS Scan of (1) Internal mercury lamp
************************************************************
Integration time is 0.2294 seconds per sample
dh300117Tamanrasset 22.79-5.529 2.664829pr865
************************************************************
Dead Time -------------------------  2.8E-08 
Number of Cycles Used -------------  4 
Starting Wavelength (Angstroms) ---  2950 
Final Wavelength (Angstoms) -------  2984 
Wavelength Increment (Angstroms) --  .25 
Filter Wheel #1 Position ---------- (1) Ground quartz diffuser (ND=2.32)
Filter Wheel #2 Position ---------- (1) Neutral Density 0.494



************************************************************
HS scan start time = 04:00:50
Dark Count =  5.7 


Time (GMT)  Wavelength (Ang)  Step Number  Raw Counts  Counts/Second

  241.19        2950.00           1233           0.00         2.00
  241.26        2950.25           1236           4.00         2.00
  241.29        2950.50           1239           0.00         2.00
  241.31        2950.75           1242           8.00        10.03
  241.34        2951.00           1246           8.00        10.03
  241.37        2951.25           1249           8.00        10.03
  241.39        2951.50           1252           8.00        10.03
  241.42        2951.75           1256           0.00         2.00
  241.45        2952.00           1259           3.00         2.00
  241.48        2952.25           1262           0.00         2.00
  241.50        2952.50           1266           1.00         2.00
  241.53        2952.75           1269           0.00         2.00
  241.56        2953.00           1272           0.00         2.00
  241.59        2953.25           1276           8.00        10.03
  241.61        2953.50           1279           0.00         2.00
  241.64        2953.75           1282           0.00         2.00
  241.67        2954.00           1286           0.00         2.00
  241.69        2954.25           1289           0.00         2.00
  241.72        2954.50           1292           8.00        10.03
  241.75        2954.75           1295           8.00        10.03
  241.78        2955.00           1299           0.00         2.00
  241.80        2955.25           1302           7.00         5.67
  241.83        2955.50           1305           8.00        10.03
  241.86        2955.75           1309           8.00        10.03
  241.88        2956.00           1312           2.00         2.00
  241.91        2956.25           1315           0.00         2.00
  241.94        2956.50           1319           1.00         2.00
  241.97        2956.75           1322           1.00         2.00
  241.99        2957.00           1325           8.00        10.03
  242.02        2957.25           1329           1.00         2.00
  242.05        2957.50           1332           6.00         2.00
  242.08        2957.75           1335           8.00        10.03
  242.10        2958.00           1339           1.00         2.00
  242.13        2958.25           1342           8.00        10.03
  242.16        2958.50           1345           0.00         2.00
  242.18        2958.75           1348           8.00        10.03
  242.21        2959.00           1352           3.00         2.00
  242.24        2959.25           1355           1.00         2.00
  242.27        2959.50           1358           8.00        10.03
  242.29        2959.75           1362           3.00         2.00
  242.32        2960.00           1365           0.00         2.00
  242.35        2960.25           1368           0.00         2.00
  242.37        2960.50           1372           0.00         2.00
  242.40        2960.75           1375           6.00         2.00
  242.43        2961.00           1378           1.00         2.00
  242.46        2961.25           1382           8.00        10.03
  242.48        2961.50           1385           4.00         2.00
  242.51        2961.75           1388           3.00         2.00
  242.54        2962.00           1392           1.00         2.00
  242.57        2962.25           1395           8.00        10.03
  242.59        2962.50           1398           8.00        10.03
  242.62        2962.75           1402           0.00         2.00
  242.65        2963.00           1405           0.00         2.00
  242.68        2963.25           1408           8.00        10.03
  242.70        2963.50           1412           8.00        10.03
  242.73        2963.75           1415           7.00         5.67
  242.76        2964.00           1418           8.00        10.03
  242.78        2964.25           1422           8.00        10.03
  242.81        2964.50           1425           1.00         2.00
  242.84        2964.75           1428           0.00         2.00
  242.87        2965.00           1431           6.00         2.00
  242.89        2965.25           1435           8.00        10.03
  242.92        2965.50           1438           7.00         5.67
  242.95        2965.75           1441           0.00         2.00
  242.97        2966.00           1445           0.00         2.00
  243.00        2966.25           1448           3.00         2.00
  243.03        2966.50           1451           8.00        10.03
  243.06        2966.75           1455           8.00        10.03
  243.08        2967.00           1458           0.00         2.00
  243.11        2967.25           1461           8.00        10.03
  243.14        2967.50           1465           8.00        10.03
  243.17        2967.75           1468           8.00        10.03
  243.19        2968.00           1471           4.00         2.00
  243.22        2968.25           1475           5.00         2.00
  243.25        2968.50           1478           8.00        10.03
  243.27        2968.75           1481           8.00        10.03
  243.30        2969.00           1485           2.00         2.00
  243.33        2969.25           1488           6.00         2.00
  243.36        2969.50           1491           8.00        10.03
  243.38        2969.75           1495           0.00         2.00
  243.41        2970.00           1498           0.00         2.00
  243.44        2970.25           1501           0.00         2.00
  243.47        2970.50           1505           7.00         5.67
  243.49        2970.75           1508           6.00         2.00
  243.52        2971.00           1511           8.00        10.03
  243.55        2971.25           1515           6.00         2.00
  243.57        2971.50           1518           5.00         2.00
  243.60        2971.75           1521           0.00         2.00
  243.63        2972.00           1525           8.00        10.03
  243.66        2972.25           1528           8.00        10.03
  243.68        2972.50           1531           8.00        10.03
  243.71        2972.75           1535           0.00         2.00
  243.74        2973.00           1538           6.00         2.00
  243.77        2973.25           1541           4.00         2.00
  243.79        2973.50           1545           8.00        10.03
  243.82        2973.75           1548           6.00         2.00
  243.85        2974.00           1551           7.00         5.67
  243.87        2974.25           1555           5.00         2.00
  243.90        2974.50           1558           2.00         2.00
  243.93        2974.75           1561           0.00         2.00
  243.96        2975.00           1565           3.00         2.00
  243.98        2975.25           1568           8.00        10.03
  244.01        2975.50           1571           0.00         2.00
  244.04        2975.75           1575           0.00         2.00
  244.06        2976.00           1578           5.00         2.00
  244.09        2976.25           1581           0.00         2.00
  244.12        2976.50           1585           8.00        10.03
  244.15        2976.75           1588           5.00         2.00
  244.17        2977.00           1591           8.00        10.03
  244.20        2977.25           1595           8.00        10.03
  244.23        2977.50           1598           0.00         2.00
  244.26        2977.75           1601           8.00        10.03
  244.28        2978.00           1605           8.00        10.03
  244.31        2978.25           1608           0.00         2.00
  244.34        2978.50           1611           0.00         2.00
  244.36        2978.75           1615           8.00        10.03
  244.39        2979.00           1618           0.00         2.00
  244.42        2979.25           1621           5.00         2.00
  244.45        2979.50           1625           8.00        10.03
  244.47        2979.75           1628           8.00        10.03
  244.50        2980.00           1631           4.00         2.00
  244.53        2980.25           1635           8.00        10.03
  244.56        2980.50           1638           8.00        10.03
  244.58        2980.75           1641           8.00        10.03
  244.61        2981.00           1645           8.00        10.03
  244.64        2981.25           1648           4.00         2.00
  244.66        2981.50           1651           0.00         2.00
  244.69        2981.75           1655           0.00         2.00
  244.72        2982.00           1658           4.00         2.00
  244.75        2982.25           1661           0.00         2.00
  244.77        2982.50           1665           0.00         2.00
  244.80        2982.75           1668           3.00         2.00
  244.83        2983.00           1671           0.00         2.00
  244.86        2983.25           1675           8.00        10.03
  244.88        2983.50           1678           8.00        10.03
  244.91        2983.75           1681           8.00        10.03
  244.94        2984.00           1685           5.00         2.00
HS scan finished at 04:05:08
end
