************************************************************
  HS Scan of (1) Internal mercury lamp
************************************************************
Integration time is 0.2294 seconds per sample
dh080219Tamanrasset 22.79-5.529 4.974364pr865
************************************************************
Dead Time -------------------------  2.8E-08 
Number of Cycles Used -------------  4 
Starting Wavelength (Angstroms) ---  2950 
Final Wavelength (Angstoms) -------  2984 
Wavelength Increment (Angstroms) --  .25 
Filter Wheel #1 Position ---------- (1) Ground quartz diffuser (ND=2.32)
Filter Wheel #2 Position ---------- (1) Neutral Density 0.494



************************************************************
HS scan start time = 04:25:54
Dark Count =  3.8 


Time (GMT)  Wavelength (Ang)  Step Number  Raw Counts  Counts/Second

  266.25        2950.00           1233          20.00        70.62
  266.32        2950.25           1236          20.00        70.62
  266.35        2950.50           1239          20.00        70.62
  266.37        2950.75           1242          15.00        48.82
  266.40        2951.00           1246          19.00        66.26
  266.43        2951.25           1249          22.00        79.34
  266.45        2951.50           1252          18.00        61.90
  266.48        2951.75           1256          23.00        83.70
  266.51        2952.00           1259          17.00        57.54
  266.54        2952.25           1262          17.00        57.54
  266.56        2952.50           1266          21.00        74.98
  266.59        2952.75           1269          22.00        79.34
  266.62        2953.00           1272          19.00        66.26
  266.64        2953.25           1276          20.00        70.62
  266.67        2953.50           1279          19.00        66.26
  266.70        2953.75           1282          23.00        83.70
  266.73        2954.00           1286          18.00        61.90
  266.75        2954.25           1289          16.00        53.18
  266.78        2954.50           1292          19.00        66.26
  266.81        2954.75           1295          14.00        44.46
  266.83        2955.00           1299          21.00        74.98
  266.86        2955.25           1302          22.00        79.34
  266.89        2955.50           1305          17.00        57.54
  266.92        2955.75           1309          20.00        70.62
  266.94        2956.00           1312          24.00        88.06
  266.97        2956.25           1315          16.00        53.18
  267.00        2956.50           1319          22.00        79.34
  267.02        2956.75           1322          17.00        57.54
  267.05        2957.00           1325          19.00        66.26
  267.08        2957.25           1329          21.00        74.98
  267.11        2957.50           1332          19.00        66.26
  267.13        2957.75           1335          18.00        61.90
  267.16        2958.00           1339          18.00        61.90
  267.19        2958.25           1342          17.00        57.54
  267.21        2958.50           1345          20.00        70.62
  267.24        2958.75           1348          16.00        53.18
  267.27        2959.00           1352          21.00        74.98
  267.30        2959.25           1355          21.00        74.98
  267.32        2959.50           1358          22.00        79.34
  267.35        2959.75           1362          17.00        57.54
  267.38        2960.00           1365          24.00        88.06
  267.40        2960.25           1368          23.00        83.70
  267.43        2960.50           1372          30.00       114.21
  267.46        2960.75           1375          31.00       118.57
  267.49        2961.00           1378          66.00       271.14
  267.51        2961.25           1382         343.00      1478.70
  267.54        2961.50           1385         829.00      3597.57
  267.57        2961.75           1388        1816.00      7901.49
  267.59        2962.00           1392        3788.00     16503.70
  267.62        2962.25           1395        5675.00     24739.02
  267.65        2962.50           1398        7656.00     33388.66
  267.68        2962.75           1402       10337.00     45101.39
  267.70        2963.00           1405       12407.00     54150.04
  267.73        2963.25           1408       14354.00     62665.23
  267.76        2963.50           1412       17260.00     75382.13
  267.79        2963.75           1415       19270.00     84183.38
  267.81        2964.00           1418       21501.00     93957.41
  267.84        2964.25           1422       24100.00    105350.40
  267.87        2964.50           1425       25980.00    113596.10
  267.89        2964.75           1428       28060.00    122723.50
  267.92        2965.00           1431       29928.00    130924.60
  267.95        2965.25           1435       32979.00    144327.50
  267.98        2965.50           1438       35182.00    154011.40
  268.00        2965.75           1441       37466.00    164057.00
  268.03        2966.00           1445       40151.00    175873.60
  268.06        2966.25           1448       42071.00    184328.20
  268.09        2966.50           1451       43417.00    190257.60
  268.11        2966.75           1455       44612.00    195523.50
  268.14        2967.00           1458       44952.00    197022.00
  268.17        2967.25           1461       45453.00    199230.40
  268.20        2967.50           1465       45093.00    197643.50
  268.22        2967.75           1468       44998.00    197224.80
  268.25        2968.00           1471       44004.00    192844.10
  268.28        2968.25           1475       42604.00    186675.90
  268.30        2968.50           1478       40789.00    178682.50
  268.33        2968.75           1481       38677.00    169385.60
  268.36        2969.00           1485       35749.00    156504.70
  268.39        2969.25           1488       33633.00    147201.80
  268.41        2969.50           1491       31357.00    137200.90
  268.44        2969.75           1495       28579.00    125001.70
  268.47        2970.00           1498       26331.00    115136.10
  268.50        2970.25           1501       24210.00    105832.80
  268.52        2970.50           1505       21320.00     93164.24
  268.55        2970.75           1508       19262.00     84148.34
  268.58        2971.00           1511       17132.00     74821.81
  268.61        2971.25           1515       14430.00     62997.69
  268.63        2971.50           1518       12257.00     53494.19
  268.66        2971.75           1521       10184.00     44432.76
  268.69        2972.00           1525        7547.00     32912.62
  268.71        2972.25           1528        5529.00     24101.70
  268.74        2972.50           1531        3589.00     15635.44
  268.77        2972.75           1535        1690.00      7351.99
  268.80        2973.00           1538         725.00      3144.13
  268.82        2973.25           1541         267.00      1147.38
  268.85        2973.50           1545          55.00       223.19
  268.88        2973.75           1548          30.00       114.21
  268.90        2974.00           1551          25.00        92.42
  268.93        2974.25           1555          24.00        88.06
  268.96        2974.50           1558          24.00        88.06
  268.99        2974.75           1561          19.00        66.26
  269.01        2975.00           1565          20.00        70.62
  269.04        2975.25           1568          27.00       101.13
  269.07        2975.50           1571          24.00        88.06
  269.10        2975.75           1575          18.00        61.90
  269.12        2976.00           1578          22.00        79.34
  269.15        2976.25           1581          23.00        83.70
  269.18        2976.50           1585          20.00        70.62
  269.20        2976.75           1588          20.00        70.62
  269.23        2977.00           1591          23.00        83.70
  269.26        2977.25           1595          26.00        96.77
  269.29        2977.50           1598          23.00        83.70
  269.31        2977.75           1601          16.00        53.18
  269.34        2978.00           1605          22.00        79.34
  269.37        2978.25           1608          19.00        66.26
  269.39        2978.50           1611          20.00        70.62
  269.42        2978.75           1615          18.00        61.90
  269.45        2979.00           1618          18.00        61.90
  269.47        2979.25           1621          20.00        70.62
  269.50        2979.50           1625          21.00        74.98
  269.53        2979.75           1628          23.00        83.70
  269.56        2980.00           1631          18.00        61.90
  269.58        2980.25           1635          16.00        53.18
  269.61        2980.50           1638          20.00        70.62
  269.64        2980.75           1641          19.00        66.26
  269.67        2981.00           1645          22.00        79.34
  269.69        2981.25           1648          21.00        74.98
  269.72        2981.50           1651          17.00        57.54
  269.75        2981.75           1655          20.00        70.62
  269.77        2982.00           1658          20.00        70.62
  269.80        2982.25           1661          21.00        74.98
  269.83        2982.50           1665          17.00        57.54
  269.85        2982.75           1668          16.00        53.18
  269.88        2983.00           1671          20.00        70.62
  269.91        2983.25           1675          22.00        79.34
  269.94        2983.50           1678          19.00        66.26
  269.96        2983.75           1681          20.00        70.62
  269.99        2984.00           1685          15.00        48.82
HS scan finished at 04:30:11
end
