************************************************************
  HS Scan of (1) Internal mercury lamp
************************************************************
Integration time is 0.2294 seconds per sample
dh050219Tamanrasset 22.79-5.529 4.974364pr865
************************************************************
Dead Time -------------------------  2.8E-08 
Number of Cycles Used -------------  4 
Starting Wavelength (Angstroms) ---  2950 
Final Wavelength (Angstoms) -------  2984 
Wavelength Increment (Angstroms) --  .25 
Filter Wheel #1 Position ---------- (1) Ground quartz diffuser (ND=2.32)
Filter Wheel #2 Position ---------- (1) Neutral Density 0.494



************************************************************
HS scan start time = 04:27:40
Dark Count =  6.6 


Time (GMT)  Wavelength (Ang)  Step Number  Raw Counts  Counts/Second

  268.02        2950.00           1233          17.00        45.34
  268.09        2950.25           1236          18.00        49.69
  268.11        2950.50           1239          17.00        45.34
  268.14        2950.75           1242          18.00        49.69
  268.17        2951.00           1246          22.00        67.13
  268.19        2951.25           1249          22.00        67.13
  268.22        2951.50           1252          15.00        36.62
  268.25        2951.75           1256          20.00        58.41
  268.28        2952.00           1259          18.00        49.69
  268.30        2952.25           1262          15.00        36.62
  268.33        2952.50           1266          19.00        54.05
  268.36        2952.75           1269          22.00        67.13
  268.38        2953.00           1272          20.00        58.41
  268.41        2953.25           1276          20.00        58.41
  268.44        2953.50           1279          21.00        62.77
  268.47        2953.75           1282          21.00        62.77
  268.49        2954.00           1286          21.00        62.77
  268.52        2954.25           1289          19.00        54.05
  268.55        2954.50           1292          16.00        40.98
  268.57        2954.75           1295          19.00        54.05
  268.60        2955.00           1299          17.00        45.34
  268.63        2955.25           1302          23.00        71.49
  268.66        2955.50           1305          21.00        62.77
  268.68        2955.75           1309          18.00        49.69
  268.71        2956.00           1312          18.00        49.69
  268.74        2956.25           1315          15.00        36.62
  268.76        2956.50           1319          18.00        49.69
  268.79        2956.75           1322          20.00        58.41
  268.82        2957.00           1325          20.00        58.41
  268.85        2957.25           1329          20.00        58.41
  268.87        2957.50           1332          21.00        62.77
  268.90        2957.75           1335          15.00        36.62
  268.93        2958.00           1339          20.00        58.41
  268.95        2958.25           1342          18.00        49.69
  268.98        2958.50           1345          21.00        62.77
  269.01        2958.75           1348          22.00        67.13
  269.04        2959.00           1352          22.00        67.13
  269.06        2959.25           1355          20.00        58.41
  269.09        2959.50           1358          22.00        67.13
  269.12        2959.75           1362          21.00        62.77
  269.14        2960.00           1365          23.00        71.49
  269.17        2960.25           1368          22.00        67.13
  269.20        2960.50           1372          31.00       106.36
  269.23        2960.75           1375          33.00       115.08
  269.25        2961.00           1378          63.00       245.86
  269.28        2961.25           1382         342.00      1462.13
  269.31        2961.50           1385         885.00      3829.53
  269.33        2961.75           1388        1844.00      8011.39
  269.36        2962.00           1392        3929.00     17106.71
  269.39        2962.25           1395        5721.00     24927.60
  269.42        2962.50           1398        7768.00     33865.58
  269.44        2962.75           1402       10377.00     45263.96
  269.47        2963.00           1405       12475.00     54435.14
  269.50        2963.25           1408       14696.00     64149.13
  269.53        2963.50           1412       17226.00     75221.04
  269.55        2963.75           1415       19496.00     85160.99
  269.58        2964.00           1418       21788.00     95202.88
  269.61        2964.25           1422       24478.00    106995.80
  269.63        2964.50           1425       26524.00    115970.60
  269.66        2964.75           1428       28744.00    125713.80
  269.69        2965.00           1431       30680.00    134214.90
  269.72        2965.25           1435       33671.00    147356.50
  269.74        2965.50           1438       35943.00    157345.60
  269.77        2965.75           1441       38043.00    166583.40
  269.80        2966.00           1445       40896.00    179141.30
  269.83        2966.25           1448       42715.00    187152.50
  269.85        2966.50           1451       43987.00    192756.80
  269.88        2966.75           1455       45455.00    199226.80
  269.91        2967.00           1458       45827.00    200866.80
  269.93        2967.25           1461       45933.00    201334.10
  269.96        2967.50           1465       45887.00    201131.30
  269.99        2967.75           1468       45634.00    200015.90
  270.02        2968.00           1471       44807.00    196370.60
  270.04        2968.25           1475       43050.00    188628.30
  270.07        2968.50           1478       41268.00    180779.40
  270.10        2968.75           1481       39223.00    171776.30
  270.13        2969.00           1485       36406.00    159381.90
  270.15        2969.25           1488       33990.00    148758.70
  270.18        2969.50           1491       31791.00    139095.20
  270.21        2969.75           1495       28859.00    126218.60
  270.23        2970.00           1498       26731.00    116878.80
  270.26        2970.25           1501       24482.00    107013.30
  270.29        2970.50           1505       21549.00     94155.49
  270.32        2970.75           1508       19380.00     84652.91
  270.34        2971.00           1511       17219.00     75190.40
  270.37        2971.25           1515       14441.00     63033.56
  270.40        2971.50           1518       12160.00     53057.85
  270.43        2971.75           1521       10164.00     44333.12
  270.45        2972.00           1525        7161.00     31214.72
  270.48        2972.25           1528        5175.00     22544.31
  270.51        2972.50           1531        3379.00     14707.01
  270.54        2972.75           1535        1436.00      6232.13
  270.56        2973.00           1538         597.00      2573.86
  270.59        2973.25           1541         186.00       782.06
  270.62        2973.50           1545          49.00       184.83
  270.64        2973.75           1548          38.00       136.88
  270.67        2974.00           1551          29.00        97.65
  270.70        2974.25           1555          24.00        75.85
  270.73        2974.50           1558          25.00        80.21
  270.75        2974.75           1561          24.00        75.85
  270.78        2975.00           1565          16.00        40.98
  270.81        2975.25           1568          25.00        80.21
  270.83        2975.50           1571          22.00        67.13
  270.86        2975.75           1575          21.00        62.77
  270.89        2976.00           1578          20.00        58.41
  270.91        2976.25           1581          19.00        54.05
  270.94        2976.50           1585          22.00        67.13
  270.97        2976.75           1588          20.00        58.41
  271.00        2977.00           1591          17.00        45.34
  271.02        2977.25           1595          17.00        45.34
  271.05        2977.50           1598          24.00        75.85
  271.08        2977.75           1601          24.00        75.85
  271.11        2978.00           1605          20.00        58.41
  271.13        2978.25           1608          24.00        75.85
  271.16        2978.50           1611          24.00        75.85
  271.19        2978.75           1615          21.00        62.77
  271.21        2979.00           1618          21.00        62.77
  271.24        2979.25           1621          20.00        58.41
  271.27        2979.50           1625          16.00        40.98
  271.30        2979.75           1628          22.00        67.13
  271.32        2980.00           1631          19.00        54.05
  271.35        2980.25           1635          19.00        54.05
  271.38        2980.50           1638          16.00        40.98
  271.40        2980.75           1641          17.00        45.34
  271.43        2981.00           1645          16.00        40.98
  271.46        2981.25           1648          19.00        54.05
  271.49        2981.50           1651          16.00        40.98
  271.51        2981.75           1655          22.00        67.13
  271.54        2982.00           1658          18.00        49.69
  271.57        2982.25           1661          24.00        75.85
  271.59        2982.50           1665          19.00        54.05
  271.62        2982.75           1668          19.00        54.05
  271.65        2983.00           1671          21.00        62.77
  271.67        2983.25           1675          20.00        58.41
  271.70        2983.50           1678          15.00        36.62
  271.73        2983.75           1681          16.00        40.98
  271.76        2984.00           1685          21.00        62.77
HS scan finished at 04:31:57
end
