************************************************************
  HS Scan of (1) Internal mercury lamp
************************************************************
Integration time is 0.2294 seconds per sample
dh060219Tamanrasset 22.79-5.529 4.974364pr865
************************************************************
Dead Time -------------------------  2.8E-08 
Number of Cycles Used -------------  4 
Starting Wavelength (Angstroms) ---  2950 
Final Wavelength (Angstoms) -------  2984 
Wavelength Increment (Angstroms) --  .25 
Filter Wheel #1 Position ---------- (1) Ground quartz diffuser (ND=2.32)
Filter Wheel #2 Position ---------- (1) Neutral Density 0.494



************************************************************
HS scan start time = 04:27:21
Dark Count =  5 


Time (GMT)  Wavelength (Ang)  Step Number  Raw Counts  Counts/Second

  267.72        2950.00           1233          18.00        56.67
  267.78        2950.25           1236          24.00        82.82
  267.81        2950.50           1239          19.00        61.03
  267.83        2950.75           1242          21.00        69.75
  267.86        2951.00           1246          23.00        78.47
  267.89        2951.25           1249          21.00        69.75
  267.91        2951.50           1252          18.00        56.67
  267.94        2951.75           1256          19.00        61.03
  267.97        2952.00           1259          17.00        52.31
  268.00        2952.25           1262          20.00        65.39
  268.02        2952.50           1266          20.00        65.39
  268.05        2952.75           1269          16.00        47.95
  268.08        2953.00           1272          16.00        47.95
  268.10        2953.25           1276          18.00        56.67
  268.13        2953.50           1279          20.00        65.39
  268.16        2953.75           1282          23.00        78.47
  268.19        2954.00           1286          20.00        65.39
  268.21        2954.25           1289          24.00        82.82
  268.24        2954.50           1292          19.00        61.03
  268.27        2954.75           1295          21.00        69.75
  268.29        2955.00           1299          22.00        74.11
  268.32        2955.25           1302          17.00        52.31
  268.35        2955.50           1305          20.00        65.39
  268.38        2955.75           1309          20.00        65.39
  268.40        2956.00           1312          20.00        65.39
  268.43        2956.25           1315          23.00        78.47
  268.46        2956.50           1319          21.00        69.75
  268.48        2956.75           1322          19.00        61.03
  268.51        2957.00           1325          15.00        43.59
  268.54        2957.25           1329          22.00        74.11
  268.57        2957.50           1332          22.00        74.11
  268.59        2957.75           1335          19.00        61.03
  268.62        2958.00           1339          21.00        69.75
  268.65        2958.25           1342          22.00        74.11
  268.67        2958.50           1345          19.00        61.03
  268.70        2958.75           1348          17.00        52.31
  268.73        2959.00           1352          23.00        78.47
  268.76        2959.25           1355          18.00        56.67
  268.78        2959.50           1358          20.00        65.39
  268.81        2959.75           1362          24.00        82.82
  268.84        2960.00           1365          22.00        74.11
  268.86        2960.25           1368          24.00        82.82
  268.89        2960.50           1372          29.00       104.62
  268.92        2960.75           1375          29.00       104.62
  268.95        2961.00           1378          91.00       374.89
  268.97        2961.25           1382         431.00      1857.11
  269.00        2961.50           1385        1083.00      4699.83
  269.03        2961.75           1388        2169.00      9435.80
  269.05        2962.00           1392        4339.00     18902.77
  269.08        2962.25           1395        6315.00     27527.75
  269.11        2962.50           1398        8320.00     36283.58
  269.14        2962.75           1402       11019.00     48076.89
  269.16        2963.00           1405       12980.00     56650.39
  269.19        2963.25           1408       15215.00     66426.84
  269.22        2963.50           1412       17924.00     78283.88
  269.25        2963.75           1415       20120.00     87901.34
  269.27        2964.00           1418       22245.00     97212.81
  269.30        2964.25           1422       24824.00    108520.20
  269.33        2964.50           1425       26831.00    117324.60
  269.35        2964.75           1428       29070.00    127152.00
  269.38        2965.00           1431       31168.00    136365.40
  269.41        2965.25           1435       33987.00    148752.60
  269.44        2965.50           1438       36399.00    159358.10
  269.46        2965.75           1441       38339.00    167892.90
  269.49        2966.00           1445       41008.00    179641.50
  269.52        2966.25           1448       42811.00    187582.50
  269.55        2966.50           1451       44189.00    193654.00
  269.57        2966.75           1455       45206.00    198136.30
  269.60        2967.00           1458       45533.00    199577.70
  269.63        2967.25           1461       45816.00    200825.30
  269.65        2967.50           1465       45674.00    200199.30
  269.68        2967.75           1468       45295.00    198528.60
  269.71        2968.00           1471       44447.00    194791.00
  269.74        2968.25           1475       42461.00    186040.70
  269.76        2968.50           1478       40652.00    178074.00
  269.79        2968.75           1481       38441.00    168341.80
  269.82        2969.00           1485       35701.00    156288.40
  269.85        2969.25           1488       33380.00    146084.60
  269.87        2969.50           1491       31279.00    136853.00
  269.90        2969.75           1495       28442.00    124395.00
  269.93        2970.00           1498       26142.00    114301.60
  269.95        2970.25           1501       24064.00    105187.30
  269.98        2970.50           1505       21249.00     92847.88
  270.01        2970.75           1508       18799.00     82115.35
  270.04        2971.00           1511       16833.00     73507.72
  270.06        2971.25           1515       14098.00     61540.13
  270.09        2971.50           1518       11919.00     52011.17
  270.12        2971.75           1521        9841.00     42928.64
  270.15        2972.00           1525        7176.00     31287.21
  270.17        2972.25           1528        4907.00     21381.59
  270.20        2972.50           1531        3101.00     13501.18
  270.23        2972.75           1535        1346.00      5846.64
  270.26        2973.00           1538         542.00      2341.04
  270.28        2973.25           1541         176.00       745.44
  270.31        2973.50           1545          46.00       178.73
  270.34        2973.75           1548          32.00       117.70
  270.36        2974.00           1551          24.00        82.82
  270.39        2974.25           1555          28.00       100.26
  270.42        2974.50           1558          23.00        78.47
  270.45        2974.75           1561          21.00        69.75
  270.47        2975.00           1565          22.00        74.11
  270.50        2975.25           1568          15.00        43.59
  270.53        2975.50           1571          20.00        65.39
  270.56        2975.75           1575          20.00        65.39
  270.58        2976.00           1578          23.00        78.47
  270.61        2976.25           1581          25.00        87.18
  270.64        2976.50           1585          21.00        69.75
  270.66        2976.75           1588          23.00        78.47
  270.69        2977.00           1591          20.00        65.39
  270.72        2977.25           1595          15.00        43.59
  270.75        2977.50           1598          21.00        69.75
  270.77        2977.75           1601          19.00        61.03
  270.80        2978.00           1605          21.00        69.75
  270.83        2978.25           1608          20.00        65.39
  270.85        2978.50           1611          25.00        87.18
  270.88        2978.75           1615          19.00        61.03
  270.91        2979.00           1618          19.00        61.03
  270.94        2979.25           1621          15.00        43.59
  270.96        2979.50           1625          19.00        61.03
  270.99        2979.75           1628          20.00        65.39
  271.02        2980.00           1631          24.00        82.82
  271.04        2980.25           1635          18.00        56.67
  271.07        2980.50           1638          23.00        78.47
  271.10        2980.75           1641          20.00        65.39
  271.13        2981.00           1645          18.00        56.67
  271.15        2981.25           1648          20.00        65.39
  271.18        2981.50           1651          19.00        61.03
  271.21        2981.75           1655          21.00        69.75
  271.23        2982.00           1658          16.00        47.95
  271.26        2982.25           1661          20.00        65.39
  271.29        2982.50           1665          24.00        82.82
  271.32        2982.75           1668          20.00        65.39
  271.34        2983.00           1671          20.00        65.39
  271.37        2983.25           1675          18.00        56.67
  271.40        2983.50           1678          18.00        56.67
  271.42        2983.75           1681          20.00        65.39
  271.45        2984.00           1685          18.00        56.67
HS scan finished at 04:31:38
end
