************************************************************
  HS Scan of (1) Internal mercury lamp
************************************************************
Integration time is 0.2294 seconds per sample
dh040219Tamanrasset 22.79-5.529 4.974364pr865
************************************************************
Dead Time -------------------------  2.8E-08 
Number of Cycles Used -------------  4 
Starting Wavelength (Angstroms) ---  2950 
Final Wavelength (Angstoms) -------  2984 
Wavelength Increment (Angstroms) --  .25 
Filter Wheel #1 Position ---------- (1) Ground quartz diffuser (ND=2.32)
Filter Wheel #2 Position ---------- (1) Neutral Density 0.494



************************************************************
HS scan start time = 04:28:38
Dark Count =  3.9 


Time (GMT)  Wavelength (Ang)  Step Number  Raw Counts  Counts/Second

  268.99        2950.00           1233          19.00        65.82
  269.06        2950.25           1236          23.00        83.26
  269.08        2950.50           1239          20.00        70.18
  269.11        2950.75           1242          15.00        48.39
  269.14        2951.00           1246          25.00        91.98
  269.17        2951.25           1249          22.00        78.90
  269.19        2951.50           1252          15.00        48.39
  269.22        2951.75           1256          18.00        61.46
  269.25        2952.00           1259          22.00        78.90
  269.27        2952.25           1262          22.00        78.90
  269.30        2952.50           1266          21.00        74.54
  269.33        2952.75           1269          19.00        65.82
  269.36        2953.00           1272          20.00        70.18
  269.38        2953.25           1276          21.00        74.54
  269.41        2953.50           1279          24.00        87.62
  269.44        2953.75           1282          18.00        61.46
  269.46        2954.00           1286          21.00        74.54
  269.49        2954.25           1289          21.00        74.54
  269.52        2954.50           1292          13.00        39.67
  269.55        2954.75           1295          18.00        61.46
  269.57        2955.00           1299          21.00        74.54
  269.60        2955.25           1302          18.00        61.46
  269.63        2955.50           1305          21.00        74.54
  269.65        2955.75           1309          22.00        78.90
  269.68        2956.00           1312          17.00        57.11
  269.71        2956.25           1315          22.00        78.90
  269.74        2956.50           1319          18.00        61.46
  269.76        2956.75           1322          23.00        83.26
  269.79        2957.00           1325          21.00        74.54
  269.82        2957.25           1329          15.00        48.39
  269.84        2957.50           1332          19.00        65.82
  269.87        2957.75           1335          19.00        65.82
  269.90        2958.00           1339          19.00        65.82
  269.93        2958.25           1342          23.00        83.26
  269.95        2958.50           1345          19.00        65.82
  269.98        2958.75           1348          24.00        87.62
  270.01        2959.00           1352          21.00        74.54
  270.03        2959.25           1355          23.00        83.26
  270.06        2959.50           1358          15.00        48.39
  270.09        2959.75           1362          18.00        61.46
  270.12        2960.00           1365          25.00        91.98
  270.14        2960.25           1368          22.00        78.90
  270.17        2960.50           1372          25.00        91.98
  270.20        2960.75           1375          35.00       135.57
  270.22        2961.00           1378          67.00       275.07
  270.25        2961.25           1382         353.00      1521.86
  270.28        2961.50           1385         916.00      3976.47
  270.31        2961.75           1388        1885.00      8201.97
  270.33        2962.00           1392        3944.00     17183.94
  270.36        2962.25           1395        5794.00     25258.05
  270.39        2962.50           1398        7857.00     34266.08
  270.42        2962.75           1402       10434.00     45524.87
  270.44        2963.00           1405       12503.00     54569.37
  270.47        2963.25           1408       14614.00     63802.19
  270.50        2963.50           1412       17242.00     75302.90
  270.52        2963.75           1415       19482.00     85111.49
  270.55        2964.00           1418       21629.00     94517.91
  270.58        2964.25           1422       24259.00    106047.20
  270.61        2964.50           1425       26319.00    115083.00
  270.63        2964.75           1428       28704.00    125550.00
  270.66        2965.00           1431       30838.00    134920.70
  270.69        2965.25           1435       33653.00    147289.30
  270.72        2965.50           1438       35858.00    156983.60
  270.74        2965.75           1441       37850.00    165746.10
  270.77        2966.00           1445       40558.00    177665.00
  270.80        2966.25           1448       42538.00    186384.80
  270.82        2966.50           1451       44155.00    193509.00
  270.85        2966.75           1455       45111.00    197722.40
  270.88        2967.00           1458       45798.00    200750.80
  270.91        2967.25           1461       46175.00    202412.90
  270.93        2967.50           1465       46007.00    201672.20
  270.96        2967.75           1468       45573.00    199758.90
  270.99        2968.00           1471       45042.00    197418.30
  271.02        2968.25           1475       43283.00    189666.80
  271.04        2968.50           1478       41440.00    181548.70
  271.07        2968.75           1481       39226.00    171801.40
  271.10        2969.00           1485       36234.00    158637.30
  271.12        2969.25           1488       33809.00    147975.00
  271.15        2969.50           1491       31851.00    139370.60
  271.18        2969.75           1495       29093.00    127257.80
  271.21        2970.00           1498       26845.00    117390.90
  271.23        2970.25           1501       24648.00    107753.10
  271.26        2970.50           1505       21756.00     95074.47
  271.29        2970.75           1508       19704.00     86083.88
  271.32        2971.00           1511       17335.00     75710.03
  271.34        2971.25           1515       14598.00     63732.20
  271.37        2971.50           1518       12527.00     54674.31
  271.40        2971.75           1521       10441.00     45555.46
  271.43        2972.00           1525        7527.00     32824.84
  271.45        2972.25           1528        5426.00     23651.67
  271.48        2972.50           1531        3592.00     15648.09
  271.51        2972.75           1535        1560.00      6784.64
  271.53        2973.00           1538         627.00      2716.42
  271.56        2973.25           1541         203.00       867.94
  271.59        2973.50           1545          52.00       209.68
  271.62        2973.75           1548          34.00       131.21
  271.64        2974.00           1551          28.00       105.06
  271.67        2974.25           1555          29.00       109.42
  271.70        2974.50           1558          21.00        74.54
  271.72        2974.75           1561          21.00        74.54
  271.75        2975.00           1565          23.00        83.26
  271.78        2975.25           1568          19.00        65.82
  271.81        2975.50           1571          21.00        74.54
  271.83        2975.75           1575          21.00        74.54
  271.86        2976.00           1578          24.00        87.62
  271.89        2976.25           1581          17.00        57.11
  271.92        2976.50           1585          21.00        74.54
  271.94        2976.75           1588          23.00        83.26
  271.97        2977.00           1591          20.00        70.18
  272.00        2977.25           1595          20.00        70.18
  272.02        2977.50           1598          20.00        70.18
  272.05        2977.75           1601          19.00        65.82
  272.08        2978.00           1605          19.00        65.82
  272.10        2978.25           1608          19.00        65.82
  272.13        2978.50           1611          21.00        74.54
  272.16        2978.75           1615          22.00        78.90
  272.19        2979.00           1618          21.00        74.54
  272.21        2979.25           1621          18.00        61.46
  272.24        2979.50           1625          18.00        61.46
  272.27        2979.75           1628          20.00        70.18
  272.29        2980.00           1631          18.00        61.46
  272.32        2980.25           1635          21.00        74.54
  272.35        2980.50           1638          21.00        74.54
  272.38        2980.75           1641          23.00        83.26
  272.40        2981.00           1645          21.00        74.54
  272.43        2981.25           1648          22.00        78.90
  272.46        2981.50           1651          16.00        52.75
  272.48        2981.75           1655          17.00        57.11
  272.51        2982.00           1658          16.00        52.75
  272.54        2982.25           1661          17.00        57.11
  272.57        2982.50           1665          19.00        65.82
  272.59        2982.75           1668          23.00        83.26
  272.62        2983.00           1671          20.00        70.18
  272.65        2983.25           1675          14.00        44.03
  272.68        2983.50           1678          18.00        61.46
  272.70        2983.75           1681          14.00        44.03
  272.73        2984.00           1685          22.00        78.90
HS scan finished at 04:32:55
end
