************************************************************
  HS Scan of (1) Internal mercury lamp
************************************************************
Integration time is 0.2294 seconds per sample
dh030219Tamanrasset 22.79-5.529 4.974364pr865
************************************************************
Dead Time -------------------------  2.8E-08 
Number of Cycles Used -------------  4 
Starting Wavelength (Angstroms) ---  2950 
Final Wavelength (Angstoms) -------  2984 
Wavelength Increment (Angstroms) --  .25 
Filter Wheel #1 Position ---------- (1) Ground quartz diffuser (ND=2.32)
Filter Wheel #2 Position ---------- (1) Neutral Density 0.494



************************************************************
HS scan start time = 04:28:07
Dark Count =  3.7 


Time (GMT)  Wavelength (Ang)  Step Number  Raw Counts  Counts/Second

  268.48        2950.00           1233          22.00        79.77
  268.54        2950.25           1236          24.00        88.49
  268.57        2950.50           1239          19.00        66.70
  268.60        2950.75           1242          21.00        75.41
  268.63        2951.00           1246          20.00        71.06
  268.65        2951.25           1249          15.00        49.26
  268.68        2951.50           1252          18.00        62.34
  268.71        2951.75           1256          23.00        84.13
  268.74        2952.00           1259          17.00        57.98
  268.76        2952.25           1262          19.00        66.70
  268.79        2952.50           1266          20.00        71.06
  268.82        2952.75           1269          26.00        97.21
  268.84        2953.00           1272          20.00        71.06
  268.87        2953.25           1276          20.00        71.06
  268.90        2953.50           1279          20.00        71.06
  268.93        2953.75           1282          16.00        53.62
  268.95        2954.00           1286          17.00        57.98
  268.98        2954.25           1289          14.00        44.90
  269.01        2954.50           1292          22.00        79.77
  269.03        2954.75           1295          18.00        62.34
  269.06        2955.00           1299          18.00        62.34
  269.09        2955.25           1302          21.00        75.41
  269.12        2955.50           1305          18.00        62.34
  269.14        2955.75           1309          23.00        84.13
  269.17        2956.00           1312          23.00        84.13
  269.20        2956.25           1315          19.00        66.70
  269.22        2956.50           1319          21.00        75.41
  269.25        2956.75           1322          21.00        75.41
  269.28        2957.00           1325          20.00        71.06
  269.31        2957.25           1329          22.00        79.77
  269.33        2957.50           1332          17.00        57.98
  269.36        2957.75           1335          21.00        75.41
  269.39        2958.00           1339          17.00        57.98
  269.41        2958.25           1342          17.00        57.98
  269.44        2958.50           1345          19.00        66.70
  269.47        2958.75           1348          18.00        62.34
  269.50        2959.00           1352          17.00        57.98
  269.52        2959.25           1355          17.00        57.98
  269.55        2959.50           1358          19.00        66.70
  269.58        2959.75           1362          20.00        71.06
  269.60        2960.00           1365          22.00        79.77
  269.63        2960.25           1368          27.00       101.57
  269.66        2960.50           1372          26.00        97.21
  269.69        2960.75           1375          35.00       136.44
  269.71        2961.00           1378          78.00       323.89
  269.74        2961.25           1382         388.00      1675.32
  269.77        2961.50           1385         952.00      4134.31
  269.79        2961.75           1388        1889.00      8220.29
  269.82        2962.00           1392        3951.00     17215.36
  269.85        2962.25           1395        5891.00     25682.37
  269.88        2962.50           1398        7775.00     33908.81
  269.90        2962.75           1402       10578.00     46155.08
  269.93        2963.00           1405       12633.00     55138.68
  269.96        2963.25           1408       14789.00     64568.69
  269.99        2963.50           1412       17463.00     76271.26
  270.01        2963.75           1415       19411.00     84801.38
  270.04        2964.00           1418       21609.00     94431.12
  270.07        2964.25           1422       24298.00    106219.10
  270.09        2964.50           1425       26495.00    115856.10
  270.12        2964.75           1428       28699.00    125528.90
  270.15        2965.00           1431       30874.00    135079.70
  270.18        2965.25           1435       33788.00    147883.50
  270.20        2965.50           1438       36047.00    157815.70
  270.23        2965.75           1441       38126.00    166961.40
  270.26        2966.00           1445       40794.00    178705.00
  270.29        2966.25           1448       42721.00    187191.70
  270.31        2966.50           1451       44198.00    193699.40
  270.34        2966.75           1455       45506.00    199464.40
  270.37        2967.00           1458       45681.00    200235.90
  270.39        2967.25           1461       46035.00    201796.60
  270.42        2967.50           1465       45930.00    201333.60
  270.45        2967.75           1468       45576.00    199773.00
  270.48        2968.00           1471       45013.00    197291.30
  270.50        2968.25           1475       43099.00    188857.00
  270.53        2968.50           1478       41440.00    181549.60
  270.56        2968.75           1481       39283.00    172053.10
  270.59        2969.00           1485       36423.00    159469.40
  270.61        2969.25           1488       34142.00    149439.60
  270.64        2969.50           1491       31694.00    138681.80
  270.67        2969.75           1495       29024.00    126955.70
  270.70        2970.00           1498       26697.00    116742.40
  270.72        2970.25           1501       24490.00    107061.10
  270.75        2970.50           1505       21903.00     95719.59
  270.78        2970.75           1508       19607.00     85659.88
  270.80        2971.00           1511       17364.00     75837.86
  270.83        2971.25           1515       14600.00     63741.82
  270.86        2971.50           1518       12477.00     54456.56
  270.89        2971.75           1521       10405.00     45399.00
  270.91        2972.00           1525        7536.00     32865.02
  270.94        2972.25           1528        5463.00     23814.04
  270.97        2972.50           1531        3468.00     15107.96
  271.00        2972.75           1535        1516.00      6593.63
  271.02        2973.00           1538         650.00      2817.57
  271.05        2973.25           1541         227.00       973.44
  271.08        2973.50           1545          60.00       245.42
  271.10        2973.75           1548          31.00       119.01
  271.13        2974.00           1551          21.00        75.41
  271.16        2974.25           1555          30.00       114.65
  271.19        2974.50           1558          21.00        75.41
  271.21        2974.75           1561          19.00        66.70
  271.24        2975.00           1565          22.00        79.77
  271.27        2975.25           1568          24.00        88.49
  271.29        2975.50           1571          22.00        79.77
  271.32        2975.75           1575          22.00        79.77
  271.35        2976.00           1578          18.00        62.34
  271.38        2976.25           1581          24.00        88.49
  271.40        2976.50           1585          19.00        66.70
  271.43        2976.75           1588          15.00        49.26
  271.46        2977.00           1591          20.00        71.06
  271.48        2977.25           1595          19.00        66.70
  271.51        2977.50           1598          18.00        62.34
  271.54        2977.75           1601          18.00        62.34
  271.56        2978.00           1605          19.00        66.70
  271.59        2978.25           1608          23.00        84.13
  271.62        2978.50           1611          18.00        62.34
  271.65        2978.75           1615          16.00        53.62
  271.67        2979.00           1618          21.00        75.41
  271.70        2979.25           1621          23.00        84.13
  271.73        2979.50           1625          20.00        71.06
  271.75        2979.75           1628          19.00        66.70
  271.78        2980.00           1631          22.00        79.77
  271.81        2980.25           1635          19.00        66.70
  271.84        2980.50           1638          21.00        75.41
  271.86        2980.75           1641          20.00        71.06
  271.89        2981.00           1645          22.00        79.77
  271.92        2981.25           1648          22.00        79.77
  271.94        2981.50           1651          22.00        79.77
  271.97        2981.75           1655          18.00        62.34
  272.00        2982.00           1658          18.00        62.34
  272.03        2982.25           1661          19.00        66.70
  272.05        2982.50           1665          16.00        53.62
  272.08        2982.75           1668          17.00        57.98
  272.11        2983.00           1671          22.00        79.77
  272.13        2983.25           1675          19.00        66.70
  272.16        2983.50           1678          18.00        62.34
  272.19        2983.75           1681          20.00        71.06
  272.22        2984.00           1685          14.00        44.90
HS scan finished at 04:32:24
end
