************************************************************
  HS Scan of (1) Internal mercury lamp
************************************************************
Integration time is 0.2294 seconds per sample
dh020219Tamanrasset 22.79-5.529 4.974364pr865
************************************************************
Dead Time -------------------------  2.8E-08 
Number of Cycles Used -------------  4 
Starting Wavelength (Angstroms) ---  2950 
Final Wavelength (Angstoms) -------  2984 
Wavelength Increment (Angstroms) --  .25 
Filter Wheel #1 Position ---------- (1) Ground quartz diffuser (ND=2.32)
Filter Wheel #2 Position ---------- (1) Neutral Density 0.494



************************************************************
HS scan start time = 04:29:19
Dark Count =  5 


Time (GMT)  Wavelength (Ang)  Step Number  Raw Counts  Counts/Second

  269.68        2950.00           1233          21.00        69.75
  269.74        2950.25           1236          26.00        91.54
  269.77        2950.50           1239          20.00        65.39
  269.80        2950.75           1242          18.00        56.67
  269.82        2951.00           1246          21.00        69.75
  269.85        2951.25           1249          21.00        69.75
  269.88        2951.50           1252          18.00        56.67
  269.91        2951.75           1256          14.00        39.23
  269.93        2952.00           1259          16.00        47.95
  269.96        2952.25           1262          19.00        61.03
  269.99        2952.50           1266          23.00        78.47
  270.01        2952.75           1269          20.00        65.39
  270.04        2953.00           1272          20.00        65.39
  270.07        2953.25           1276          21.00        69.75
  270.10        2953.50           1279          18.00        56.67
  270.12        2953.75           1282          20.00        65.39
  270.15        2954.00           1286          20.00        65.39
  270.18        2954.25           1289          19.00        61.03
  270.21        2954.50           1292          19.00        61.03
  270.23        2954.75           1295          15.00        43.59
  270.26        2955.00           1299          21.00        69.75
  270.29        2955.25           1302          16.00        47.95
  270.31        2955.50           1305          14.00        39.23
  270.34        2955.75           1309          23.00        78.47
  270.37        2956.00           1312          17.00        52.31
  270.39        2956.25           1315          21.00        69.75
  270.42        2956.50           1319          22.00        74.11
  270.45        2956.75           1322          18.00        56.67
  270.48        2957.00           1325          16.00        47.95
  270.50        2957.25           1329          20.00        65.39
  270.53        2957.50           1332          16.00        47.95
  270.56        2957.75           1335          21.00        69.75
  270.59        2958.00           1339          20.00        65.39
  270.61        2958.25           1342          27.00        95.90
  270.64        2958.50           1345          20.00        65.39
  270.67        2958.75           1348          17.00        52.31
  270.69        2959.00           1352          20.00        65.39
  270.72        2959.25           1355          21.00        69.75
  270.75        2959.50           1358          21.00        69.75
  270.77        2959.75           1362          19.00        61.03
  270.80        2960.00           1365          21.00        69.75
  270.83        2960.25           1368          27.00        95.90
  270.86        2960.50           1372          27.00        95.90
  270.88        2960.75           1375          29.00       104.62
  270.91        2961.00           1378          53.00       209.24
  270.94        2961.25           1382         252.00      1076.75
  270.97        2961.50           1385         718.00      3108.38
  270.99        2961.75           1388        1560.00      6779.84
  271.02        2962.00           1392        3270.00     14238.46
  271.05        2962.25           1395        5138.00     22389.80
  271.07        2962.50           1398        7127.00     31073.24
  271.10        2962.75           1402        9766.00     42600.92
  271.13        2963.00           1405       11861.00     51757.61
  271.16        2963.25           1408       14045.00     61308.30
  271.18        2963.50           1412       16906.00     73827.27
  271.21        2963.75           1415       18909.00     82597.09
  271.24        2964.00           1418       21080.00     92107.34
  271.27        2964.25           1422       23909.00    104507.60
  271.29        2964.50           1425       25994.00    113652.30
  271.32        2964.75           1428       28226.00    123446.90
  271.35        2965.00           1431       30404.00    133009.70
  271.38        2965.25           1435       33037.00    144577.10
  271.40        2965.50           1438       35073.00    153526.90
  271.43        2965.75           1441       37516.00    164271.70
  271.46        2966.00           1445       40079.00    175551.30
  271.49        2966.25           1448       42157.00    184701.70
  271.51        2966.50           1451       43506.00    190644.40
  271.54        2966.75           1455       45306.00    198577.10
  271.57        2967.00           1458       45831.00    200891.50
  271.60        2967.25           1461       45903.00    201208.90
  271.62        2967.50           1465       45862.00    201028.10
  271.65        2967.75           1468       45787.00    200697.50
  271.68        2968.00           1471       44896.00    196769.90
  271.70        2968.25           1475       43311.00    189785.30
  271.73        2968.50           1478       41754.00    182926.70
  271.76        2968.75           1481       39812.00    174375.90
  271.79        2969.00           1485       36977.00    161900.50
  271.81        2969.25           1488       34638.00    151614.40
  271.84        2969.50           1491       32382.00    141698.80
  271.87        2969.75           1495       29485.00    128974.10
  271.90        2970.00           1498       27304.00    119400.30
  271.92        2970.25           1501       24940.00    109028.90
  271.95        2970.50           1505       22261.00     97282.94
  271.98        2970.75           1508       19874.00     86823.72
  272.01        2971.00           1511       17598.00     76856.59
  272.03        2971.25           1515       14896.00     65031.12
  272.06        2971.50           1518       12576.00     54883.76
  272.09        2971.75           1521       10575.00     46136.29
  272.11        2972.00           1525        7805.00     34034.17
  272.14        2972.25           1528        5702.00     24851.64
  272.17        2972.50           1531        3905.00     17008.97
  272.20        2972.75           1535        1770.00      7695.64
  272.22        2973.00           1538         800.00      3465.90
  272.25        2973.25           1541         259.00      1107.27
  272.28        2973.50           1545          58.00       231.04
  272.31        2973.75           1548          37.00       139.49
  272.33        2974.00           1551          36.00       135.14
  272.36        2974.25           1555          31.00       113.34
  272.39        2974.50           1558          20.00        65.39
  272.41        2974.75           1561          24.00        82.82
  272.44        2975.00           1565          21.00        69.75
  272.47        2975.25           1568          18.00        56.67
  272.50        2975.50           1571          24.00        82.82
  272.52        2975.75           1575          24.00        82.82
  272.55        2976.00           1578          20.00        65.39
  272.58        2976.25           1581          24.00        82.82
  272.60        2976.50           1585          17.00        52.31
  272.63        2976.75           1588          20.00        65.39
  272.66        2977.00           1591          23.00        78.47
  272.69        2977.25           1595          21.00        69.75
  272.71        2977.50           1598          20.00        65.39
  272.74        2977.75           1601          22.00        74.11
  272.77        2978.00           1605          22.00        74.11
  272.80        2978.25           1608          24.00        82.82
  272.82        2978.50           1611          17.00        52.31
  272.85        2978.75           1615          21.00        69.75
  272.88        2979.00           1618          19.00        61.03
  272.90        2979.25           1621          21.00        69.75
  272.93        2979.50           1625          19.00        61.03
  272.96        2979.75           1628          24.00        82.82
  272.98        2980.00           1631          20.00        65.39
  273.01        2980.25           1635          22.00        74.11
  273.04        2980.50           1638          18.00        56.67
  273.07        2980.75           1641          20.00        65.39
  273.09        2981.00           1645          18.00        56.67
  273.12        2981.25           1648          21.00        69.75
  273.15        2981.50           1651          22.00        74.11
  273.18        2981.75           1655          17.00        52.31
  273.20        2982.00           1658          25.00        87.18
  273.23        2982.25           1661          20.00        65.39
  273.26        2982.50           1665          20.00        65.39
  273.28        2982.75           1668          19.00        61.03
  273.31        2983.00           1671          21.00        69.75
  273.34        2983.25           1675          17.00        52.31
  273.36        2983.50           1678          20.00        65.39
  273.39        2983.75           1681          17.00        52.31
  273.42        2984.00           1685          19.00        61.03
HS scan finished at 04:33:36
end
