************************************************************
  HS Scan of (1) Internal mercury lamp
************************************************************
Integration time is 0.2294 seconds per sample
dh070219Tamanrasset 22.79-5.529 4.974364pr865
************************************************************
Dead Time -------------------------  2.8E-08 
Number of Cycles Used -------------  4 
Starting Wavelength (Angstroms) ---  2950 
Final Wavelength (Angstoms) -------  2984 
Wavelength Increment (Angstroms) --  .25 
Filter Wheel #1 Position ---------- (1) Ground quartz diffuser (ND=2.32)
Filter Wheel #2 Position ---------- (1) Neutral Density 0.494



************************************************************
HS scan start time = 04:27:23
Dark Count =  5.2 


Time (GMT)  Wavelength (Ang)  Step Number  Raw Counts  Counts/Second

  267.74        2950.00           1233          14.00        38.36
  267.80        2950.25           1236          23.00        77.59
  267.83        2950.50           1239          20.00        64.52
  267.86        2950.75           1242          17.00        51.44
  267.88        2951.00           1246          18.00        55.80
  267.91        2951.25           1249          22.00        73.23
  267.94        2951.50           1252          20.00        64.52
  267.96        2951.75           1256          20.00        64.52
  267.99        2952.00           1259          22.00        73.23
  268.02        2952.25           1262          19.00        60.16
  268.05        2952.50           1266          17.00        51.44
  268.07        2952.75           1269          15.00        42.72
  268.10        2953.00           1272          17.00        51.44
  268.13        2953.25           1276          21.00        68.88
  268.15        2953.50           1279          18.00        55.80
  268.18        2953.75           1282          19.00        60.16
  268.21        2954.00           1286          20.00        64.52
  268.24        2954.25           1289          23.00        77.59
  268.26        2954.50           1292          19.00        60.16
  268.29        2954.75           1295          19.00        60.16
  268.32        2955.00           1299          18.00        55.80
  268.34        2955.25           1302          23.00        77.59
  268.37        2955.50           1305          18.00        55.80
  268.40        2955.75           1309          18.00        55.80
  268.43        2956.00           1312          24.00        81.95
  268.45        2956.25           1315          22.00        73.23
  268.48        2956.50           1319          24.00        81.95
  268.51        2956.75           1322          22.00        73.23
  268.54        2957.00           1325          17.00        51.44
  268.56        2957.25           1329          23.00        77.59
  268.59        2957.50           1332          18.00        55.80
  268.62        2957.75           1335          22.00        73.23
  268.64        2958.00           1339          18.00        55.80
  268.67        2958.25           1342          17.00        51.44
  268.70        2958.50           1345          17.00        51.44
  268.73        2958.75           1348          15.00        42.72
  268.75        2959.00           1352          16.00        47.08
  268.78        2959.25           1355          19.00        60.16
  268.81        2959.50           1358          21.00        68.88
  268.83        2959.75           1362          25.00        86.31
  268.86        2960.00           1365          22.00        73.23
  268.89        2960.25           1368          21.00        68.88
  268.91        2960.50           1372          28.00        99.39
  268.94        2960.75           1375          34.00       125.55
  268.97        2961.00           1378          75.00       304.27
  269.00        2961.25           1382         392.00      1686.22
  269.02        2961.50           1385         974.00      4223.69
  269.05        2961.75           1388        1957.00      8510.31
  269.08        2962.00           1392        4046.00     17623.34
  269.11        2962.25           1395        5906.00     25741.30
  269.13        2962.50           1398        7926.00     34561.77
  269.16        2962.75           1402       10534.00     45956.23
  269.19        2963.00           1405       12721.00     55516.92
  269.21        2963.25           1408       14917.00     65122.13
  269.24        2963.50           1412       17548.00     76636.81
  269.27        2963.75           1415       19394.00     84720.36
  269.30        2964.00           1418       21541.00     94126.57
  269.32        2964.25           1422       24410.00    106703.70
  269.35        2964.50           1425       26582.00    116231.20
  269.38        2964.75           1428       28786.00    125904.30
  269.41        2965.00           1431       30697.00    134295.70
  269.43        2965.25           1435       33563.00    146888.00
  269.46        2965.50           1438       35962.00    157435.30
  269.49        2965.75           1441       37873.00    165841.60
  269.51        2966.00           1445       40885.00    179099.10
  269.54        2966.25           1448       42669.00    186956.10
  269.57        2966.50           1451       44079.00    193168.40
  269.60        2966.75           1455       45111.00    197716.70
  269.62        2967.00           1458       45479.00    199338.80
  269.65        2967.25           1461       45507.00    199462.20
  269.68        2967.50           1465       45623.00    199973.60
  269.71        2967.75           1468       44966.00    197077.60
  269.73        2968.00           1471       44319.00    194226.00
  269.76        2968.25           1475       42425.00    185881.30
  269.79        2968.50           1478       40540.00    177580.00
  269.82        2968.75           1481       38634.00    169190.20
  269.84        2969.00           1485       35676.00    156177.50
  269.87        2969.25           1488       33248.00    145503.60
  269.90        2969.50           1491       31002.00    135635.30
  269.92        2969.75           1495       28322.00    123867.40
  269.95        2970.00           1498       26064.00    113958.50
  269.98        2970.25           1501       23860.00    104291.90
  270.01        2970.50           1505       20909.00     91357.21
  270.03        2970.75           1508       18872.00     82434.18
  270.06        2971.00           1511       16737.00     73086.65
  270.09        2971.25           1515       14261.00     62252.28
  270.12        2971.50           1518       12104.00     52819.12
  270.14        2971.75           1521       10045.00     43819.21
  270.17        2972.00           1525        7252.00     31618.22
  270.20        2972.25           1528        5200.00     22659.53
  270.23        2972.50           1531        3431.00     14939.99
  270.25        2972.75           1535        1504.00      6534.76
  270.28        2973.00           1538         620.00      2680.24
  270.31        2973.25           1541         209.00       888.43
  270.33        2973.50           1545          52.00       204.01
  270.36        2973.75           1548          29.00       103.75
  270.39        2974.00           1551          31.00       112.47
  270.42        2974.25           1555          30.00       108.11
  270.44        2974.50           1558          24.00        81.95
  270.47        2974.75           1561          23.00        77.59
  270.50        2975.00           1565          20.00        64.52
  270.52        2975.25           1568          20.00        64.52
  270.55        2975.50           1571          18.00        55.80
  270.58        2975.75           1575          22.00        73.23
  270.61        2976.00           1578          20.00        64.52
  270.63        2976.25           1581          22.00        73.23
  270.66        2976.50           1585          24.00        81.95
  270.69        2976.75           1588          20.00        64.52
  270.71        2977.00           1591          22.00        73.23
  270.74        2977.25           1595          20.00        64.52
  270.77        2977.50           1598          20.00        64.52
  270.80        2977.75           1601          22.00        73.23
  270.82        2978.00           1605          19.00        60.16
  270.85        2978.25           1608          22.00        73.23
  270.88        2978.50           1611          23.00        77.59
  270.90        2978.75           1615          20.00        64.52
  270.93        2979.00           1618          20.00        64.52
  270.96        2979.25           1621          19.00        60.16
  270.99        2979.50           1625          21.00        68.88
  271.01        2979.75           1628          23.00        77.59
  271.04        2980.00           1631          19.00        60.16
  271.07        2980.25           1635          23.00        77.59
  271.10        2980.50           1638          19.00        60.16
  271.12        2980.75           1641          19.00        60.16
  271.15        2981.00           1645          23.00        77.59
  271.18        2981.25           1648          22.00        73.23
  271.20        2981.50           1651          20.00        64.52
  271.23        2981.75           1655          19.00        60.16
  271.26        2982.00           1658          22.00        73.23
  271.28        2982.25           1661          15.00        42.72
  271.31        2982.50           1665          17.00        51.44
  271.34        2982.75           1668          17.00        51.44
  271.37        2983.00           1671          19.00        60.16
  271.39        2983.25           1675          21.00        68.88
  271.42        2983.50           1678          14.00        38.36
  271.45        2983.75           1681          18.00        55.80
  271.47        2984.00           1685          18.00        55.80
HS scan finished at 04:31:40
end
