************************************************************
  HS Scan of (1) Internal mercury lamp
************************************************************
Integration time is 0.2294 seconds per sample
dh010219Tamanrasset 22.79-5.529 4.974364pr865
************************************************************
Dead Time -------------------------  2.8E-08 
Number of Cycles Used -------------  4 
Starting Wavelength (Angstroms) ---  2950 
Final Wavelength (Angstoms) -------  2984 
Wavelength Increment (Angstroms) --  .25 
Filter Wheel #1 Position ---------- (1) Ground quartz diffuser (ND=2.32)
Filter Wheel #2 Position ---------- (1) Neutral Density 0.494



************************************************************
HS scan start time = 04:29:17
Dark Count =  3.7 


Time (GMT)  Wavelength (Ang)  Step Number  Raw Counts  Counts/Second

  269.65        2950.00           1233          20.00        71.06
  269.71        2950.25           1236          19.00        66.70
  269.74        2950.50           1239          22.00        79.77
  269.76        2950.75           1242          17.00        57.98
  269.79        2951.00           1246          19.00        66.70
  269.82        2951.25           1249          17.00        57.98
  269.85        2951.50           1252          16.00        53.62
  269.87        2951.75           1256          24.00        88.49
  269.90        2952.00           1259          18.00        62.34
  269.93        2952.25           1262          20.00        71.06
  269.95        2952.50           1266          22.00        79.77
  269.98        2952.75           1269          18.00        62.34
  270.01        2953.00           1272          16.00        53.62
  270.04        2953.25           1276          23.00        84.13
  270.06        2953.50           1279          17.00        57.98
  270.09        2953.75           1282          21.00        75.41
  270.12        2954.00           1286          16.00        53.62
  270.14        2954.25           1289          18.00        62.34
  270.17        2954.50           1292          21.00        75.41
  270.20        2954.75           1295          20.00        71.06
  270.22        2955.00           1299          18.00        62.34
  270.25        2955.25           1302          21.00        75.41
  270.28        2955.50           1305          16.00        53.62
  270.31        2955.75           1309          18.00        62.34
  270.33        2956.00           1312          20.00        71.06
  270.36        2956.25           1315          18.00        62.34
  270.39        2956.50           1319          20.00        71.06
  270.42        2956.75           1322          16.00        53.62
  270.44        2957.00           1325          20.00        71.06
  270.47        2957.25           1329          17.00        57.98
  270.50        2957.50           1332          22.00        79.77
  270.52        2957.75           1335          19.00        66.70
  270.55        2958.00           1339          18.00        62.34
  270.58        2958.25           1342          24.00        88.49
  270.61        2958.50           1345          20.00        71.06
  270.63        2958.75           1348          17.00        57.98
  270.66        2959.00           1352          16.00        53.62
  270.69        2959.25           1355          20.00        71.06
  270.71        2959.50           1358          22.00        79.77
  270.74        2959.75           1362          20.00        71.06
  270.77        2960.00           1365          23.00        84.13
  270.80        2960.25           1368          28.00       105.93
  270.82        2960.50           1372          34.00       132.08
  270.85        2960.75           1375          27.00       101.57
  270.88        2961.00           1378          69.00       284.66
  270.90        2961.25           1382         329.00      1418.10
  270.93        2961.50           1385         845.00      3667.77
  270.96        2961.75           1388        1751.00      7618.45
  270.99        2962.00           1392        3731.00     16255.44
  271.01        2962.25           1395        5629.00     24538.65
  271.04        2962.50           1398        7684.00     33511.38
  271.07        2962.75           1402       10380.00     45289.74
  271.09        2963.00           1405       12565.00     54841.34
  271.12        2963.25           1408       14513.00     63361.23
  271.15        2963.50           1412       17355.00     75798.46
  271.18        2963.75           1415       19434.00     84902.12
  271.20        2964.00           1418       21551.00     94176.97
  271.23        2964.25           1422       24251.00    106013.00
  271.26        2964.50           1425       26351.00    115224.30
  271.29        2964.75           1428       28596.00    125076.80
  271.31        2965.00           1431       30787.00    134697.60
  271.34        2965.25           1435       33317.00    145813.40
  271.37        2965.50           1438       35707.00    156320.50
  271.40        2965.75           1441       37950.00    166186.90
  271.42        2966.00           1445       40714.00    178352.70
  271.45        2966.25           1448       42697.00    187086.00
  271.48        2966.50           1451       44179.00    193615.70
  271.50        2966.75           1455       45323.00    198657.80
  271.53        2967.00           1458       45682.00    200240.30
  271.56        2967.25           1461       46011.00    201690.70
  271.59        2967.50           1465       45893.00    201170.50
  271.61        2967.75           1468       45773.00    200641.50
  271.64        2968.00           1471       44788.00    196299.60
  271.67        2968.25           1475       43361.00    190011.30
  271.70        2968.50           1478       41310.00    180977.10
  271.72        2968.75           1481       39436.00    172726.60
  271.75        2969.00           1485       36396.00    159350.70
  271.78        2969.25           1488       34354.00    150371.60
  271.81        2969.50           1491       32134.00    140614.90
  271.83        2969.75           1495       29058.00    127105.00
  271.86        2970.00           1498       26842.00    117378.60
  271.89        2970.25           1501       24574.00    107429.50
  271.92        2970.50           1505       21852.00     95496.07
  271.94        2970.75           1508       19641.00     85808.81
  271.97        2971.00           1511       17428.00     76118.04
  272.00        2971.25           1515       14481.00     63221.24
  272.02        2971.50           1518       12265.00     53529.61
  272.05        2971.75           1521       10289.00     44892.06
  272.08        2972.00           1525        7419.00     32354.06
  272.11        2972.25           1528        5445.00     23735.47
  272.13        2972.50           1531        3532.00     15387.19
  272.16        2972.75           1535        1612.00      7012.28
  272.19        2973.00           1538         691.00      2996.33
  272.21        2973.25           1541         227.00       973.44
  272.24        2973.50           1545          59.00       241.07
  272.27        2973.75           1548          35.00       136.44
  272.30        2974.00           1551          31.00       119.01
  272.32        2974.25           1555          28.00       105.93
  272.35        2974.50           1558          23.00        84.13
  272.38        2974.75           1561          19.00        66.70
  272.40        2975.00           1565          24.00        88.49
  272.43        2975.25           1568          23.00        84.13
  272.46        2975.50           1571          20.00        71.06
  272.49        2975.75           1575          21.00        75.41
  272.51        2976.00           1578          20.00        71.06
  272.54        2976.25           1581          21.00        75.41
  272.57        2976.50           1585          20.00        71.06
  272.59        2976.75           1588          21.00        75.41
  272.62        2977.00           1591          24.00        88.49
  272.65        2977.25           1595          23.00        84.13
  272.68        2977.50           1598          22.00        79.77
  272.70        2977.75           1601          17.00        57.98
  272.73        2978.00           1605          22.00        79.77
  272.76        2978.25           1608          22.00        79.77
  272.78        2978.50           1611          19.00        66.70
  272.81        2978.75           1615          24.00        88.49
  272.84        2979.00           1618          20.00        71.06
  272.87        2979.25           1621          18.00        62.34
  272.89        2979.50           1625          22.00        79.77
  272.92        2979.75           1628          19.00        66.70
  272.95        2980.00           1631          19.00        66.70
  272.97        2980.25           1635          18.00        62.34
  273.00        2980.50           1638          25.00        92.85
  273.03        2980.75           1641          21.00        75.41
  273.06        2981.00           1645          19.00        66.70
  273.08        2981.25           1648          19.00        66.70
  273.11        2981.50           1651          21.00        75.41
  273.14        2981.75           1655          16.00        53.62
  273.16        2982.00           1658          22.00        79.77
  273.19        2982.25           1661          20.00        71.06
  273.22        2982.50           1665          19.00        66.70
  273.25        2982.75           1668          18.00        62.34
  273.27        2983.00           1671          17.00        57.98
  273.30        2983.25           1675          20.00        71.06
  273.33        2983.50           1678          20.00        71.06
  273.35        2983.75           1681          19.00        66.70
  273.38        2984.00           1685          19.00        66.70
HS scan finished at 04:33:34
end
