************************************************************
  HS Scan of (1) Internal mercury lamp
************************************************************
Integration time is 0.2294 seconds per sample
dh310119Tamanrasset 22.79-5.529 4.974364pr865
************************************************************
Dead Time -------------------------  2.8E-08 
Number of Cycles Used -------------  4 
Starting Wavelength (Angstroms) ---  2950 
Final Wavelength (Angstoms) -------  2984 
Wavelength Increment (Angstroms) --  .25 
Filter Wheel #1 Position ---------- (1) Ground quartz diffuser (ND=2.32)
Filter Wheel #2 Position ---------- (1) Neutral Density 0.494



************************************************************
HS scan start time = 04:29:49
Dark Count =  5.8 


Time (GMT)  Wavelength (Ang)  Step Number  Raw Counts  Counts/Second

  270.17        2950.00           1233          25.00        83.70
  270.23        2950.25           1236          20.00        61.90
  270.26        2950.50           1239          22.00        70.62
  270.29        2950.75           1242          16.00        44.46
  270.31        2951.00           1246          21.00        66.26
  270.34        2951.25           1249          20.00        61.90
  270.37        2951.50           1252          21.00        66.26
  270.40        2951.75           1256          17.00        48.82
  270.42        2952.00           1259          17.00        48.82
  270.45        2952.25           1262          18.00        53.18
  270.48        2952.50           1266          19.00        57.54
  270.50        2952.75           1269          21.00        66.26
  270.53        2953.00           1272          19.00        57.54
  270.56        2953.25           1276          17.00        48.82
  270.59        2953.50           1279          21.00        66.26
  270.61        2953.75           1282          19.00        57.54
  270.64        2954.00           1286          17.00        48.82
  270.67        2954.25           1289          19.00        57.54
  270.69        2954.50           1292          20.00        61.90
  270.72        2954.75           1295          22.00        70.62
  270.75        2955.00           1299          18.00        53.18
  270.78        2955.25           1302          26.00        88.06
  270.80        2955.50           1305          21.00        66.26
  270.83        2955.75           1309          19.00        57.54
  270.86        2956.00           1312          21.00        66.26
  270.89        2956.25           1315          20.00        61.90
  270.91        2956.50           1319          19.00        57.54
  270.94        2956.75           1322          17.00        48.82
  270.97        2957.00           1325          20.00        61.90
  270.99        2957.25           1329          20.00        61.90
  271.02        2957.50           1332          19.00        57.54
  271.05        2957.75           1335          18.00        53.18
  271.08        2958.00           1339          18.00        53.18
  271.10        2958.25           1342          16.00        44.46
  271.13        2958.50           1345          22.00        70.62
  271.16        2958.75           1348          23.00        74.98
  271.18        2959.00           1352          21.00        66.26
  271.21        2959.25           1355          19.00        57.54
  271.24        2959.50           1358          18.00        53.18
  271.27        2959.75           1362          20.00        61.90
  271.29        2960.00           1365          24.00        79.34
  271.32        2960.25           1368          31.00       109.85
  271.35        2960.50           1372          29.00       101.13
  271.37        2960.75           1375          37.00       136.01
  271.40        2961.00           1378          70.00       279.86
  271.43        2961.25           1382         350.00      1500.50
  271.46        2961.50           1385         905.00      3920.22
  271.48        2961.75           1388        1925.00      8368.13
  271.51        2962.00           1392        4013.00     17476.73
  271.54        2962.25           1395        5865.00     25559.70
  271.56        2962.50           1398        7993.00     34851.78
  271.59        2962.75           1402       10660.00     46504.29
  271.62        2963.00           1405       12646.00     55186.35
  271.65        2963.25           1408       14780.00     64520.12
  271.67        2963.50           1412       17500.00     76424.05
  271.70        2963.75           1415       19544.00     85374.72
  271.73        2964.00           1418       21679.00     94728.69
  271.76        2964.25           1422       24369.00    106521.20
  271.78        2964.50           1425       26574.00    116193.50
  271.81        2964.75           1428       28687.00    125467.00
  271.84        2965.00           1431       30630.00    133998.80
  271.86        2965.25           1435       33587.00    146990.80
  271.89        2965.50           1438       35894.00    157133.60
  271.92        2965.75           1441       37949.00    166173.30
  271.95        2966.00           1445       40791.00    178682.50
  271.97        2966.25           1448       42447.00    185975.50
  272.00        2966.50           1451       43790.00    191892.30
  272.03        2966.75           1455       44834.00    196493.10
  272.06        2967.00           1458       45529.00    199556.60
  272.08        2967.25           1461       45728.00    200433.80
  272.11        2967.50           1465       45665.00    200156.10
  272.14        2967.75           1468       45338.00    198714.60
  272.17        2968.00           1471       44643.00    195651.30
  272.19        2968.25           1475       42681.00    187006.30
  272.22        2968.50           1478       40711.00    178330.30
  272.25        2968.75           1481       38866.00    170208.60
  272.28        2969.00           1485       35954.00    157397.50
  272.30        2969.25           1488       33632.00    147188.60
  272.33        2969.50           1491       31581.00    138176.10
  272.36        2969.75           1495       28713.00    125581.20
  272.38        2970.00           1498       26488.00    115816.10
  272.41        2970.25           1501       24266.00    106069.60
  272.44        2970.50           1505       21308.00     93102.91
  272.47        2970.75           1508       19487.00     85125.06
  272.49        2971.00           1511       17315.00     75614.15
  272.52        2971.25           1515       14443.00     63045.81
  272.55        2971.50           1518       12412.00     54163.17
  272.58        2971.75           1521       10269.00     44795.47
  272.60        2972.00           1525        7412.00     32314.32
  272.63        2972.25           1528        5325.00     23202.52
  272.66        2972.50           1531        3459.00     15059.53
  272.68        2972.75           1535        1520.00      6601.92
  272.71        2973.00           1538         640.00      2764.82
  272.74        2973.25           1541         216.00       916.33
  272.77        2973.50           1545          57.00       223.19
  272.79        2973.75           1548          40.00       149.09
  272.82        2974.00           1551          30.00       105.49
  272.85        2974.25           1555          22.00        70.62
  272.87        2974.50           1558          29.00       101.13
  272.90        2974.75           1561          24.00        79.34
  272.93        2975.00           1565          18.00        53.18
  272.96        2975.25           1568          21.00        66.26
  272.98        2975.50           1571          21.00        66.26
  273.01        2975.75           1575          20.00        61.90
  273.04        2976.00           1578          19.00        57.54
  273.06        2976.25           1581          22.00        70.62
  273.09        2976.50           1585          21.00        66.26
  273.12        2976.75           1588          23.00        74.98
  273.15        2977.00           1591          19.00        57.54
  273.17        2977.25           1595          20.00        61.90
  273.20        2977.50           1598          19.00        57.54
  273.23        2977.75           1601          17.00        48.82
  273.25        2978.00           1605          17.00        48.82
  273.28        2978.25           1608          18.00        53.18
  273.31        2978.50           1611          17.00        48.82
  273.34        2978.75           1615          22.00        70.62
  273.36        2979.00           1618          19.00        57.54
  273.39        2979.25           1621          22.00        70.62
  273.42        2979.50           1625          16.00        44.46
  273.45        2979.75           1628          19.00        57.54
  273.47        2980.00           1631          22.00        70.62
  273.50        2980.25           1635          25.00        83.70
  273.53        2980.50           1638          19.00        57.54
  273.55        2980.75           1641          20.00        61.90
  273.58        2981.00           1645          16.00        44.46
  273.61        2981.25           1648          15.00        40.10
  273.64        2981.50           1651          17.00        48.82
  273.66        2981.75           1655          19.00        57.54
  273.69        2982.00           1658          18.00        53.18
  273.72        2982.25           1661          18.00        53.18
  273.74        2982.50           1665          19.00        57.54
  273.77        2982.75           1668          23.00        74.98
  273.80        2983.00           1671          24.00        79.34
  273.83        2983.25           1675          14.00        35.75
  273.85        2983.50           1678          20.00        61.90
  273.88        2983.75           1681          18.00        53.18
  273.91        2984.00           1685          19.00        57.54
HS scan finished at 04:34:06
end
