************************************************************
  HS Scan of (1) Internal mercury lamp
************************************************************
Integration time is 0.2294 seconds per sample
dh090219Tamanrasset 22.79-5.529 4.974364pr865
************************************************************
Dead Time -------------------------  2.8E-08 
Number of Cycles Used -------------  4 
Starting Wavelength (Angstroms) ---  2950 
Final Wavelength (Angstoms) -------  2984 
Wavelength Increment (Angstroms) --  .25 
Filter Wheel #1 Position ---------- (1) Ground quartz diffuser (ND=2.32)
Filter Wheel #2 Position ---------- (1) Neutral Density 0.494



************************************************************
HS scan start time = 04:26:24
Dark Count =  4.8 


Time (GMT)  Wavelength (Ang)  Step Number  Raw Counts  Counts/Second

  266.75        2950.00           1233          18.00        57.54
  266.81        2950.25           1236          17.00        53.18
  266.84        2950.50           1239          18.00        57.54
  266.87        2950.75           1242          16.00        48.82
  266.90        2951.00           1246          19.00        61.90
  266.92        2951.25           1249          17.00        53.18
  266.95        2951.50           1252          20.00        66.26
  266.98        2951.75           1256          21.00        70.62
  267.01        2952.00           1259          15.00        44.46
  267.03        2952.25           1262          19.00        61.90
  267.06        2952.50           1266          19.00        61.90
  267.09        2952.75           1269          19.00        61.90
  267.11        2953.00           1272          24.00        83.70
  267.14        2953.25           1276          17.00        53.18
  267.17        2953.50           1279          21.00        70.62
  267.20        2953.75           1282          19.00        61.90
  267.22        2954.00           1286          18.00        57.54
  267.25        2954.25           1289          19.00        61.90
  267.28        2954.50           1292          17.00        53.18
  267.30        2954.75           1295          25.00        88.06
  267.33        2955.00           1299          19.00        61.90
  267.36        2955.25           1302          20.00        66.26
  267.39        2955.50           1305          20.00        66.26
  267.41        2955.75           1309          18.00        57.54
  267.44        2956.00           1312          19.00        61.90
  267.47        2956.25           1315          16.00        48.82
  267.49        2956.50           1319          18.00        57.54
  267.52        2956.75           1322          20.00        66.26
  267.55        2957.00           1325          17.00        53.18
  267.58        2957.25           1329          21.00        70.62
  267.60        2957.50           1332          20.00        66.26
  267.63        2957.75           1335          19.00        61.90
  267.66        2958.00           1339          24.00        83.70
  267.68        2958.25           1342          20.00        66.26
  267.71        2958.50           1345          17.00        53.18
  267.74        2958.75           1348          20.00        66.26
  267.77        2959.00           1352          19.00        61.90
  267.79        2959.25           1355          20.00        66.26
  267.82        2959.50           1358          21.00        70.62
  267.85        2959.75           1362          23.00        79.34
  267.87        2960.00           1365          22.00        74.98
  267.90        2960.25           1368          27.00        96.77
  267.93        2960.50           1372          26.00        92.42
  267.96        2960.75           1375          29.00       105.49
  267.98        2961.00           1378          65.00       262.43
  268.01        2961.25           1382         313.00      1343.56
  268.04        2961.50           1385         852.00      3693.49
  268.07        2961.75           1388        1740.00      7565.68
  268.09        2962.00           1392        3701.00     16119.74
  268.12        2962.25           1395        5333.00     23241.80
  268.15        2962.50           1398        7485.00     32637.49
  268.17        2962.75           1402       10198.00     44489.57
  268.20        2963.00           1405       12364.00     53957.66
  268.23        2963.25           1408       14270.00     62293.39
  268.26        2963.50           1412       17008.00     74274.63
  268.28        2963.75           1415       19157.00     83684.09
  268.31        2964.00           1418       21193.00     92603.35
  268.34        2964.25           1422       23822.00    104127.00
  268.37        2964.50           1425       25936.00    113398.70
  268.39        2964.75           1428       28100.00    122894.70
  268.42        2965.00           1431       30306.00    132580.20
  268.45        2965.25           1435       32851.00    143760.60
  268.48        2965.50           1438       35075.00    153536.60
  268.50        2965.75           1441       37193.00    162851.60
  268.53        2966.00           1445       39924.00    174869.80
  268.56        2966.25           1448       41653.00    182482.80
  268.58        2966.50           1451       43164.00    189138.50
  268.61        2966.75           1455       44475.00    194915.30
  268.64        2967.00           1458       45063.00    197506.90
  268.67        2967.25           1461       45408.00    199027.60
  268.69        2967.50           1465       45175.00    198000.50
  268.72        2967.75           1468       44843.00    196537.20
  268.75        2968.00           1471       44012.00    192874.90
  268.78        2968.25           1475       42647.00    186860.90
  268.80        2968.50           1478       40990.00    179563.10
  268.83        2968.75           1481       38869.00    170226.20
  268.86        2969.00           1485       36255.00    158725.70
  268.88        2969.25           1488       33995.00    148788.60
  268.91        2969.50           1491       31543.00    138013.60
  268.94        2969.75           1495       28804.00    125985.10
  268.97        2970.00           1498       26551.00    116096.90
  268.99        2970.25           1501       24391.00    106622.10
  269.02        2970.50           1505       21656.00     94632.28
  269.05        2970.75           1508       19337.00     84472.44
  269.08        2971.00           1511       17349.00     75767.36
  269.10        2971.25           1515       14594.00     63710.77
  269.13        2971.50           1518       12372.00     53992.64
  269.16        2971.75           1521       10296.00     44917.84
  269.18        2972.00           1525        7629.00     33266.37
  269.21        2972.25           1528        5562.00     24241.39
  269.24        2972.50           1531        3663.00     15953.94
  269.27        2972.75           1535        1698.00      7382.52
  269.29        2973.00           1538         758.00      3283.65
  269.32        2973.25           1541         238.00      1016.59
  269.35        2973.50           1545          62.00       249.35
  269.38        2973.75           1548          30.00       109.85
  269.40        2974.00           1551          30.00       109.85
  269.43        2974.25           1555          28.00       101.13
  269.46        2974.50           1558          30.00       109.85
  269.49        2974.75           1561          27.00        96.77
  269.51        2975.00           1565          20.00        66.26
  269.54        2975.25           1568          21.00        70.62
  269.57        2975.50           1571          20.00        66.26
  269.59        2975.75           1575          23.00        79.34
  269.62        2976.00           1578          20.00        66.26
  269.65        2976.25           1581          18.00        57.54
  269.68        2976.50           1585          19.00        61.90
  269.70        2976.75           1588          16.00        48.82
  269.73        2977.00           1591          22.00        74.98
  269.76        2977.25           1595          21.00        70.62
  269.78        2977.50           1598          19.00        61.90
  269.81        2977.75           1601          19.00        61.90
  269.84        2978.00           1605          20.00        66.26
  269.87        2978.25           1608          23.00        79.34
  269.89        2978.50           1611          20.00        66.26
  269.92        2978.75           1615          21.00        70.62
  269.95        2979.00           1618          22.00        74.98
  269.97        2979.25           1621          27.00        96.77
  270.00        2979.50           1625          21.00        70.62
  270.03        2979.75           1628          20.00        66.26
  270.06        2980.00           1631          23.00        79.34
  270.08        2980.25           1635          20.00        66.26
  270.11        2980.50           1638          22.00        74.98
  270.14        2980.75           1641          20.00        66.26
  270.16        2981.00           1645          22.00        74.98
  270.19        2981.25           1648          19.00        61.90
  270.22        2981.50           1651          16.00        48.82
  270.25        2981.75           1655          20.00        66.26
  270.27        2982.00           1658          17.00        53.18
  270.30        2982.25           1661          19.00        61.90
  270.33        2982.50           1665          21.00        70.62
  270.36        2982.75           1668          16.00        48.82
  270.38        2983.00           1671          18.00        57.54
  270.41        2983.25           1675          19.00        61.90
  270.44        2983.50           1678          18.00        57.54
  270.46        2983.75           1681          16.00        48.82
  270.49        2984.00           1685          22.00        74.98
HS scan finished at 04:30:41
end
