************************************************************
  HS Scan of (1) Internal mercury lamp
************************************************************
Integration time is 0.2294 seconds per sample
dh180219Tamanrasset 22.79-5.529 4.974364pr865
************************************************************
Dead Time -------------------------  2.8E-08 
Number of Cycles Used -------------  4 
Starting Wavelength (Angstroms) ---  2950 
Final Wavelength (Angstoms) -------  2984 
Wavelength Increment (Angstroms) --  .25 
Filter Wheel #1 Position ---------- (1) Ground quartz diffuser (ND=2.32)
Filter Wheel #2 Position ---------- (1) Neutral Density 0.494



************************************************************
HS scan start time = 04:20:32
Dark Count =  2.4 


Time (GMT)  Wavelength (Ang)  Step Number  Raw Counts  Counts/Second

  260.88        2950.00           1233          19.00        72.36
  260.95        2950.25           1236          20.00        76.72
  260.97        2950.50           1239          19.00        72.36
  261.00        2950.75           1242          14.00        50.57
  261.03        2951.00           1246          20.00        76.72
  261.06        2951.25           1249          20.00        76.72
  261.08        2951.50           1252          22.00        85.44
  261.11        2951.75           1256          17.00        63.64
  261.14        2952.00           1259          23.00        89.80
  261.16        2952.25           1262          17.00        63.64
  261.19        2952.50           1266          18.00        68.00
  261.22        2952.75           1269          21.00        81.08
  261.25        2953.00           1272          20.00        76.72
  261.27        2953.25           1276          17.00        63.64
  261.30        2953.50           1279          19.00        72.36
  261.33        2953.75           1282          20.00        76.72
  261.36        2954.00           1286          21.00        81.08
  261.38        2954.25           1289          16.00        59.29
  261.41        2954.50           1292          15.00        54.93
  261.44        2954.75           1295          18.00        68.00
  261.47        2955.00           1299          17.00        63.64
  261.49        2955.25           1302          27.00       107.24
  261.52        2955.50           1305          20.00        76.72
  261.55        2955.75           1309          15.00        54.93
  261.57        2956.00           1312          20.00        76.72
  261.60        2956.25           1315          18.00        68.00
  261.63        2956.50           1319          18.00        68.00
  261.66        2956.75           1322          23.00        89.80
  261.68        2957.00           1325          18.00        68.00
  261.71        2957.25           1329          21.00        81.08
  261.74        2957.50           1332          20.00        76.72
  261.76        2957.75           1335          18.00        68.00
  261.79        2958.00           1339          19.00        72.36
  261.82        2958.25           1342          25.00        98.52
  261.85        2958.50           1345          19.00        72.36
  261.87        2958.75           1348          24.00        94.16
  261.90        2959.00           1352          18.00        68.00
  261.93        2959.25           1355          20.00        76.72
  261.95        2959.50           1358          19.00        72.36
  261.98        2959.75           1362          24.00        94.16
  262.01        2960.00           1365          19.00        72.36
  262.04        2960.25           1368          22.00        85.44
  262.06        2960.50           1372          32.00       129.03
  262.09        2960.75           1375          30.00       120.31
  262.12        2961.00           1378          60.00       251.09
  262.14        2961.25           1382         325.00      1406.33
  262.17        2961.50           1385         832.00      3616.76
  262.20        2961.75           1388        1788.00      7785.48
  262.23        2962.00           1392        3679.00     16034.23
  262.25        2962.25           1395        5513.00     24037.97
  262.28        2962.50           1398        7572.00     33027.92
  262.31        2962.75           1402       10206.00     44535.01
  262.33        2963.00           1405       12249.00     53465.33
  262.36        2963.25           1408       14398.00     62863.83
  262.39        2963.50           1412       16960.00     74075.02
  262.42        2963.75           1415       19000.00     83007.00
  262.44        2964.00           1418       21029.00     91895.26
  262.47        2964.25           1422       23594.00    103137.90
  262.50        2964.50           1425       25763.00    112650.30
  262.53        2964.75           1428       27872.00    121904.50
  262.55        2965.00           1431       30053.00    131479.70
  262.58        2965.25           1435       32936.00    144144.70
  262.61        2965.50           1438       35036.00    153375.70
  262.64        2965.75           1441       37128.00    162576.20
  262.66        2966.00           1445       39853.00    174567.90
  262.69        2966.25           1448       41728.00    182823.70
  262.72        2966.50           1451       43095.00    188845.10
  262.74        2966.75           1455       44575.00    195366.60
  262.77        2967.00           1458       44981.00    197156.00
  262.80        2967.25           1461       45180.00    198033.10
  262.83        2967.50           1465       44866.00    196649.10
  262.85        2967.75           1468       44785.00    196292.10
  262.88        2968.00           1471       44173.00    193595.00
  262.91        2968.25           1475       42536.00    186382.50
  262.94        2968.50           1478       40765.00    178583.00
  262.96        2968.75           1481       38903.00    170386.40
  262.99        2969.00           1485       36032.00    157755.50
  263.02        2969.25           1488       33777.00    147840.90
  263.04        2969.50           1491       31561.00    138103.20
  263.07        2969.75           1495       28683.00    125464.40
  263.10        2970.00           1498       26501.00    115888.10
  263.13        2970.25           1501       24306.00    106259.90
  263.15        2970.50           1505       21418.00     93599.83
  263.18        2970.75           1508       19434.00     84907.81
  263.21        2971.00           1511       17319.00     75646.55
  263.24        2971.25           1515       14539.00     63480.66
  263.26        2971.50           1518       12550.00     54781.44
  263.29        2971.75           1521       10582.00     46178.24
  263.32        2972.00           1525        7673.00     33469.02
  263.35        2972.25           1528        5748.00     25063.79
  263.37        2972.50           1531        3777.00     16461.81
  263.40        2972.75           1535        1780.00      7750.59
  263.43        2973.00           1538         755.00      3281.03
  263.46        2973.25           1541         243.00      1048.85
  263.48        2973.50           1545          54.00       224.94
  263.51        2973.75           1548          34.00       137.75
  263.54        2974.00           1551          28.00       111.60
  263.56        2974.25           1555          27.00       107.24
  263.59        2974.50           1558          20.00        76.72
  263.62        2974.75           1561          24.00        94.16
  263.65        2975.00           1565          22.00        85.44
  263.67        2975.25           1568          25.00        98.52
  263.70        2975.50           1571          20.00        76.72
  263.73        2975.75           1575          23.00        89.80
  263.75        2976.00           1578          22.00        85.44
  263.78        2976.25           1581          21.00        81.08
  263.81        2976.50           1585          21.00        81.08
  263.84        2976.75           1588          21.00        81.08
  263.86        2977.00           1591          18.00        68.00
  263.89        2977.25           1595          22.00        85.44
  263.92        2977.50           1598          21.00        81.08
  263.94        2977.75           1601          19.00        72.36
  263.97        2978.00           1605          21.00        81.08
  264.00        2978.25           1608          17.00        63.64
  264.03        2978.50           1611          23.00        89.80
  264.05        2978.75           1615          20.00        76.72
  264.08        2979.00           1618          22.00        85.44
  264.11        2979.25           1621          20.00        76.72
  264.13        2979.50           1625          20.00        76.72
  264.16        2979.75           1628          21.00        81.08
  264.19        2980.00           1631          18.00        68.00
  264.22        2980.25           1635          19.00        72.36
  264.24        2980.50           1638          15.00        54.93
  264.27        2980.75           1641          21.00        81.08
  264.30        2981.00           1645          22.00        85.44
  264.32        2981.25           1648          19.00        72.36
  264.35        2981.50           1651          20.00        76.72
  264.38        2981.75           1655          20.00        76.72
  264.41        2982.00           1658          18.00        68.00
  264.43        2982.25           1661          15.00        54.93
  264.46        2982.50           1665          19.00        72.36
  264.49        2982.75           1668          21.00        81.08
  264.51        2983.00           1671          19.00        72.36
  264.54        2983.25           1675          16.00        59.29
  264.57        2983.50           1678          17.00        63.64
  264.60        2983.75           1681          21.00        81.08
  264.62        2984.00           1685          17.00        63.64
HS scan finished at 04:24:49
end
