************************************************************
  HS Scan of (1) Internal mercury lamp
************************************************************
Integration time is 0.2294 seconds per sample
dh160219Tamanrasset 22.79-5.529 4.974364pr865
************************************************************
Dead Time -------------------------  2.8E-08 
Number of Cycles Used -------------  4 
Starting Wavelength (Angstroms) ---  2950 
Final Wavelength (Angstoms) -------  2984 
Wavelength Increment (Angstroms) --  .25 
Filter Wheel #1 Position ---------- (1) Ground quartz diffuser (ND=2.32)
Filter Wheel #2 Position ---------- (1) Neutral Density 0.494



************************************************************
HS scan start time = 04:22:05
Dark Count =  4.6 


Time (GMT)  Wavelength (Ang)  Step Number  Raw Counts  Counts/Second

  262.44        2950.00           1233          14.00        40.98
  262.50        2950.25           1236          15.00        45.34
  262.53        2950.50           1239          16.00        49.69
  262.56        2950.75           1242          17.00        54.05
  262.58        2951.00           1246          20.00        67.13
  262.61        2951.25           1249          19.00        62.77
  262.64        2951.50           1252          18.00        58.41
  262.67        2951.75           1256          20.00        67.13
  262.69        2952.00           1259          19.00        62.77
  262.72        2952.25           1262          23.00        80.21
  262.75        2952.50           1266          15.00        45.34
  262.77        2952.75           1269          20.00        67.13
  262.80        2953.00           1272          16.00        49.69
  262.83        2953.25           1276          22.00        75.85
  262.86        2953.50           1279          18.00        58.41
  262.88        2953.75           1282          18.00        58.41
  262.91        2954.00           1286          16.00        49.69
  262.94        2954.25           1289          23.00        80.21
  262.96        2954.50           1292          19.00        62.77
  262.99        2954.75           1295          20.00        67.13
  263.02        2955.00           1299          21.00        71.49
  263.05        2955.25           1302          18.00        58.41
  263.07        2955.50           1305          17.00        54.05
  263.10        2955.75           1309          15.00        45.34
  263.13        2956.00           1312          22.00        75.85
  263.15        2956.25           1315          20.00        67.13
  263.18        2956.50           1319          20.00        67.13
  263.21        2956.75           1322          22.00        75.85
  263.24        2957.00           1325          19.00        62.77
  263.26        2957.25           1329          24.00        84.57
  263.29        2957.50           1332          20.00        67.13
  263.32        2957.75           1335          20.00        67.13
  263.34        2958.00           1339          16.00        49.69
  263.37        2958.25           1342          18.00        58.41
  263.40        2958.50           1345          19.00        62.77
  263.42        2958.75           1348          14.00        40.98
  263.45        2959.00           1352          17.00        54.05
  263.48        2959.25           1355          19.00        62.77
  263.51        2959.50           1358          19.00        62.77
  263.53        2959.75           1362          21.00        71.49
  263.56        2960.00           1365          20.00        67.13
  263.59        2960.25           1368          28.00       102.01
  263.62        2960.50           1372          30.00       110.72
  263.64        2960.75           1375          34.00       128.16
  263.67        2961.00           1378          70.00       285.09
  263.70        2961.25           1382         397.00      1710.63
  263.72        2961.50           1385         899.00      3899.29
  263.75        2961.75           1388        1916.00      8334.12
  263.78        2962.00           1392        4048.00     17634.69
  263.81        2962.25           1395        5816.00     25351.03
  263.84        2962.50           1398        7902.00     34459.56
  263.86        2962.75           1402       10633.00     46391.53
  263.89        2963.00           1405       12706.00     55453.96
  263.92        2963.25           1408       14804.00     64630.37
  263.94        2963.50           1412       17321.00     75645.68
  263.97        2963.75           1415       19475.00     85077.76
  264.00        2964.00           1418       21469.00     93813.68
  264.03        2964.25           1422       24337.00    106386.20
  264.05        2964.50           1425       26242.00    114742.10
  264.08        2964.75           1428       28510.00    124695.30
  264.11        2965.00           1431       30533.00    133578.00
  264.14        2965.25           1435       33286.00    145673.20
  264.16        2965.50           1438       35350.00    154746.60
  264.19        2965.75           1441       37432.00    163903.90
  264.22        2966.00           1445       40143.00    175834.80
  264.24        2966.25           1448       41909.00    183611.10
  264.27        2966.50           1451       43532.00    190760.70
  264.30        2966.75           1455       44658.00    195722.70
  264.33        2967.00           1458       45155.00    197913.30
  264.35        2967.25           1461       45275.00    198442.20
  264.38        2967.50           1465       45299.00    198548.00
  264.41        2967.75           1468       44840.00    196524.80
  264.44        2968.00           1471       44007.00    192853.80
  264.46        2968.25           1475       42323.00    185434.60
  264.49        2968.50           1478       40640.00    178022.90
  264.52        2968.75           1481       38532.00    168744.00
  264.55        2969.00           1485       35981.00    157521.50
  264.57        2969.25           1488       33437.00    146336.80
  264.60        2969.50           1491       31366.00    137236.90
  264.63        2969.75           1495       28488.00    124598.70
  264.66        2970.00           1498       26435.00    115588.90
  264.68        2970.25           1501       24201.00    105789.80
  264.71        2970.50           1505       21271.00     92946.03
  264.74        2970.75           1508       19140.00     83610.52
  264.76        2971.00           1511       16911.00     73850.90
  264.79        2971.25           1515       14168.00     61848.08
  264.82        2971.50           1518       12325.00     53788.01
  264.85        2971.75           1521       10213.00     44555.99
  264.87        2972.00           1525        7545.00     32900.39
  264.90        2972.25           1528        5444.00     23727.18
  264.93        2972.50           1531        3526.00     15357.08
  264.96        2972.75           1535        1697.00      7379.03
  264.98        2973.00           1538         686.00      2970.60
  265.01        2973.25           1541         229.00       978.23
  265.04        2973.50           1545          54.00       215.35
  265.06        2973.75           1548          31.00       115.08
  265.09        2974.00           1551          30.00       110.72
  265.12        2974.25           1555          25.00        88.93
  265.15        2974.50           1558          25.00        88.93
  265.17        2974.75           1561          18.00        58.41
  265.20        2975.00           1565          23.00        80.21
  265.23        2975.25           1568          25.00        88.93
  265.25        2975.50           1571          19.00        62.77
  265.28        2975.75           1575          17.00        54.05
  265.31        2976.00           1578          18.00        58.41
  265.34        2976.25           1581          20.00        67.13
  265.36        2976.50           1585          23.00        80.21
  265.39        2976.75           1588          16.00        49.69
  265.42        2977.00           1591          21.00        71.49
  265.45        2977.25           1595          22.00        75.85
  265.47        2977.50           1598          17.00        54.05
  265.50        2977.75           1601          22.00        75.85
  265.53        2978.00           1605          18.00        58.41
  265.55        2978.25           1608          16.00        49.69
  265.58        2978.50           1611          19.00        62.77
  265.61        2978.75           1615          17.00        54.05
  265.64        2979.00           1618          20.00        67.13
  265.66        2979.25           1621          23.00        80.21
  265.69        2979.50           1625          19.00        62.77
  265.72        2979.75           1628          21.00        71.49
  265.74        2980.00           1631          20.00        67.13
  265.77        2980.25           1635          23.00        80.21
  265.80        2980.50           1638          21.00        71.49
  265.83        2980.75           1641          18.00        58.41
  265.85        2981.00           1645          17.00        54.05
  265.88        2981.25           1648          18.00        58.41
  265.91        2981.50           1651          18.00        58.41
  265.93        2981.75           1655          14.00        40.98
  265.96        2982.00           1658          17.00        54.05
  265.99        2982.25           1661          22.00        75.85
  266.01        2982.50           1665          16.00        49.69
  266.04        2982.75           1668          20.00        67.13
  266.07        2983.00           1671          17.00        54.05
  266.10        2983.25           1675          17.00        54.05
  266.12        2983.50           1678          23.00        80.21
  266.15        2983.75           1681          24.00        84.57
  266.18        2984.00           1685          18.00        58.41
HS scan finished at 04:26:22
end
