************************************************************
  HS Scan of (1) Internal mercury lamp
************************************************************
Integration time is 0.2294 seconds per sample
dh120219Tamanrasset 22.79-5.529 4.974364pr865
************************************************************
Dead Time -------------------------  2.8E-08 
Number of Cycles Used -------------  4 
Starting Wavelength (Angstroms) ---  2950 
Final Wavelength (Angstoms) -------  2984 
Wavelength Increment (Angstroms) --  .25 
Filter Wheel #1 Position ---------- (1) Ground quartz diffuser (ND=2.32)
Filter Wheel #2 Position ---------- (1) Neutral Density 0.494



************************************************************
HS scan start time = 04:23:57
Dark Count =  6.1 


Time (GMT)  Wavelength (Ang)  Step Number  Raw Counts  Counts/Second

  264.30        2950.00           1233          21.00        64.95
  264.36        2950.25           1236          21.00        64.95
  264.39        2950.50           1239          18.00        51.87
  264.42        2950.75           1242          19.00        56.23
  264.45        2951.00           1246          18.00        51.87
  264.47        2951.25           1249          19.00        56.23
  264.50        2951.50           1252          24.00        78.03
  264.53        2951.75           1256          17.00        47.52
  264.55        2952.00           1259          21.00        64.95
  264.58        2952.25           1262          18.00        51.87
  264.61        2952.50           1266          17.00        47.52
  264.64        2952.75           1269          19.00        56.23
  264.66        2953.00           1272          21.00        64.95
  264.69        2953.25           1276          20.00        60.59
  264.72        2953.50           1279          18.00        51.87
  264.74        2953.75           1282          20.00        60.59
  264.77        2954.00           1286          19.00        56.23
  264.80        2954.25           1289          26.00        86.75
  264.83        2954.50           1292          18.00        51.87
  264.85        2954.75           1295          19.00        56.23
  264.88        2955.00           1299          23.00        73.67
  264.91        2955.25           1302          22.00        69.31
  264.93        2955.50           1305          17.00        47.52
  264.96        2955.75           1309          21.00        64.95
  264.99        2956.00           1312          20.00        60.59
  265.02        2956.25           1315          20.00        60.59
  265.04        2956.50           1319          19.00        56.23
  265.07        2956.75           1322          22.00        69.31
  265.10        2957.00           1325          22.00        69.31
  265.12        2957.25           1329          15.00        38.80
  265.15        2957.50           1332          20.00        60.59
  265.18        2957.75           1335          19.00        56.23
  265.21        2958.00           1339          21.00        64.95
  265.23        2958.25           1342          19.00        56.23
  265.26        2958.50           1345          20.00        60.59
  265.29        2958.75           1348          16.00        43.16
  265.31        2959.00           1352          21.00        64.95
  265.34        2959.25           1355          21.00        64.95
  265.37        2959.50           1358          18.00        51.87
  265.40        2959.75           1362          20.00        60.59
  265.42        2960.00           1365          25.00        82.39
  265.45        2960.25           1368          27.00        91.11
  265.48        2960.50           1372          30.00       104.19
  265.50        2960.75           1375          30.00       104.19
  265.53        2961.00           1378          89.00       361.38
  265.56        2961.25           1382         416.00      1786.92
  265.59        2961.50           1385        1039.00      4503.18
  265.61        2961.75           1388        2107.00      9160.59
  265.64        2962.00           1392        4127.00     17972.86
  265.67        2962.25           1395        6152.00     26811.32
  265.70        2962.50           1398        8209.00     35793.92
  265.72        2962.75           1402       10981.00     47905.99
  265.75        2963.00           1405       13167.00     57463.36
  265.78        2963.25           1408       15253.00     66588.30
  265.81        2963.50           1412       17879.00     78082.04
  265.83        2963.75           1415       19821.00     86586.74
  265.86        2964.00           1418       21996.00     96116.65
  265.89        2964.25           1422       24688.00    107918.90
  265.91        2964.50           1425       26681.00    116661.60
  265.94        2964.75           1428       28890.00    126356.90
  265.97        2965.00           1431       31136.00    136220.00
  266.00        2965.25           1435       33918.00    148444.40
  266.02        2965.50           1438       36152.00    158266.90
  266.05        2965.75           1441       38301.00    167720.90
  266.08        2966.00           1445       41308.00    180957.70
  266.11        2966.25           1448       42829.00    187656.90
  266.13        2966.50           1451       44233.00    193843.10
  266.16        2966.75           1455       45081.00    197580.40
  266.19        2967.00           1458       45434.00    199136.50
  266.22        2967.25           1461       45522.00    199524.40
  266.24        2967.50           1465       45303.00    198559.00
  266.27        2967.75           1468       44837.00    196505.00
  266.30        2968.00           1471       43890.00    192331.60
  266.32        2968.25           1475       42055.00    184247.50
  266.35        2968.50           1478       40059.00    175458.40
  266.38        2968.75           1481       38048.00    166607.60
  266.41        2969.00           1485       34884.00    152691.10
  266.43        2969.25           1488       32857.00    143781.30
  266.46        2969.50           1491       30681.00    134221.40
  266.49        2969.75           1495       27836.00    121730.30
  266.52        2970.00           1498       25634.00    112068.20
  266.54        2970.25           1501       23412.00    102323.70
  266.57        2970.50           1505       20525.00     89670.81
  266.60        2970.75           1508       18477.00     80700.46
  266.63        2971.00           1511       16389.00     71559.55
  266.65        2971.25           1515       13621.00     59448.92
  266.68        2971.50           1518       11438.00     49903.60
  266.71        2971.75           1521        9452.00     41224.11
  266.73        2972.00           1525        6907.00     30107.76
  266.76        2972.25           1528        4796.00     20892.34
  266.79        2972.50           1531        3025.00     13164.84
  266.82        2972.75           1535        1195.00      5183.40
  266.84        2973.00           1538         482.00      2074.66
  266.87        2973.25           1541         143.00       596.78
  266.90        2973.50           1545          41.00       152.14
  266.93        2973.75           1548          31.00       108.54
  266.95        2974.00           1551          33.00       117.26
  266.98        2974.25           1555          31.00       108.54
  267.01        2974.50           1558          22.00        69.31
  267.03        2974.75           1561          22.00        69.31
  267.06        2975.00           1565          22.00        69.31
  267.09        2975.25           1568          19.00        56.23
  267.12        2975.50           1571          18.00        51.87
  267.14        2975.75           1575          21.00        64.95
  267.17        2976.00           1578          23.00        73.67
  267.20        2976.25           1581          24.00        78.03
  267.22        2976.50           1585          17.00        47.52
  267.25        2976.75           1588          25.00        82.39
  267.28        2977.00           1591          23.00        73.67
  267.30        2977.25           1595          15.00        38.80
  267.33        2977.50           1598          22.00        69.31
  267.36        2977.75           1601          20.00        60.59
  267.39        2978.00           1605          23.00        73.67
  267.41        2978.25           1608          18.00        51.87
  267.44        2978.50           1611          21.00        64.95
  267.47        2978.75           1615          24.00        78.03
  267.49        2979.00           1618          22.00        69.31
  267.52        2979.25           1621          24.00        78.03
  267.55        2979.50           1625          21.00        64.95
  267.58        2979.75           1628          23.00        73.67
  267.60        2980.00           1631          17.00        47.52
  267.63        2980.25           1635          19.00        56.23
  267.66        2980.50           1638          19.00        56.23
  267.69        2980.75           1641          17.00        47.52
  267.71        2981.00           1645          19.00        56.23
  267.74        2981.25           1648          17.00        47.52
  267.77        2981.50           1651          17.00        47.52
  267.79        2981.75           1655          23.00        73.67
  267.82        2982.00           1658          14.00        34.44
  267.85        2982.25           1661          19.00        56.23
  267.88        2982.50           1665          16.00        43.16
  267.90        2982.75           1668          17.00        47.52
  267.93        2983.00           1671          19.00        56.23
  267.96        2983.25           1675          20.00        60.59
  267.98        2983.50           1678          22.00        69.31
  268.01        2983.75           1681          22.00        69.31
  268.04        2984.00           1685          19.00        56.23
HS scan finished at 04:28:13
end
