************************************************************
  HS Scan of (1) Internal mercury lamp
************************************************************
Integration time is 0.2294 seconds per sample
dh150219Tamanrasset 22.79-5.529 4.974364pr865
************************************************************
Dead Time -------------------------  2.8E-08 
Number of Cycles Used -------------  4 
Starting Wavelength (Angstroms) ---  2950 
Final Wavelength (Angstoms) -------  2984 
Wavelength Increment (Angstroms) --  .25 
Filter Wheel #1 Position ---------- (1) Ground quartz diffuser (ND=2.32)
Filter Wheel #2 Position ---------- (1) Neutral Density 0.494



************************************************************
HS scan start time = 04:22:00
Dark Count =  3.9 


Time (GMT)  Wavelength (Ang)  Step Number  Raw Counts  Counts/Second

  262.35        2950.00           1233          17.00        57.11
  262.41        2950.25           1236          21.00        74.54
  262.44        2950.50           1239          17.00        57.11
  262.47        2950.75           1242          16.00        52.75
  262.50        2951.00           1246          22.00        78.90
  262.52        2951.25           1249          17.00        57.11
  262.55        2951.50           1252          16.00        52.75
  262.58        2951.75           1256          20.00        70.18
  262.61        2952.00           1259          20.00        70.18
  262.63        2952.25           1262          18.00        61.46
  262.66        2952.50           1266          20.00        70.18
  262.69        2952.75           1269          19.00        65.82
  262.71        2953.00           1272          17.00        57.11
  262.74        2953.25           1276          20.00        70.18
  262.77        2953.50           1279          18.00        61.46
  262.80        2953.75           1282          20.00        70.18
  262.82        2954.00           1286          20.00        70.18
  262.85        2954.25           1289          16.00        52.75
  262.88        2954.50           1292          21.00        74.54
  262.90        2954.75           1295          22.00        78.90
  262.93        2955.00           1299          17.00        57.11
  262.96        2955.25           1302          21.00        74.54
  262.99        2955.50           1305          21.00        74.54
  263.01        2955.75           1309          15.00        48.39
  263.04        2956.00           1312          20.00        70.18
  263.07        2956.25           1315          20.00        70.18
  263.09        2956.50           1319          15.00        48.39
  263.12        2956.75           1322          19.00        65.82
  263.15        2957.00           1325          21.00        74.54
  263.18        2957.25           1329          23.00        83.26
  263.20        2957.50           1332          16.00        52.75
  263.23        2957.75           1335          21.00        74.54
  263.26        2958.00           1339          21.00        74.54
  263.28        2958.25           1342          21.00        74.54
  263.31        2958.50           1345          19.00        65.82
  263.34        2958.75           1348          22.00        78.90
  263.37        2959.00           1352          23.00        83.26
  263.39        2959.25           1355          21.00        74.54
  263.42        2959.50           1358          23.00        83.26
  263.45        2959.75           1362          22.00        78.90
  263.47        2960.00           1365          24.00        87.62
  263.50        2960.25           1368          24.00        87.62
  263.53        2960.50           1372          27.00       100.70
  263.56        2960.75           1375          28.00       105.06
  263.58        2961.00           1378          64.00       261.99
  263.61        2961.25           1382         287.00      1234.13
  263.64        2961.50           1385         809.00      3509.94
  263.66        2961.75           1388        1713.00      7451.86
  263.69        2962.00           1392        3776.00     16450.91
  263.72        2962.25           1395        5577.00     24310.79
  263.75        2962.50           1398        7536.00     32864.14
  263.77        2962.75           1402       10061.00     43894.81
  263.80        2963.00           1405       12164.00     53087.13
  263.83        2963.25           1408       14315.00     62494.18
  263.86        2963.50           1412       16862.00     73639.48
  263.88        2963.75           1415       19194.00     83850.08
  263.91        2964.00           1418       21247.00     92843.92
  263.94        2964.25           1422       23987.00    104854.50
  263.97        2964.50           1425       26181.00    114477.50
  263.99        2964.75           1428       28333.00    123921.40
  264.02        2965.00           1431       30428.00    133119.90
  264.05        2965.25           1435       33121.00    144951.10
  264.07        2965.50           1438       35409.00    155009.20
  264.10        2965.75           1441       37661.00    164914.50
  264.13        2966.00           1445       40511.00    177458.10
  264.16        2966.25           1448       42126.00    184570.00
  264.18        2966.50           1451       43493.00    190592.00
  264.21        2966.75           1455       44862.00    196624.90
  264.24        2967.00           1458       45342.00    198740.60
  264.27        2967.25           1461       45364.00    198837.60
  264.29        2967.50           1465       45356.00    198802.40
  264.32        2967.75           1468       44781.00    196267.90
  264.35        2968.00           1471       44164.00    193548.70
  264.37        2968.25           1475       42514.00    186279.00
  264.40        2968.50           1478       40603.00    177863.10
  264.43        2968.75           1481       38591.00    169006.70
  264.46        2969.00           1485       35903.00    157181.50
  264.48        2969.25           1488       33286.00    145676.30
  264.51        2969.50           1491       31214.00    136572.30
  264.54        2969.75           1495       28519.00    124737.90
  264.57        2970.00           1498       26425.00    115548.00
  264.59        2970.25           1501       24191.00    105749.00
  264.62        2970.50           1505       21405.00     93536.29
  264.65        2970.75           1508       19378.00     84655.97
  264.68        2971.00           1511       17258.00     75372.94
  264.70        2971.25           1515       14286.00     62367.32
  264.73        2971.50           1518       12172.00     53122.12
  264.76        2971.75           1521       10207.00     44532.83
  264.79        2972.00           1525        7411.00     32318.25
  264.81        2972.25           1528        5417.00     23612.38
  264.84        2972.50           1531        3578.00     15587.01
  264.87        2972.75           1535        1609.00      6998.32
  264.89        2973.00           1538         674.00      2921.34
  264.92        2973.25           1541         246.00      1055.39
  264.95        2973.50           1545          53.00       214.04
  264.98        2973.75           1548          32.00       122.49
  265.00        2974.00           1551          25.00        91.98
  265.03        2974.25           1555          27.00       100.70
  265.06        2974.50           1558          23.00        83.26
  265.08        2974.75           1561          21.00        74.54
  265.11        2975.00           1565          20.00        70.18
  265.14        2975.25           1568          18.00        61.46
  265.17        2975.50           1571          19.00        65.82
  265.19        2975.75           1575          23.00        83.26
  265.22        2976.00           1578          21.00        74.54
  265.25        2976.25           1581          19.00        65.82
  265.27        2976.50           1585          21.00        74.54
  265.30        2976.75           1588          23.00        83.26
  265.33        2977.00           1591          23.00        83.26
  265.36        2977.25           1595          21.00        74.54
  265.38        2977.50           1598          18.00        61.46
  265.41        2977.75           1601          22.00        78.90
  265.44        2978.00           1605          17.00        57.11
  265.46        2978.25           1608          25.00        91.98
  265.49        2978.50           1611          19.00        65.82
  265.52        2978.75           1615          22.00        78.90
  265.55        2979.00           1618          17.00        57.11
  265.57        2979.25           1621          22.00        78.90
  265.60        2979.50           1625          20.00        70.18
  265.63        2979.75           1628          21.00        74.54
  265.65        2980.00           1631          24.00        87.62
  265.68        2980.25           1635          17.00        57.11
  265.71        2980.50           1638          23.00        83.26
  265.74        2980.75           1641          19.00        65.82
  265.76        2981.00           1645          22.00        78.90
  265.79        2981.25           1648          18.00        61.46
  265.82        2981.50           1651          16.00        52.75
  265.84        2981.75           1655          19.00        65.82
  265.87        2982.00           1658          21.00        74.54
  265.90        2982.25           1661          17.00        57.11
  265.93        2982.50           1665          18.00        61.46
  265.95        2982.75           1668          21.00        74.54
  265.98        2983.00           1671          23.00        83.26
  266.01        2983.25           1675          18.00        61.46
  266.03        2983.50           1678          19.00        65.82
  266.06        2983.75           1681          20.00        70.18
  266.09        2984.00           1685          19.00        65.82
HS scan finished at 04:26:16
end
