************************************************************
  HS Scan of (1) Internal mercury lamp
************************************************************
Integration time is 0.2294 seconds per sample
dh110219Tamanrasset 22.79-5.529 4.974364pr865
************************************************************
Dead Time -------------------------  2.8E-08 
Number of Cycles Used -------------  4 
Starting Wavelength (Angstroms) ---  2950 
Final Wavelength (Angstoms) -------  2984 
Wavelength Increment (Angstroms) --  .25 
Filter Wheel #1 Position ---------- (1) Ground quartz diffuser (ND=2.32)
Filter Wheel #2 Position ---------- (1) Neutral Density 0.494



************************************************************
HS scan start time = 04:24:24
Dark Count =  2 


Time (GMT)  Wavelength (Ang)  Step Number  Raw Counts  Counts/Second

  264.76        2950.00           1233          21.00        82.82
  264.82        2950.25           1236          19.00        74.11
  264.85        2950.50           1239          20.00        78.47
  264.88        2950.75           1242          23.00        91.54
  264.90        2951.00           1246          16.00        61.03
  264.93        2951.25           1249          19.00        74.11
  264.96        2951.50           1252          19.00        74.11
  264.98        2951.75           1256          19.00        74.11
  265.01        2952.00           1259          24.00        95.90
  265.04        2952.25           1262          21.00        82.82
  265.07        2952.50           1266          22.00        87.18
  265.09        2952.75           1269          20.00        78.47
  265.12        2953.00           1272          19.00        74.11
  265.15        2953.25           1276          20.00        78.47
  265.17        2953.50           1279          18.00        69.75
  265.20        2953.75           1282          19.00        74.11
  265.23        2954.00           1286          20.00        78.47
  265.26        2954.25           1289          24.00        95.90
  265.28        2954.50           1292          20.00        78.47
  265.31        2954.75           1295          17.00        65.39
  265.34        2955.00           1299          23.00        91.54
  265.36        2955.25           1302          15.00        56.67
  265.39        2955.50           1305          21.00        82.82
  265.42        2955.75           1309          18.00        69.75
  265.45        2956.00           1312          20.00        78.47
  265.47        2956.25           1315          19.00        74.11
  265.50        2956.50           1319          17.00        65.39
  265.53        2956.75           1322          16.00        61.03
  265.56        2957.00           1325          17.00        65.39
  265.58        2957.25           1329          20.00        78.47
  265.61        2957.50           1332          24.00        95.90
  265.64        2957.75           1335          19.00        74.11
  265.66        2958.00           1339          21.00        82.82
  265.69        2958.25           1342          18.00        69.75
  265.72        2958.50           1345          23.00        91.54
  265.74        2958.75           1348          18.00        69.75
  265.77        2959.00           1352          21.00        82.82
  265.80        2959.25           1355          21.00        82.82
  265.83        2959.50           1358          23.00        91.54
  265.85        2959.75           1362          21.00        82.82
  265.88        2960.00           1365          26.00       104.62
  265.91        2960.25           1368          24.00        95.90
  265.93        2960.50           1372          30.00       122.06
  265.96        2960.75           1375          29.00       117.70
  265.99        2961.00           1378          47.00       196.16
  266.02        2961.25           1382         260.00      1124.71
  266.04        2961.50           1385         717.00      3117.10
  266.07        2961.75           1388        1528.00      6653.38
  266.10        2962.00           1392        3306.00     14408.60
  266.12        2962.25           1395        5109.00     22276.32
  266.15        2962.50           1398        7130.00     31099.43
  266.18        2962.75           1402        9796.00     42745.12
  266.21        2963.00           1405       11774.00     51390.37
  266.23        2963.25           1408       13687.00     59755.52
  266.26        2963.50           1412       16652.00     72728.60
  266.29        2963.75           1415       18588.00     81204.49
  266.32        2964.00           1418       20517.00     89653.72
  266.34        2964.25           1422       23408.00    102324.10
  266.37        2964.50           1425       25506.00    111524.70
  266.40        2964.75           1428       27406.00    119861.10
  266.42        2965.00           1431       29779.00    130278.20
  266.45        2965.25           1435       32560.00    142494.20
  266.48        2965.50           1438       34539.00    151192.30
  266.51        2965.75           1441       36530.00    159947.50
  266.53        2966.00           1445       39357.00    172386.30
  266.56        2966.25           1448       41660.00    182525.90
  266.59        2966.50           1451       42929.00    188115.50
  266.62        2966.75           1455       44436.00    194755.80
  266.64        2967.00           1458       45202.00    198131.90
  266.67        2967.25           1461       45198.00    198114.30
  266.70        2967.50           1465       45335.00    198718.10
  266.73        2967.75           1468       45064.00    197523.60
  266.75        2968.00           1471       44525.00    195148.00
  266.78        2968.25           1475       42875.00    187877.60
  266.81        2968.50           1478       41270.00    180808.40
  266.84        2968.75           1481       39555.00    173257.90
  266.86        2969.00           1485       36475.00    159705.60
  266.89        2969.25           1488       34343.00    150330.70
  266.92        2969.50           1491       32123.00    140574.00
  266.94        2969.75           1495       29096.00    127279.30
  266.97        2970.00           1498       27168.00    118816.60
  267.00        2970.25           1501       24652.00    107779.00
  267.03        2970.50           1505       21790.00     95231.80
  267.05        2970.75           1508       19699.00     86070.31
  267.08        2971.00           1511       17513.00     76497.60
  267.11        2971.25           1515       14744.00     64379.24
  267.14        2971.50           1518       12624.00     55106.76
  267.16        2971.75           1521       10478.00     45725.46
  267.19        2972.00           1525        7662.00     33422.72
  267.22        2972.25           1528        5765.00     25139.75
  267.25        2972.50           1531        3776.00     16459.20
  267.27        2972.75           1535        1715.00      7468.87
  267.30        2973.00           1538         713.00      3099.66
  267.33        2973.25           1541         215.00       928.53
  267.35        2973.50           1545          50.00       209.24
  267.38        2973.75           1548          32.00       130.78
  267.41        2974.00           1551          38.00       156.93
  267.44        2974.25           1555          28.00       113.34
  267.46        2974.50           1558          21.00        82.82
  267.49        2974.75           1561          20.00        78.47
  267.52        2975.00           1565          21.00        82.82
  267.54        2975.25           1568          25.00       100.26
  267.57        2975.50           1571          18.00        69.75
  267.60        2975.75           1575          24.00        95.90
  267.63        2976.00           1578          20.00        78.47
  267.65        2976.25           1581          24.00        95.90
  267.68        2976.50           1585          24.00        95.90
  267.71        2976.75           1588          16.00        61.03
  267.73        2977.00           1591          16.00        61.03
  267.76        2977.25           1595          20.00        78.47
  267.79        2977.50           1598          21.00        82.82
  267.82        2977.75           1601          17.00        65.39
  267.84        2978.00           1605          19.00        74.11
  267.87        2978.25           1608          21.00        82.82
  267.90        2978.50           1611          24.00        95.90
  267.92        2978.75           1615          15.00        56.67
  267.95        2979.00           1618          15.00        56.67
  267.98        2979.25           1621          26.00       104.62
  268.01        2979.50           1625          20.00        78.47
  268.03        2979.75           1628          21.00        82.82
  268.06        2980.00           1631          23.00        91.54
  268.09        2980.25           1635          20.00        78.47
  268.11        2980.50           1638          19.00        74.11
  268.14        2980.75           1641          18.00        69.75
  268.17        2981.00           1645          18.00        69.75
  268.20        2981.25           1648          15.00        56.67
  268.22        2981.50           1651          22.00        87.18
  268.25        2981.75           1655          13.00        47.95
  268.28        2982.00           1658          19.00        74.11
  268.30        2982.25           1661          17.00        65.39
  268.33        2982.50           1665          19.00        74.11
  268.36        2982.75           1668          16.00        61.03
  268.39        2983.00           1671          17.00        65.39
  268.41        2983.25           1675          17.00        65.39
  268.44        2983.50           1678          22.00        87.18
  268.47        2983.75           1681          17.00        65.39
  268.50        2984.00           1685          20.00        78.47
HS scan finished at 04:28:41
end
