************************************************************
  HS Scan of (1) Internal mercury lamp
************************************************************
Integration time is 0.2294 seconds per sample
dh170219Tamanrasset 22.79-5.529 4.974364pr865
************************************************************
Dead Time -------------------------  2.8E-08 
Number of Cycles Used -------------  4 
Starting Wavelength (Angstroms) ---  2950 
Final Wavelength (Angstoms) -------  2984 
Wavelength Increment (Angstroms) --  .25 
Filter Wheel #1 Position ---------- (1) Ground quartz diffuser (ND=2.32)
Filter Wheel #2 Position ---------- (1) Neutral Density 0.494



************************************************************
HS scan start time = 04:20:44
Dark Count =  3.8 


Time (GMT)  Wavelength (Ang)  Step Number  Raw Counts  Counts/Second

  261.10        2950.00           1233          19.00        66.26
  261.16        2950.25           1236          21.00        74.98
  261.19        2950.50           1239          19.00        66.26
  261.22        2950.75           1242          23.00        83.70
  261.24        2951.00           1246          21.00        74.98
  261.27        2951.25           1249          19.00        66.26
  261.30        2951.50           1252          20.00        70.62
  261.32        2951.75           1256          19.00        66.26
  261.35        2952.00           1259          19.00        66.26
  261.38        2952.25           1262          18.00        61.90
  261.41        2952.50           1266          17.00        57.54
  261.43        2952.75           1269          18.00        61.90
  261.46        2953.00           1272          21.00        74.98
  261.49        2953.25           1276          20.00        70.62
  261.51        2953.50           1279          17.00        57.54
  261.54        2953.75           1282          17.00        57.54
  261.57        2954.00           1286          19.00        66.26
  261.60        2954.25           1289          15.00        48.82
  261.62        2954.50           1292          20.00        70.62
  261.65        2954.75           1295          21.00        74.98
  261.68        2955.00           1299          21.00        74.98
  261.70        2955.25           1302          20.00        70.62
  261.73        2955.50           1305          20.00        70.62
  261.76        2955.75           1309          24.00        88.06
  261.79        2956.00           1312          16.00        53.18
  261.81        2956.25           1315          15.00        48.82
  261.84        2956.50           1319          16.00        53.18
  261.87        2956.75           1322          23.00        83.70
  261.89        2957.00           1325          23.00        83.70
  261.92        2957.25           1329          24.00        88.06
  261.95        2957.50           1332          21.00        74.98
  261.98        2957.75           1335          18.00        61.90
  262.00        2958.00           1339          20.00        70.62
  262.03        2958.25           1342          18.00        61.90
  262.06        2958.50           1345          20.00        70.62
  262.08        2958.75           1348          21.00        74.98
  262.11        2959.00           1352          21.00        74.98
  262.14        2959.25           1355          25.00        92.42
  262.17        2959.50           1358          24.00        88.06
  262.19        2959.75           1362          25.00        92.42
  262.22        2960.00           1365          21.00        74.98
  262.25        2960.25           1368          22.00        79.34
  262.27        2960.50           1372          30.00       114.21
  262.30        2960.75           1375          31.00       118.57
  262.33        2961.00           1378          81.00       336.53
  262.36        2961.25           1382         416.00      1796.95
  262.38        2961.50           1385        1008.00      4378.04
  262.41        2961.75           1388        2084.00      9070.31
  262.44        2962.00           1392        4110.00     17908.72
  262.46        2962.25           1395        6096.00     26576.88
  262.49        2962.50           1398        8158.00     35581.21
  262.52        2962.75           1402       10647.00     46456.21
  262.55        2963.00           1405       12769.00     55732.94
  262.57        2963.25           1408       15002.00     65500.15
  262.60        2963.50           1412       17607.00     76901.24
  262.63        2963.75           1415       19706.00     86093.08
  262.66        2964.00           1418       21880.00     95618.34
  262.68        2964.25           1422       24521.00    107196.60
  262.71        2964.50           1425       26530.00    116009.20
  262.74        2964.75           1428       28683.00    125458.30
  262.76        2965.00           1431       30721.00    134407.20
  262.79        2965.25           1435       33558.00    146872.20
  262.82        2965.50           1438       35846.00    156931.30
  262.85        2965.75           1441       37667.00    164941.40
  262.87        2966.00           1445       40660.00    178114.50
  262.90        2966.25           1448       42286.00    185275.20
  262.93        2966.50           1451       43399.00    190178.30
  262.96        2966.75           1455       44591.00    195430.90
  262.98        2967.00           1458       45082.00    197595.00
  263.01        2967.25           1461       45010.00    197277.70
  263.04        2967.50           1465       44834.00    196501.90
  263.07        2967.75           1468       44447.00    194796.30
  263.09        2968.00           1471       43848.00    192156.70
  263.12        2968.25           1475       41944.00    183768.80
  263.15        2968.50           1478       40159.00    175908.80
  263.17        2968.75           1481       38398.00    168157.80
  263.20        2969.00           1485       35283.00    154455.60
  263.23        2969.25           1488       32975.00    144309.90
  263.26        2969.50           1491       30786.00    134692.70
  263.28        2969.75           1495       28089.00    122850.80
  263.31        2970.00           1498       25967.00    113539.10
  263.34        2970.25           1501       23777.00    103934.10
  263.37        2970.50           1505       21017.00     91836.54
  263.39        2970.75           1508       18843.00     82313.29
  263.42        2971.00           1511       16586.00     72431.85
  263.45        2971.25           1515       13973.00     60998.61
  263.47        2971.50           1518       11851.00     51719.14
  263.50        2971.75           1521        9892.00     43156.74
  263.53        2972.00           1525        7181.00     31314.28
  263.56        2972.25           1528        5089.00     22181.17
  263.58        2972.50           1531        3253.00     14169.53
  263.61        2972.75           1535        1382.00      6008.86
  263.64        2973.00           1538         558.00      2416.03
  263.67        2973.25           1541         197.00       842.22
  263.69        2973.50           1545          50.00       201.40
  263.72        2973.75           1548          36.00       140.37
  263.75        2974.00           1551          24.00        88.06
  263.77        2974.25           1555          26.00        96.77
  263.80        2974.50           1558          25.00        92.42
  263.83        2974.75           1561          25.00        92.42
  263.86        2975.00           1565          19.00        66.26
  263.88        2975.25           1568          21.00        74.98
  263.91        2975.50           1571          19.00        66.26
  263.94        2975.75           1575          22.00        79.34
  263.97        2976.00           1578          18.00        61.90
  263.99        2976.25           1581          21.00        74.98
  264.02        2976.50           1585          22.00        79.34
  264.05        2976.75           1588          20.00        70.62
  264.07        2977.00           1591          23.00        83.70
  264.10        2977.25           1595          16.00        53.18
  264.13        2977.50           1598          21.00        74.98
  264.16        2977.75           1601          21.00        74.98
  264.18        2978.00           1605          14.00        44.46
  264.21        2978.25           1608          20.00        70.62
  264.24        2978.50           1611          19.00        66.26
  264.26        2978.75           1615          21.00        74.98
  264.29        2979.00           1618          16.00        53.18
  264.32        2979.25           1621          17.00        57.54
  264.35        2979.50           1625          19.00        66.26
  264.37        2979.75           1628          20.00        70.62
  264.40        2980.00           1631          18.00        61.90
  264.43        2980.25           1635          24.00        88.06
  264.45        2980.50           1638          21.00        74.98
  264.48        2980.75           1641          17.00        57.54
  264.51        2981.00           1645          21.00        74.98
  264.54        2981.25           1648          17.00        57.54
  264.56        2981.50           1651          18.00        61.90
  264.59        2981.75           1655          18.00        61.90
  264.62        2982.00           1658          18.00        61.90
  264.64        2982.25           1661          18.00        61.90
  264.67        2982.50           1665          23.00        83.70
  264.70        2982.75           1668          17.00        57.54
  264.73        2983.00           1671          20.00        70.62
  264.75        2983.25           1675          19.00        66.26
  264.78        2983.50           1678          23.00        83.70
  264.81        2983.75           1681          15.00        48.82
  264.83        2984.00           1685          20.00        70.62
HS scan finished at 04:25:01
end
