************************************************************
  HS Scan of (1) Internal mercury lamp
************************************************************
Integration time is 0.2294 seconds per sample
dh140219Tamanrasset 22.79-5.529 4.974364pr865
************************************************************
Dead Time -------------------------  2.8E-08 
Number of Cycles Used -------------  4 
Starting Wavelength (Angstroms) ---  2950 
Final Wavelength (Angstoms) -------  2984 
Wavelength Increment (Angstroms) --  .25 
Filter Wheel #1 Position ---------- (1) Ground quartz diffuser (ND=2.32)
Filter Wheel #2 Position ---------- (1) Neutral Density 0.494



************************************************************
HS scan start time = 04:22:45
Dark Count =  3.9 


Time (GMT)  Wavelength (Ang)  Step Number  Raw Counts  Counts/Second

  263.10        2950.00           1233          23.00        83.26
  263.16        2950.25           1236          19.00        65.82
  263.19        2950.50           1239          22.00        78.90
  263.22        2950.75           1242          18.00        61.46
  263.24        2951.00           1246          20.00        70.18
  263.27        2951.25           1249          20.00        70.18
  263.30        2951.50           1252          16.00        52.75
  263.33        2951.75           1256          18.00        61.46
  263.35        2952.00           1259          15.00        48.39
  263.38        2952.25           1262          19.00        65.82
  263.41        2952.50           1266          23.00        83.26
  263.43        2952.75           1269          19.00        65.82
  263.46        2953.00           1272          20.00        70.18
  263.49        2953.25           1276          20.00        70.18
  263.52        2953.50           1279          20.00        70.18
  263.54        2953.75           1282          19.00        65.82
  263.57        2954.00           1286          14.00        44.03
  263.60        2954.25           1289          17.00        57.11
  263.63        2954.50           1292          22.00        78.90
  263.65        2954.75           1295          16.00        52.75
  263.68        2955.00           1299          22.00        78.90
  263.71        2955.25           1302          17.00        57.11
  263.73        2955.50           1305          20.00        70.18
  263.76        2955.75           1309          18.00        61.46
  263.79        2956.00           1312          20.00        70.18
  263.82        2956.25           1315          17.00        57.11
  263.84        2956.50           1319          19.00        65.82
  263.87        2956.75           1322          17.00        57.11
  263.90        2957.00           1325          17.00        57.11
  263.92        2957.25           1329          19.00        65.82
  263.95        2957.50           1332          21.00        74.54
  263.98        2957.75           1335          20.00        70.18
  264.01        2958.00           1339          15.00        48.39
  264.03        2958.25           1342          18.00        61.46
  264.06        2958.50           1345          18.00        61.46
  264.09        2958.75           1348          19.00        65.82
  264.11        2959.00           1352          22.00        78.90
  264.14        2959.25           1355          14.00        44.03
  264.17        2959.50           1358          19.00        65.82
  264.20        2959.75           1362          24.00        87.62
  264.22        2960.00           1365          24.00        87.62
  264.25        2960.25           1368          27.00       100.70
  264.28        2960.50           1372          31.00       118.13
  264.30        2960.75           1375          37.00       144.29
  264.33        2961.00           1378          68.00       279.43
  264.36        2961.25           1382         339.00      1460.83
  264.39        2961.50           1385         885.00      3841.30
  264.41        2961.75           1388        1866.00      8119.11
  264.44        2962.00           1392        3656.00     15927.33
  264.47        2962.25           1395        5540.00     24149.28
  264.49        2962.50           1398        7598.00     33134.92
  264.52        2962.75           1402       10157.00     44314.32
  264.55        2963.00           1405       12252.00     53471.89
  264.58        2963.25           1408       14409.00     62905.39
  264.60        2963.50           1412       17008.00     74278.56
  264.63        2963.75           1415       19075.00     83328.90
  264.66        2964.00           1418       21367.00     93369.77
  264.69        2964.25           1422       24077.00    105249.10
  264.71        2964.50           1425       26145.00    114319.60
  264.74        2964.75           1428       28594.00    125067.10
  264.77        2965.00           1431       30568.00    133734.80
  264.80        2965.25           1435       33539.00    146788.20
  264.82        2965.50           1438       35800.00    156728.60
  264.85        2965.75           1441       37628.00    164769.30
  264.88        2966.00           1445       40496.00    177392.00
  264.90        2966.25           1448       42309.00    185376.00
  264.93        2966.50           1451       43727.00    191623.10
  264.96        2966.75           1455       44941.00    196973.10
  264.99        2967.00           1458       45399.00    198991.90
  265.01        2967.25           1461       45555.00    199679.60
  265.04        2967.50           1465       45683.00    200243.90
  265.07        2967.75           1468       45177.00    198013.30
  265.10        2968.00           1471       44375.00    194478.60
  265.12        2968.25           1475       42744.00    187292.20
  265.15        2968.50           1478       40880.00    179082.80
  265.18        2968.75           1481       38690.00    169442.40
  265.21        2969.00           1485       36129.00    158175.50
  265.23        2969.25           1488       33760.00    147759.60
  265.26        2969.50           1491       31637.00    138430.50
  265.29        2969.75           1495       28510.00    124698.40
  265.31        2970.00           1498       26502.00    115885.90
  265.34        2970.25           1501       24327.00    106345.40
  265.37        2970.50           1505       21330.00     93207.62
  265.40        2970.75           1508       19239.00     84047.16
  265.42        2971.00           1511       17143.00     74869.52
  265.45        2971.25           1515       14309.00     62467.93
  265.48        2971.50           1518       12246.00     53445.66
  265.51        2971.75           1521       10075.00     43955.99
  265.53        2972.00           1525        7364.00     32113.00
  265.56        2972.25           1528        5211.00     22713.22
  265.59        2972.50           1531        3460.00     15072.19
  265.62        2972.75           1535        1508.00      6557.87
  265.64        2973.00           1538         652.00      2825.42
  265.67        2973.25           1541         231.00       990.00
  265.70        2973.50           1545          54.00       218.40
  265.72        2973.75           1548          34.00       131.21
  265.75        2974.00           1551          33.00       126.85
  265.78        2974.25           1555          22.00        78.90
  265.81        2974.50           1558          27.00       100.70
  265.83        2974.75           1561          19.00        65.82
  265.86        2975.00           1565          19.00        65.82
  265.89        2975.25           1568          26.00        96.34
  265.91        2975.50           1571          20.00        70.18
  265.94        2975.75           1575          24.00        87.62
  265.97        2976.00           1578          19.00        65.82
  266.00        2976.25           1581          22.00        78.90
  266.02        2976.50           1585          14.00        44.03
  266.05        2976.75           1588          15.00        48.39
  266.08        2977.00           1591          20.00        70.18
  266.10        2977.25           1595          22.00        78.90
  266.13        2977.50           1598          19.00        65.82
  266.16        2977.75           1601          20.00        70.18
  266.18        2978.00           1605          20.00        70.18
  266.21        2978.25           1608          25.00        91.98
  266.24        2978.50           1611          23.00        83.26
  266.27        2978.75           1615          24.00        87.62
  266.29        2979.00           1618          22.00        78.90
  266.32        2979.25           1621          24.00        87.62
  266.35        2979.50           1625          19.00        65.82
  266.38        2979.75           1628          16.00        52.75
  266.40        2980.00           1631          19.00        65.82
  266.43        2980.25           1635          25.00        91.98
  266.46        2980.50           1638          14.00        44.03
  266.48        2980.75           1641          19.00        65.82
  266.51        2981.00           1645          19.00        65.82
  266.54        2981.25           1648          18.00        61.46
  266.56        2981.50           1651          22.00        78.90
  266.59        2981.75           1655          20.00        70.18
  266.62        2982.00           1658          16.00        52.75
  266.65        2982.25           1661          17.00        57.11
  266.67        2982.50           1665          17.00        57.11
  266.70        2982.75           1668          19.00        65.82
  266.73        2983.00           1671          20.00        70.18
  266.75        2983.25           1675          17.00        57.11
  266.78        2983.50           1678          18.00        61.46
  266.81        2983.75           1681          19.00        65.82
  266.84        2984.00           1685          18.00        61.46
HS scan finished at 04:27:01
end
