************************************************************
  HS Scan of (1) Internal mercury lamp
************************************************************
Integration time is 0.2294 seconds per sample
dh130219Tamanrasset 22.79-5.529 4.974364pr865
************************************************************
Dead Time -------------------------  2.8E-08 
Number of Cycles Used -------------  4 
Starting Wavelength (Angstroms) ---  2950 
Final Wavelength (Angstoms) -------  2984 
Wavelength Increment (Angstroms) --  .25 
Filter Wheel #1 Position ---------- (1) Ground quartz diffuser (ND=2.32)
Filter Wheel #2 Position ---------- (1) Neutral Density 0.494



************************************************************
HS scan start time = 04:23:59
Dark Count =  4.6 


Time (GMT)  Wavelength (Ang)  Step Number  Raw Counts  Counts/Second

  264.34        2950.00           1233          20.00        67.13
  264.40        2950.25           1236          19.00        62.77
  264.43        2950.50           1239          20.00        67.13
  264.46        2950.75           1242          23.00        80.21
  264.48        2951.00           1246          21.00        71.49
  264.51        2951.25           1249          20.00        67.13
  264.54        2951.50           1252          18.00        58.41
  264.57        2951.75           1256          19.00        62.77
  264.59        2952.00           1259          17.00        54.05
  264.62        2952.25           1262          16.00        49.69
  264.65        2952.50           1266          15.00        45.34
  264.67        2952.75           1269          21.00        71.49
  264.70        2953.00           1272          21.00        71.49
  264.73        2953.25           1276          18.00        58.41
  264.76        2953.50           1279          19.00        62.77
  264.78        2953.75           1282          17.00        54.05
  264.81        2954.00           1286          19.00        62.77
  264.84        2954.25           1289          19.00        62.77
  264.86        2954.50           1292          23.00        80.21
  264.89        2954.75           1295          18.00        58.41
  264.92        2955.00           1299          20.00        67.13
  264.95        2955.25           1302          21.00        71.49
  264.97        2955.50           1305          18.00        58.41
  265.00        2955.75           1309          18.00        58.41
  265.03        2956.00           1312          21.00        71.49
  265.05        2956.25           1315          25.00        88.93
  265.08        2956.50           1319          21.00        71.49
  265.11        2956.75           1322          23.00        80.21
  265.14        2957.00           1325          18.00        58.41
  265.16        2957.25           1329          21.00        71.49
  265.19        2957.50           1332          20.00        67.13
  265.22        2957.75           1335          17.00        54.05
  265.24        2958.00           1339          19.00        62.77
  265.27        2958.25           1342          17.00        54.05
  265.30        2958.50           1345          19.00        62.77
  265.32        2958.75           1348          20.00        67.13
  265.35        2959.00           1352          23.00        80.21
  265.38        2959.25           1355          19.00        62.77
  265.41        2959.50           1358          21.00        71.49
  265.43        2959.75           1362          17.00        54.05
  265.46        2960.00           1365          18.00        58.41
  265.49        2960.25           1368          27.00        97.65
  265.52        2960.50           1372          30.00       110.72
  265.54        2960.75           1375          33.00       123.80
  265.57        2961.00           1378          74.00       302.53
  265.60        2961.25           1382         389.00      1675.75
  265.62        2961.50           1385         981.00      4256.83
  265.65        2961.75           1388        1920.00      8351.56
  265.68        2962.00           1392        3928.00     17111.07
  265.71        2962.25           1395        5772.00     25158.95
  265.73        2962.50           1398        7767.00     33869.95
  265.76        2962.75           1402       10354.00     45172.19
  265.79        2963.00           1405       12501.00     54557.57
  265.82        2963.25           1408       14462.00     63134.18
  265.84        2963.50           1412       17232.00     75256.06
  265.87        2963.75           1415       19426.00     84863.13
  265.90        2964.00           1418       21509.00     93988.96
  265.92        2964.25           1422       24164.00    105627.60
  265.95        2964.50           1425       26241.00    114737.70
  265.98        2964.75           1428       28418.00    124291.50
  266.01        2965.00           1431       30514.00    133494.60
  266.03        2965.25           1435       33130.00    144987.60
  266.06        2965.50           1438       35494.00    155379.90
  266.09        2965.75           1441       37620.00    164731.10
  266.12        2966.00           1445       40222.00    176182.60
  266.14        2966.25           1448       41886.00    183509.80
  266.17        2966.50           1451       43633.00    191205.80
  266.20        2966.75           1455       44501.00    195030.70
  266.23        2967.00           1458       45167.00    197966.20
  266.25        2967.25           1461       45269.00    198415.80
  266.28        2967.50           1465       45116.00    197741.30
  266.31        2967.75           1468       44906.00    196815.70
  266.33        2968.00           1471       44152.00    193492.70
  266.36        2968.25           1475       42432.00    185914.70
  266.39        2968.50           1478       40482.00    177327.30
  266.42        2968.75           1481       38520.00    168691.20
  266.44        2969.00           1485       35810.00    156769.50
  266.47        2969.25           1488       33662.00    147325.70
  266.50        2969.50           1491       31307.00    136977.70
  266.53        2969.75           1495       28518.00    124730.40
  266.55        2970.00           1498       26610.00    116356.70
  266.58        2970.25           1501       24296.00    106206.40
  266.61        2970.50           1505       21342.00     93257.15
  266.64        2970.75           1508       19136.00     83592.99
  266.66        2971.00           1511       16964.00     74082.90
  266.69        2971.25           1515       14196.00     61970.56
  266.72        2971.50           1518       12252.00     53468.83
  266.75        2971.75           1521       10015.00     43690.73
  266.77        2972.00           1525        7321.00     31922.16
  266.80        2972.25           1528        5355.00     23338.70
  266.83        2972.50           1531        3502.00     15252.37
  266.85        2972.75           1535        1518.00      6598.43
  266.88        2973.00           1538         619.00      2678.49
  266.91        2973.25           1541         195.00       830.01
  266.94        2973.50           1545          52.00       206.63
  266.96        2973.75           1548          41.00       158.68
  266.99        2974.00           1551          31.00       115.08
  267.02        2974.25           1555          23.00        80.21
  267.04        2974.50           1558          24.00        84.57
  267.07        2974.75           1561          27.00        97.65
  267.10        2975.00           1565          19.00        62.77
  267.13        2975.25           1568          22.00        75.85
  267.15        2975.50           1571          21.00        71.49
  267.18        2975.75           1575          19.00        62.77
  267.21        2976.00           1578          16.00        49.69
  267.24        2976.25           1581          24.00        84.57
  267.26        2976.50           1585          22.00        75.85
  267.29        2976.75           1588          20.00        67.13
  267.32        2977.00           1591          24.00        84.57
  267.34        2977.25           1595          18.00        58.41
  267.37        2977.50           1598          17.00        54.05
  267.40        2977.75           1601          20.00        67.13
  267.43        2978.00           1605          21.00        71.49
  267.45        2978.25           1608          16.00        49.69
  267.48        2978.50           1611          19.00        62.77
  267.51        2978.75           1615          21.00        71.49
  267.53        2979.00           1618          16.00        49.69
  267.56        2979.25           1621          18.00        58.41
  267.59        2979.50           1625          18.00        58.41
  267.62        2979.75           1628          21.00        71.49
  267.64        2980.00           1631          20.00        67.13
  267.67        2980.25           1635          17.00        54.05
  267.70        2980.50           1638          20.00        67.13
  267.72        2980.75           1641          19.00        62.77
  267.75        2981.00           1645          20.00        67.13
  267.78        2981.25           1648          22.00        75.85
  267.81        2981.50           1651          22.00        75.85
  267.83        2981.75           1655          22.00        75.85
  267.86        2982.00           1658          18.00        58.41
  267.89        2982.25           1661          20.00        67.13
  267.91        2982.50           1665          15.00        45.34
  267.94        2982.75           1668          19.00        62.77
  267.97        2983.00           1671          18.00        58.41
  268.00        2983.25           1675          20.00        67.13
  268.02        2983.50           1678          24.00        84.57
  268.05        2983.75           1681          20.00        67.13
  268.08        2984.00           1685          20.00        67.13
HS scan finished at 04:28:16
end
