************************************************************
  HS Scan of (1) Internal mercury lamp
************************************************************
Integration time is 0.2294 seconds per sample
dh100219Tamanrasset 22.79-5.529 4.974364pr865
************************************************************
Dead Time -------------------------  2.8E-08 
Number of Cycles Used -------------  4 
Starting Wavelength (Angstroms) ---  2950 
Final Wavelength (Angstoms) -------  2984 
Wavelength Increment (Angstroms) --  .25 
Filter Wheel #1 Position ---------- (1) Ground quartz diffuser (ND=2.32)
Filter Wheel #2 Position ---------- (1) Neutral Density 0.494



************************************************************
HS scan start time = 04:25:51
Dark Count =  3.4 


Time (GMT)  Wavelength (Ang)  Step Number  Raw Counts  Counts/Second

  266.21        2950.00           1233          18.00        63.64
  266.27        2950.25           1236          22.00        81.08
  266.30        2950.50           1239          17.00        59.29
  266.33        2950.75           1242          20.00        72.36
  266.35        2951.00           1246          21.00        76.72
  266.38        2951.25           1249          20.00        72.36
  266.41        2951.50           1252          19.00        68.00
  266.44        2951.75           1256          15.00        50.57
  266.46        2952.00           1259          19.00        68.00
  266.49        2952.25           1262          18.00        63.64
  266.52        2952.50           1266          20.00        72.36
  266.54        2952.75           1269          22.00        81.08
  266.57        2953.00           1272          20.00        72.36
  266.60        2953.25           1276          22.00        81.08
  266.63        2953.50           1279          16.00        54.93
  266.65        2953.75           1282          19.00        68.00
  266.68        2954.00           1286          16.00        54.93
  266.71        2954.25           1289          19.00        68.00
  266.73        2954.50           1292          16.00        54.93
  266.76        2954.75           1295          18.00        63.64
  266.79        2955.00           1299          18.00        63.64
  266.82        2955.25           1302          19.00        68.00
  266.84        2955.50           1305          23.00        85.44
  266.87        2955.75           1309          19.00        68.00
  266.90        2956.00           1312          20.00        72.36
  266.92        2956.25           1315          20.00        72.36
  266.95        2956.50           1319          19.00        68.00
  266.98        2956.75           1322          21.00        76.72
  267.01        2957.00           1325          24.00        89.80
  267.03        2957.25           1329          26.00        98.52
  267.06        2957.50           1332          15.00        50.57
  267.09        2957.75           1335          19.00        68.00
  267.11        2958.00           1339          18.00        63.64
  267.14        2958.25           1342          15.00        50.57
  267.17        2958.50           1345          18.00        63.64
  267.20        2958.75           1348          19.00        68.00
  267.22        2959.00           1352          16.00        54.93
  267.25        2959.25           1355          20.00        72.36
  267.28        2959.50           1358          21.00        76.72
  267.30        2959.75           1362          23.00        85.44
  267.33        2960.00           1365          21.00        76.72
  267.36        2960.25           1368          24.00        89.80
  267.39        2960.50           1372          25.00        94.16
  267.41        2960.75           1375          36.00       142.11
  267.44        2961.00           1378          75.00       312.12
  267.47        2961.25           1382         403.00      1742.02
  267.49        2961.50           1385        1052.00      4571.64
  267.52        2961.75           1388        2036.00      8862.71
  267.55        2962.00           1392        4163.00     18141.74
  267.58        2962.25           1395        6009.00     26198.81
  267.60        2962.50           1398        8040.00     35067.55
  267.63        2962.75           1402       10735.00     46842.57
  267.66        2963.00           1405       12671.00     55306.15
  267.69        2963.25           1408       14923.00     65156.25
  267.71        2963.50           1412       17635.00     77025.57
  267.74        2963.75           1415       19633.00     85775.07
  267.77        2964.00           1418       21819.00     95352.75
  267.79        2964.25           1422       24475.00    106996.60
  267.82        2964.50           1425       26577.00    116217.20
  267.85        2964.75           1428       28656.00    125341.50
  267.88        2965.00           1431       30887.00    135138.10
  267.90        2965.25           1435       33644.00    147251.90
  267.93        2965.50           1438       35940.00    157346.50
  267.96        2965.75           1441       37817.00    165603.10
  267.99        2966.00           1445       40619.00    177935.80
  268.01        2966.25           1448       42324.00    185444.30
  268.04        2966.50           1451       43738.00    191673.70
  268.07        2966.75           1455       45047.00    197442.50
  268.10        2967.00           1458       45401.00    199002.90
  268.12        2967.25           1461       45532.00    199580.40
  268.15        2967.50           1465       45266.00    198407.80
  268.18        2967.75           1468       44992.00    197200.10
  268.21        2968.00           1471       44417.00    194665.90
  268.23        2968.25           1475       42449.00    185994.90
  268.26        2968.50           1478       40732.00    178433.30
  268.29        2968.75           1481       38704.00    169506.20
  268.32        2969.00           1485       35742.00    156475.70
  268.34        2969.25           1488       33434.00    146328.90
  268.37        2969.50           1491       31328.00    137075.20
  268.40        2969.75           1495       28384.00    124147.50
  268.42        2970.00           1498       26337.00    115164.10
  268.45        2970.25           1501       24076.00    105246.90
  268.48        2970.50           1505       21419.00     93599.83
  268.51        2970.75           1508       19199.00     83874.18
  268.53        2971.00           1511       16856.00     73615.41
  268.56        2971.25           1515       14134.00     61704.60
  268.59        2971.50           1518       11998.00     52363.55
  268.62        2971.75           1521       10035.00     43783.37
  268.64        2972.00           1525        7385.00     32206.89
  268.67        2972.25           1528        5282.00     23025.30
  268.70        2972.50           1531        3469.00     15113.63
  268.72        2972.75           1535        1512.00      6577.50
  268.75        2973.00           1538         656.00      2845.04
  268.78        2973.25           1541         222.00       952.95
  268.81        2973.50           1545          45.00       181.34
  268.83        2973.75           1548          26.00        98.52
  268.86        2974.00           1551          29.00       111.60
  268.89        2974.25           1555          25.00        94.16
  268.92        2974.50           1558          20.00        72.36
  268.94        2974.75           1561          20.00        72.36
  268.97        2975.00           1565          20.00        72.36
  269.00        2975.25           1568          19.00        68.00
  269.02        2975.50           1571          21.00        76.72
  269.05        2975.75           1575          23.00        85.44
  269.08        2976.00           1578          20.00        72.36
  269.11        2976.25           1581          18.00        63.64
  269.13        2976.50           1585          17.00        59.29
  269.16        2976.75           1588          21.00        76.72
  269.19        2977.00           1591          23.00        85.44
  269.21        2977.25           1595          18.00        63.64
  269.24        2977.50           1598          22.00        81.08
  269.27        2977.75           1601          19.00        68.00
  269.30        2978.00           1605          16.00        54.93
  269.32        2978.25           1608          18.00        63.64
  269.35        2978.50           1611          23.00        85.44
  269.38        2978.75           1615          14.00        46.21
  269.40        2979.00           1618          17.00        59.29
  269.43        2979.25           1621          24.00        89.80
  269.46        2979.50           1625          18.00        63.64
  269.49        2979.75           1628          18.00        63.64
  269.51        2980.00           1631          20.00        72.36
  269.54        2980.25           1635          23.00        85.44
  269.57        2980.50           1638          18.00        63.64
  269.59        2980.75           1641          21.00        76.72
  269.62        2981.00           1645          19.00        68.00
  269.65        2981.25           1648          18.00        63.64
  269.67        2981.50           1651          21.00        76.72
  269.70        2981.75           1655          19.00        68.00
  269.73        2982.00           1658          21.00        76.72
  269.76        2982.25           1661          24.00        89.80
  269.78        2982.50           1665          18.00        63.64
  269.81        2982.75           1668          19.00        68.00
  269.84        2983.00           1671          18.00        63.64
  269.86        2983.25           1675          21.00        76.72
  269.89        2983.50           1678          20.00        72.36
  269.92        2983.75           1681          19.00        68.00
  269.95        2984.00           1685          20.00        72.36
HS scan finished at 04:30:08
end
