************************************************************
  HS Scan of (1) Internal mercury lamp
************************************************************
Integration time is 0.2294 seconds per sample
dh220219Tamanrasset 22.79-5.529 4.974364pr865
************************************************************
Dead Time -------------------------  2.8E-08 
Number of Cycles Used -------------  4 
Starting Wavelength (Angstroms) ---  2950 
Final Wavelength (Angstoms) -------  2984 
Wavelength Increment (Angstroms) --  .25 
Filter Wheel #1 Position ---------- (1) Ground quartz diffuser (ND=2.32)
Filter Wheel #2 Position ---------- (1) Neutral Density 0.494



************************************************************
HS scan start time = 04:18:05
Dark Count =  1.9 


Time (GMT)  Wavelength (Ang)  Step Number  Raw Counts  Counts/Second

  258.44        2950.00           1233          17.00        65.82
  258.50        2950.25           1236          21.00        83.26
  258.53        2950.50           1239          22.00        87.62
  258.55        2950.75           1242          19.00        74.54
  258.58        2951.00           1246          20.00        78.90
  258.61        2951.25           1249          17.00        65.82
  258.64        2951.50           1252          20.00        78.90
  258.66        2951.75           1256          20.00        78.90
  258.69        2952.00           1259          21.00        83.26
  258.72        2952.25           1262          17.00        65.82
  258.75        2952.50           1266          17.00        65.82
  258.77        2952.75           1269          17.00        65.82
  258.80        2953.00           1272          19.00        74.54
  258.83        2953.25           1276          17.00        65.82
  258.85        2953.50           1279          20.00        78.90
  258.88        2953.75           1282          19.00        74.54
  258.91        2954.00           1286          22.00        87.62
  258.94        2954.25           1289          21.00        83.26
  258.96        2954.50           1292          20.00        78.90
  258.99        2954.75           1295          22.00        87.62
  259.02        2955.00           1299          17.00        65.82
  259.04        2955.25           1302          20.00        78.90
  259.07        2955.50           1305          21.00        83.26
  259.10        2955.75           1309          21.00        83.26
  259.13        2956.00           1312          19.00        74.54
  259.15        2956.25           1315          23.00        91.98
  259.18        2956.50           1319          20.00        78.90
  259.21        2956.75           1322          20.00        78.90
  259.23        2957.00           1325          18.00        70.18
  259.26        2957.25           1329          16.00        61.46
  259.29        2957.50           1332          19.00        74.54
  259.32        2957.75           1335          19.00        74.54
  259.34        2958.00           1339          17.00        65.82
  259.37        2958.25           1342          22.00        87.62
  259.40        2958.50           1345          19.00        74.54
  259.42        2958.75           1348          18.00        70.18
  259.45        2959.00           1352          18.00        70.18
  259.48        2959.25           1355          21.00        83.26
  259.51        2959.50           1358          23.00        91.98
  259.53        2959.75           1362          19.00        74.54
  259.56        2960.00           1365          24.00        96.34
  259.59        2960.25           1368          23.00        91.98
  259.61        2960.50           1372          25.00       100.70
  259.64        2960.75           1375          35.00       144.29
  259.67        2961.00           1378          78.00       331.74
  259.70        2961.25           1382         363.00      1574.18
  259.72        2961.50           1385         928.00      4037.51
  259.75        2961.75           1388        1991.00      8672.99
  259.78        2962.00           1392        4078.00     17777.38
  259.81        2962.25           1395        5928.00     25851.75
  259.83        2962.50           1398        7941.00     34641.70
  259.86        2962.75           1402       10491.00     45782.71
  259.89        2963.00           1405       12469.00     54429.44
  259.91        2963.25           1408       14668.00     64047.19
  259.94        2963.50           1412       17336.00     75723.16
  259.97        2963.75           1415       19408.00     84796.12
  260.00        2964.00           1418       21656.00     94644.99
  260.02        2964.25           1422       24183.00    105722.70
  260.05        2964.50           1425       26194.00    114543.30
  260.08        2964.75           1428       28307.00    123816.10
  260.11        2965.00           1431       30519.00    133528.40
  260.13        2965.25           1435       33295.00    145724.60
  260.16        2965.50           1438       35587.00    155800.70
  260.19        2965.75           1441       37631.00    164791.30
  260.21        2966.00           1445       40357.00    176788.80
  260.24        2966.25           1448       41907.00    183614.20
  260.27        2966.50           1451       43509.00    190671.30
  260.30        2966.75           1455       44721.00    196012.30
  260.32        2967.00           1458       45067.00    197537.30
  260.35        2967.25           1461       45062.00    197515.20
  260.38        2967.50           1465       45162.00    197956.00
  260.41        2967.75           1468       44559.00    195298.30
  260.43        2968.00           1471       43894.00    192367.70
  260.46        2968.25           1475       42092.00    184429.00
  260.49        2968.50           1478       40108.00    175692.60
  260.52        2968.75           1481       38365.00    168021.00
  260.54        2969.00           1485       35481.00    155334.60
  260.57        2969.25           1488       33234.00    145456.50
  260.60        2969.50           1491       30940.00    135377.50
  260.63        2969.75           1495       28088.00    122854.80
  260.65        2970.00           1498       25911.00    113301.80
  260.68        2970.25           1501       23880.00    104394.10
  260.71        2970.50           1505       21006.00     91796.68
  260.73        2970.75           1508       18919.00     82654.45
  260.76        2971.00           1511       16659.00     72759.68
  260.79        2971.25           1515       14067.00     61418.08
  260.82        2971.50           1518       11863.00     51779.90
  260.84        2971.75           1521       10052.00     43864.22
  260.87        2972.00           1525        7206.00     31431.75
  260.90        2972.25           1528        5109.00     22276.75
  260.93        2972.50           1531        3301.00     14387.23
  260.95        2972.75           1535        1458.00      6348.56
  260.98        2973.00           1538         577.00      2507.15
  261.01        2973.25           1541         190.00       819.98
  261.04        2973.50           1545          53.00       222.76
  261.06        2973.75           1548          33.00       135.57
  261.09        2974.00           1551          26.00       105.06
  261.12        2974.25           1555          22.00        87.62
  261.14        2974.50           1558          21.00        83.26
  261.17        2974.75           1561          22.00        87.62
  261.20        2975.00           1565          17.00        65.82
  261.23        2975.25           1568          19.00        74.54
  261.25        2975.50           1571          19.00        74.54
  261.28        2975.75           1575          18.00        70.18
  261.31        2976.00           1578          17.00        65.82
  261.33        2976.25           1581          18.00        70.18
  261.36        2976.50           1585          21.00        83.26
  261.39        2976.75           1588          22.00        87.62
  261.42        2977.00           1591          19.00        74.54
  261.44        2977.25           1595          17.00        65.82
  261.47        2977.50           1598          22.00        87.62
  261.50        2977.75           1601          20.00        78.90
  261.52        2978.00           1605          21.00        83.26
  261.55        2978.25           1608          22.00        87.62
  261.58        2978.50           1611          18.00        70.18
  261.61        2978.75           1615          22.00        87.62
  261.63        2979.00           1618          20.00        78.90
  261.66        2979.25           1621          18.00        70.18
  261.69        2979.50           1625          20.00        78.90
  261.71        2979.75           1628          16.00        61.46
  261.74        2980.00           1631          15.00        57.11
  261.77        2980.25           1635          22.00        87.62
  261.80        2980.50           1638          20.00        78.90
  261.82        2980.75           1641          17.00        65.82
  261.85        2981.00           1645          16.00        61.46
  261.88        2981.25           1648          18.00        70.18
  261.90        2981.50           1651          22.00        87.62
  261.93        2981.75           1655          22.00        87.62
  261.96        2982.00           1658          17.00        65.82
  261.98        2982.25           1661          21.00        83.26
  262.01        2982.50           1665          19.00        74.54
  262.04        2982.75           1668          19.00        74.54
  262.07        2983.00           1671          21.00        83.26
  262.09        2983.25           1675          20.00        78.90
  262.12        2983.50           1678          13.00        48.39
  262.15        2983.75           1681          16.00        61.46
  262.18        2984.00           1685          18.00        70.18
HS scan finished at 04:22:22
end
