************************************************************
  HS Scan of (1) Internal mercury lamp
************************************************************
Integration time is 0.2294 seconds per sample
dh210219Tamanrasset 22.79-5.529 4.974364pr865
************************************************************
Dead Time -------------------------  2.8E-08 
Number of Cycles Used -------------  4 
Starting Wavelength (Angstroms) ---  2950 
Final Wavelength (Angstoms) -------  2984 
Wavelength Increment (Angstroms) --  .25 
Filter Wheel #1 Position ---------- (1) Ground quartz diffuser (ND=2.32)
Filter Wheel #2 Position ---------- (1) Neutral Density 0.494



************************************************************
HS scan start time = 04:18:05
Dark Count =  3.2 


Time (GMT)  Wavelength (Ang)  Step Number  Raw Counts  Counts/Second

  258.45        2950.00           1233          21.00        77.59
  258.51        2950.25           1236          19.00        68.88
  258.54        2950.50           1239          17.00        60.16
  258.57        2950.75           1242          19.00        68.88
  258.59        2951.00           1246          16.00        55.80
  258.62        2951.25           1249          16.00        55.80
  258.65        2951.50           1252          20.00        73.23
  258.67        2951.75           1256          20.00        73.23
  258.70        2952.00           1259          19.00        68.88
  258.73        2952.25           1262          19.00        68.88
  258.76        2952.50           1266          18.00        64.52
  258.78        2952.75           1269          22.00        81.95
  258.81        2953.00           1272          18.00        64.52
  258.84        2953.25           1276          21.00        77.59
  258.86        2953.50           1279          17.00        60.16
  258.89        2953.75           1282          18.00        64.52
  258.92        2954.00           1286          24.00        90.67
  258.94        2954.25           1289          19.00        68.88
  258.97        2954.50           1292          21.00        77.59
  259.00        2954.75           1295          20.00        73.23
  259.03        2955.00           1299          18.00        64.52
  259.05        2955.25           1302          22.00        81.95
  259.08        2955.50           1305          18.00        64.52
  259.11        2955.75           1309          22.00        81.95
  259.14        2956.00           1312          22.00        81.95
  259.16        2956.25           1315          19.00        68.88
  259.19        2956.50           1319          18.00        64.52
  259.22        2956.75           1322          22.00        81.95
  259.24        2957.00           1325          19.00        68.88
  259.27        2957.25           1329          22.00        81.95
  259.30        2957.50           1332          19.00        68.88
  259.32        2957.75           1335          21.00        77.59
  259.35        2958.00           1339          19.00        68.88
  259.38        2958.25           1342          14.00        47.08
  259.41        2958.50           1345          23.00        86.31
  259.43        2958.75           1348          22.00        81.95
  259.46        2959.00           1352          20.00        73.23
  259.49        2959.25           1355          21.00        77.59
  259.51        2959.50           1358          23.00        86.31
  259.54        2959.75           1362          18.00        64.52
  259.57        2960.00           1365          31.00       121.19
  259.60        2960.25           1368          26.00        99.39
  259.62        2960.50           1372          27.00       103.75
  259.65        2960.75           1375          27.00       103.75
  259.68        2961.00           1378          77.00       321.71
  259.71        2961.25           1382         400.00      1729.81
  259.73        2961.50           1385         935.00      4062.36
  259.76        2961.75           1388        1928.00      8392.56
  259.79        2962.00           1392        3906.00     17021.19
  259.81        2962.25           1395        5797.00     25274.20
  259.84        2962.50           1398        7965.00     34740.84
  259.87        2962.75           1402       10518.00     45895.04
  259.90        2963.00           1405       12381.00     54038.99
  259.92        2963.25           1408       14479.00     63214.67
  259.95        2963.50           1412       17269.00     75424.16
  259.98        2963.75           1415       19255.00     84120.32
  260.00        2964.00           1418       21498.00     93946.89
  260.03        2964.25           1422       23808.00    104072.70
  260.06        2964.50           1425       25899.00    113243.40
  260.09        2964.75           1428       28343.00    123968.40
  260.11        2965.00           1431       30300.00    132560.90
  260.14        2965.25           1435       32973.00    144303.80
  260.17        2965.50           1438       35243.00    154282.30
  260.20        2965.75           1441       37162.00    162722.30
  260.22        2966.00           1445       40173.00    175973.10
  260.25        2966.25           1448       41899.00    183573.30
  260.28        2966.50           1451       43171.00    189176.40
  260.31        2966.75           1455       44379.00    194499.30
  260.33        2967.00           1458       44869.00    196658.80
  260.36        2967.25           1461       45101.00    197681.40
  260.39        2967.50           1465       44940.00    196971.80
  260.42        2967.75           1468       44637.00    195636.30
  260.44        2968.00           1471       43753.00    191740.70
  260.47        2968.25           1475       42109.00    184498.20
  260.50        2968.50           1478       40183.00    176017.10
  260.53        2968.75           1481       38207.00    167320.00
  260.55        2969.00           1485       35472.00    155289.30
  260.58        2969.25           1488       33315.00    145806.80
  260.61        2969.50           1491       31205.00    136535.80
  260.64        2969.75           1495       28240.00    123516.20
  260.66        2970.00           1498       26079.00    114033.10
  260.69        2970.25           1501       23865.00    104322.60
  260.72        2970.50           1505       21217.00     92715.53
  260.74        2970.75           1508       19167.00     83734.90
  260.77        2971.00           1511       16892.00     73773.86
  260.80        2971.25           1515       14370.00     62737.84
  260.83        2971.50           1518       12047.00     52578.66
  260.85        2971.75           1521       10016.00     43701.22
  260.88        2972.00           1525        7265.00     31683.72
  260.91        2972.25           1528        5414.00     23602.34
  260.94        2972.50           1531        3577.00     15585.70
  260.96        2972.75           1535        1591.00      6922.88
  260.99        2973.00           1538         696.00      3020.31
  261.02        2973.25           1541         226.00       971.26
  261.04        2973.50           1545          57.00       234.53
  261.07        2973.75           1548          33.00       129.90
  261.10        2974.00           1551          36.00       142.98
  261.13        2974.25           1555          24.00        90.67
  261.15        2974.50           1558          27.00       103.75
  261.18        2974.75           1561          19.00        68.88
  261.21        2975.00           1565          20.00        73.23
  261.23        2975.25           1568          21.00        77.59
  261.26        2975.50           1571          20.00        73.23
  261.29        2975.75           1575          18.00        64.52
  261.32        2976.00           1578          24.00        90.67
  261.34        2976.25           1581          20.00        73.23
  261.37        2976.50           1585          19.00        68.88
  261.40        2976.75           1588          21.00        77.59
  261.42        2977.00           1591          21.00        77.59
  261.45        2977.25           1595          19.00        68.88
  261.48        2977.50           1598          24.00        90.67
  261.51        2977.75           1601          20.00        73.23
  261.53        2978.00           1605          19.00        68.88
  261.56        2978.25           1608          18.00        64.52
  261.59        2978.50           1611          20.00        73.23
  261.62        2978.75           1615          19.00        68.88
  261.64        2979.00           1618          21.00        77.59
  261.67        2979.25           1621          21.00        77.59
  261.70        2979.50           1625          24.00        90.67
  261.72        2979.75           1628          21.00        77.59
  261.75        2980.00           1631          24.00        90.67
  261.78        2980.25           1635          20.00        73.23
  261.81        2980.50           1638          19.00        68.88
  261.83        2980.75           1641          15.00        51.44
  261.86        2981.00           1645          23.00        86.31
  261.89        2981.25           1648          20.00        73.23
  261.91        2981.50           1651          16.00        55.80
  261.94        2981.75           1655          17.00        60.16
  261.97        2982.00           1658          18.00        64.52
  262.00        2982.25           1661          20.00        73.23
  262.02        2982.50           1665          19.00        68.88
  262.05        2982.75           1668          20.00        73.23
  262.08        2983.00           1671          16.00        55.80
  262.10        2983.25           1675          18.00        64.52
  262.13        2983.50           1678          24.00        90.67
  262.16        2983.75           1681          18.00        64.52
  262.19        2984.00           1685          19.00        68.88
HS scan finished at 04:22:22
end
