************************************************************
  HS Scan of (1) Internal mercury lamp
************************************************************
Integration time is 0.2294 seconds per sample
dh230219Tamanrasset 22.79-5.529 4.974364pr865
************************************************************
Dead Time -------------------------  2.8E-08 
Number of Cycles Used -------------  4 
Starting Wavelength (Angstroms) ---  2950 
Final Wavelength (Angstoms) -------  2984 
Wavelength Increment (Angstroms) --  .25 
Filter Wheel #1 Position ---------- (1) Ground quartz diffuser (ND=2.32)
Filter Wheel #2 Position ---------- (1) Neutral Density 0.494



************************************************************
HS scan start time = 04:16:39
Dark Count =  5.9 


Time (GMT)  Wavelength (Ang)  Step Number  Raw Counts  Counts/Second

  257.01        2950.00           1233          21.00        65.82
  257.08        2950.25           1236          19.00        57.11
  257.11        2950.50           1239          19.00        57.11
  257.13        2950.75           1242          20.00        61.46
  257.16        2951.00           1246          20.00        61.46
  257.19        2951.25           1249          20.00        61.46
  257.21        2951.50           1252          14.00        35.31
  257.24        2951.75           1256          19.00        57.11
  257.27        2952.00           1259          18.00        52.75
  257.30        2952.25           1262          19.00        57.11
  257.32        2952.50           1266          17.00        48.39
  257.35        2952.75           1269          17.00        48.39
  257.38        2953.00           1272          18.00        52.75
  257.41        2953.25           1276          20.00        61.46
  257.43        2953.50           1279          17.00        48.39
  257.46        2953.75           1282          17.00        48.39
  257.49        2954.00           1286          17.00        48.39
  257.51        2954.25           1289          19.00        57.11
  257.54        2954.50           1292          21.00        65.82
  257.57        2954.75           1295          15.00        39.67
  257.60        2955.00           1299          24.00        78.90
  257.62        2955.25           1302          23.00        74.54
  257.65        2955.50           1305          21.00        65.82
  257.68        2955.75           1309          20.00        61.46
  257.70        2956.00           1312          17.00        48.39
  257.73        2956.25           1315          16.00        44.03
  257.76        2956.50           1319          22.00        70.18
  257.79        2956.75           1322          19.00        57.11
  257.81        2957.00           1325          19.00        57.11
  257.84        2957.25           1329          20.00        61.46
  257.87        2957.50           1332          18.00        52.75
  257.89        2957.75           1335          16.00        44.03
  257.92        2958.00           1339          12.00        26.59
  257.95        2958.25           1342          15.00        39.67
  257.98        2958.50           1345          19.00        57.11
  258.00        2958.75           1348          17.00        48.39
  258.03        2959.00           1352          24.00        78.90
  258.06        2959.25           1355          19.00        57.11
  258.09        2959.50           1358          20.00        61.46
  258.11        2959.75           1362          22.00        70.18
  258.14        2960.00           1365          25.00        83.26
  258.17        2960.25           1368          21.00        65.82
  258.19        2960.50           1372          29.00       100.70
  258.22        2960.75           1375          33.00       118.13
  258.25        2961.00           1378          81.00       327.38
  258.28        2961.25           1382         363.00      1556.74
  258.30        2961.50           1385         960.00      4159.60
  258.33        2961.75           1388        1884.00      8188.89
  258.36        2962.00           1392        3885.00     16917.78
  258.38        2962.25           1395        5750.00     25057.25
  258.41        2962.50           1398        7698.00     33562.92
  258.44        2962.75           1402       10404.00     45385.01
  258.47        2963.00           1405       12382.00     54031.55
  258.49        2963.25           1408       14447.00     63062.87
  258.52        2963.50           1412       17085.00     74606.87
  258.55        2963.75           1415       19192.00     83832.56
  258.58        2964.00           1418       21452.00     93733.48
  258.60        2964.25           1422       24131.00    105477.10
  258.63        2964.50           1425       25984.00    113604.50
  258.66        2964.75           1428       28319.00    123851.20
  258.69        2965.00           1431       30248.00    132320.60
  258.71        2965.25           1435       33078.00    144753.40
  258.74        2965.50           1438       35432.00    155101.50
  258.77        2965.75           1441       37204.00    162895.20
  258.79        2966.00           1445       40051.00    175424.10
  258.82        2966.25           1448       41666.00    182535.20
  258.85        2966.50           1451       43297.00    189719.60
  258.88        2966.75           1455       44633.00    195606.80
  258.90        2967.00           1458       45095.00    197643.10
  258.93        2967.25           1461       45241.00    198286.60
  258.96        2967.50           1465       45003.00    197237.60
  258.99        2967.75           1468       44690.00    195858.00
  259.01        2968.00           1471       43733.00    191640.70
  259.04        2968.25           1475       42298.00    185318.80
  259.07        2968.50           1478       40324.00    176626.00
  259.09        2968.75           1481       38280.00    167629.30
  259.12        2969.00           1485       35632.00    155981.00
  259.15        2969.25           1488       33518.00    146687.10
  259.18        2969.50           1491       31135.00    136216.50
  259.20        2969.75           1495       28281.00    123684.40
  259.23        2970.00           1498       26223.00    114653.00
  259.26        2970.25           1501       24056.00    105148.30
  259.29        2970.50           1505       20986.00     91691.51
  259.31        2970.75           1508       19002.00     83000.43
  259.34        2971.00           1511       16981.00     74151.62
  259.37        2971.25           1515       14172.00     61859.89
  259.40        2971.50           1518       12036.00     52518.76
  259.42        2971.75           1521        9951.00     43405.38
  259.45        2972.00           1525        7290.00     31781.10
  259.48        2972.25           1528        5157.00     22468.80
  259.50        2972.50           1531        3346.00     14566.10
  259.53        2972.75           1535        1427.00      6195.93
  259.56        2973.00           1538         580.00      2502.79
  259.59        2973.25           1541         194.00       819.98
  259.61        2973.50           1545          50.00       192.24
  259.64        2973.75           1548          36.00       131.21
  259.67        2974.00           1551          31.00       109.42
  259.70        2974.25           1555          21.00        65.82
  259.72        2974.50           1558          20.00        61.46
  259.75        2974.75           1561          23.00        74.54
  259.78        2975.00           1565          22.00        70.18
  259.80        2975.25           1568          21.00        65.82
  259.83        2975.50           1571          24.00        78.90
  259.86        2975.75           1575          21.00        65.82
  259.88        2976.00           1578          21.00        65.82
  259.91        2976.25           1581          22.00        70.18
  259.94        2976.50           1585          21.00        65.82
  259.97        2976.75           1588          22.00        70.18
  259.99        2977.00           1591          19.00        57.11
  260.02        2977.25           1595          19.00        57.11
  260.05        2977.50           1598          20.00        61.46
  260.07        2977.75           1601          22.00        70.18
  260.10        2978.00           1605          18.00        52.75
  260.13        2978.25           1608          21.00        65.82
  260.16        2978.50           1611          19.00        57.11
  260.18        2978.75           1615          21.00        65.82
  260.21        2979.00           1618          16.00        44.03
  260.24        2979.25           1621          21.00        65.82
  260.26        2979.50           1625          20.00        61.46
  260.29        2979.75           1628          19.00        57.11
  260.32        2980.00           1631          18.00        52.75
  260.35        2980.25           1635          22.00        70.18
  260.37        2980.50           1638          19.00        57.11
  260.40        2980.75           1641          23.00        74.54
  260.43        2981.00           1645          19.00        57.11
  260.45        2981.25           1648          23.00        74.54
  260.48        2981.50           1651          17.00        48.39
  260.51        2981.75           1655          19.00        57.11
  260.54        2982.00           1658          19.00        57.11
  260.56        2982.25           1661          21.00        65.82
  260.59        2982.50           1665          24.00        78.90
  260.62        2982.75           1668          20.00        61.46
  260.64        2983.00           1671          19.00        57.11
  260.67        2983.25           1675          20.00        61.46
  260.70        2983.50           1678          19.00        57.11
  260.73        2983.75           1681          22.00        70.18
  260.75        2984.00           1685          16.00        44.03
HS scan finished at 04:20:56
end
