************************************************************
  HS Scan of (1) Internal mercury lamp
************************************************************
Integration time is 0.2294 seconds per sample
dh190219Tamanrasset 22.79-5.529 4.974364pr865
************************************************************
Dead Time -------------------------  2.8E-08 
Number of Cycles Used -------------  4 
Starting Wavelength (Angstroms) ---  2950 
Final Wavelength (Angstoms) -------  2984 
Wavelength Increment (Angstroms) --  .25 
Filter Wheel #1 Position ---------- (1) Ground quartz diffuser (ND=2.32)
Filter Wheel #2 Position ---------- (1) Neutral Density 0.494



************************************************************
HS scan start time = 04:20:34
Dark Count =  1.3 


Time (GMT)  Wavelength (Ang)  Step Number  Raw Counts  Counts/Second

  260.92        2950.00           1233          20.00        81.52
  260.98        2950.25           1236          17.00        68.44
  261.01        2950.50           1239          19.00        77.16
  261.03        2950.75           1242          17.00        68.44
  261.06        2951.00           1246          19.00        77.16
  261.09        2951.25           1249          19.00        77.16
  261.12        2951.50           1252          19.00        77.16
  261.14        2951.75           1256          17.00        68.44
  261.17        2952.00           1259          17.00        68.44
  261.20        2952.25           1262          17.00        68.44
  261.23        2952.50           1266          19.00        77.16
  261.25        2952.75           1269          15.00        59.72
  261.28        2953.00           1272          22.00        90.24
  261.31        2953.25           1276          19.00        77.16
  261.33        2953.50           1279          18.00        72.80
  261.36        2953.75           1282          16.00        64.08
  261.39        2954.00           1286          16.00        64.08
  261.42        2954.25           1289          17.00        68.44
  261.44        2954.50           1292          20.00        81.52
  261.47        2954.75           1295          19.00        77.16
  261.50        2955.00           1299          19.00        77.16
  261.52        2955.25           1302          19.00        77.16
  261.55        2955.50           1305          21.00        85.88
  261.58        2955.75           1309          20.00        81.52
  261.61        2956.00           1312          21.00        85.88
  261.63        2956.25           1315          18.00        72.80
  261.66        2956.50           1319          17.00        68.44
  261.69        2956.75           1322          22.00        90.24
  261.71        2957.00           1325          20.00        81.52
  261.74        2957.25           1329          20.00        81.52
  261.77        2957.50           1332          17.00        68.44
  261.80        2957.75           1335          18.00        72.80
  261.82        2958.00           1339          18.00        72.80
  261.85        2958.25           1342          20.00        81.52
  261.88        2958.50           1345          20.00        81.52
  261.90        2958.75           1348          18.00        72.80
  261.93        2959.00           1352          20.00        81.52
  261.96        2959.25           1355          17.00        68.44
  261.99        2959.50           1358          28.00       116.39
  262.01        2959.75           1362          24.00        98.95
  262.04        2960.00           1365          20.00        81.52
  262.07        2960.25           1368          25.00       103.31
  262.09        2960.50           1372          27.00       112.03
  262.12        2960.75           1375          34.00       142.55
  262.15        2961.00           1378          51.00       216.65
  262.18        2961.25           1382         296.00      1284.70
  262.20        2961.50           1385         852.00      3708.76
  262.23        2961.75           1388        1763.00      7681.25
  262.26        2962.00           1392        3640.00     15868.86
  262.29        2962.25           1395        5402.00     23558.26
  262.31        2962.50           1398        7562.00     32989.05
  262.34        2962.75           1402       10274.00     44836.99
  262.37        2963.00           1405       12306.00     53719.37
  262.39        2963.25           1408       14489.00     63266.73
  262.42        2963.50           1412       17063.00     74530.71
  262.45        2963.75           1415       19047.00     83217.66
  262.48        2964.00           1418       21312.00     93140.13
  262.50        2964.25           1422       24148.00    105571.90
  262.53        2964.50           1425       26018.00    113773.80
  262.56        2964.75           1428       28258.00    123603.60
  262.59        2965.00           1431       30393.00    132977.60
  262.61        2965.25           1435       33090.00    144826.30
  262.64        2965.50           1438       35364.00    154822.70
  262.67        2965.75           1441       37547.00    164424.40
  262.69        2966.00           1445       40086.00    175598.40
  262.72        2966.25           1448       41969.00    183889.90
  262.75        2966.50           1451       43534.00    190784.10
  262.78        2966.75           1455       44603.00    195494.80
  262.80        2967.00           1458       45003.00    197257.80
  262.83        2967.25           1461       45150.00    197905.80
  262.86        2967.50           1465       45054.00    197482.60
  262.89        2967.75           1468       44568.00    195340.60
  262.91        2968.00           1471       44031.00    192974.10
  262.94        2968.25           1475       42126.00    184581.40
  262.97        2968.50           1478       40328.00    176663.80
  263.00        2968.75           1481       38359.00    167997.20
  263.02        2969.00           1485       35533.00    155565.90
  263.05        2969.25           1488       33166.00    145160.30
  263.08        2969.50           1491       30900.00    135204.40
  263.10        2969.75           1495       28064.00    122752.10
  263.13        2970.00           1498       25929.00    113383.40
  263.16        2970.25           1501       23977.00    104822.00
  263.19        2970.50           1505       21025.00     91882.55
  263.21        2970.75           1508       18819.00     82219.15
  263.24        2971.00           1511       16642.00     72687.88
  263.27        2971.25           1515       13786.00     60191.60
  263.30        2971.50           1518       11752.00     51297.26
  263.32        2971.75           1521        9696.00     42311.22
  263.35        2972.00           1525        7164.00     31250.96
  263.38        2972.25           1528        5072.00     22117.88
  263.41        2972.50           1531        3274.00     14272.05
  263.43        2972.75           1535        1407.00      6128.78
  263.46        2973.00           1538         595.00      2588.24
  263.49        2973.25           1541         201.00       870.55
  263.51        2973.50           1545          54.00       229.73
  263.54        2973.75           1548          30.00       125.11
  263.57        2974.00           1551          27.00       112.03
  263.60        2974.25           1555          28.00       116.39
  263.62        2974.50           1558          23.00        94.59
  263.65        2974.75           1561          20.00        81.52
  263.68        2975.00           1565          22.00        90.24
  263.70        2975.25           1568          21.00        85.88
  263.73        2975.50           1571          24.00        98.95
  263.76        2975.75           1575          17.00        68.44
  263.79        2976.00           1578          25.00       103.31
  263.81        2976.25           1581          25.00       103.31
  263.84        2976.50           1585          20.00        81.52
  263.87        2976.75           1588          22.00        90.24
  263.89        2977.00           1591          24.00        98.95
  263.92        2977.25           1595          17.00        68.44
  263.95        2977.50           1598          23.00        94.59
  263.98        2977.75           1601          21.00        85.88
  264.00        2978.00           1605          18.00        72.80
  264.03        2978.25           1608          13.00        51.00
  264.06        2978.50           1611          17.00        68.44
  264.08        2978.75           1615          25.00       103.31
  264.11        2979.00           1618          25.00       103.31
  264.14        2979.25           1621          16.00        64.08
  264.17        2979.50           1625          19.00        77.16
  264.19        2979.75           1628          19.00        77.16
  264.22        2980.00           1631          18.00        72.80
  264.25        2980.25           1635          22.00        90.24
  264.27        2980.50           1638          19.00        77.16
  264.30        2980.75           1641          19.00        77.16
  264.33        2981.00           1645          21.00        85.88
  264.36        2981.25           1648          17.00        68.44
  264.38        2981.50           1651          19.00        77.16
  264.41        2981.75           1655          16.00        64.08
  264.44        2982.00           1658          21.00        85.88
  264.46        2982.25           1661          22.00        90.24
  264.49        2982.50           1665          17.00        68.44
  264.52        2982.75           1668          16.00        64.08
  264.55        2983.00           1671          19.00        77.16
  264.57        2983.25           1675          23.00        94.59
  264.60        2983.50           1678          18.00        72.80
  264.63        2983.75           1681          20.00        81.52
  264.65        2984.00           1685          15.00        59.72
HS scan finished at 04:24:51
end
