************************************************************
  HS Scan of (1) Internal mercury lamp
************************************************************
Integration time is 0.2294 seconds per sample
dh270217Tamanrasset 22.79-5.529 2.731107pr865
************************************************************
Dead Time -------------------------  2.8E-08 
Number of Cycles Used -------------  4 
Starting Wavelength (Angstroms) ---  2950 
Final Wavelength (Angstoms) -------  2984 
Wavelength Increment (Angstroms) --  .25 
Filter Wheel #1 Position ---------- (1) Ground quartz diffuser (ND=2.32)
Filter Wheel #2 Position ---------- (1) Neutral Density 0.494



************************************************************
HS scan start time = 03:45:04
Dark Count =  4.4 


Time (GMT)  Wavelength (Ang)  Step Number  Raw Counts  Counts/Second

  225.43        2950.00           1233           8.00        15.69
  225.49        2950.25           1236           6.00         6.97
  225.52        2950.50           1239           5.00         2.62
  225.54        2950.75           1242           0.00         2.00
  225.57        2951.00           1246           4.00         2.00
  225.60        2951.25           1249           8.00        15.69
  225.62        2951.50           1252           8.00        15.69
  225.65        2951.75           1256           8.00        15.69
  225.68        2952.00           1259           8.00        15.69
  225.71        2952.25           1262           8.00        15.69
  225.73        2952.50           1266           5.00         2.62
  225.76        2952.75           1269           7.00        11.33
  225.79        2953.00           1272           6.00         6.97
  225.82        2953.25           1276           0.00         2.00
  225.84        2953.50           1279           0.00         2.00
  225.87        2953.75           1282           8.00        15.69
  225.90        2954.00           1286           8.00        15.69
  225.92        2954.25           1289           2.00         2.00
  225.95        2954.50           1292           2.00         2.00
  225.98        2954.75           1295           8.00        15.69
  226.00        2955.00           1299           4.00         2.00
  226.03        2955.25           1302           4.00         2.00
  226.06        2955.50           1305           8.00        15.69
  226.09        2955.75           1309           0.00         2.00
  226.11        2956.00           1312           2.00         2.00
  226.14        2956.25           1315           3.00         2.00
  226.17        2956.50           1319           0.00         2.00
  226.19        2956.75           1322           6.00         6.97
  226.22        2957.00           1325           3.00         2.00
  226.25        2957.25           1329           8.00        15.69
  226.28        2957.50           1332           7.00        11.33
  226.30        2957.75           1335           0.00         2.00
  226.33        2958.00           1339           6.00         6.97
  226.36        2958.25           1342           0.00         2.00
  226.38        2958.50           1345           0.00         2.00
  226.41        2958.75           1348           8.00        15.69
  226.44        2959.00           1352           8.00        15.69
  226.47        2959.25           1355           0.00         2.00
  226.49        2959.50           1358           0.00         2.00
  226.52        2959.75           1362           0.00         2.00
  226.55        2960.00           1365           8.00        15.69
  226.57        2960.25           1368           8.00        15.69
  226.60        2960.50           1372           0.00         2.00
  226.63        2960.75           1375           0.00         2.00
  226.66        2961.00           1378           8.00        15.69
  226.68        2961.25           1382           4.00         2.00
  226.71        2961.50           1385           4.00         2.00
  226.74        2961.75           1388           0.00         2.00
  226.76        2962.00           1392           0.00         2.00
  226.79        2962.25           1395           7.00        11.33
  226.82        2962.50           1398           1.00         2.00
  226.85        2962.75           1402           8.00        15.69
  226.87        2963.00           1405           0.00         2.00
  226.90        2963.25           1408           0.00         2.00
  226.93        2963.50           1412           0.00         2.00
  226.95        2963.75           1415           1.00         2.00
  226.98        2964.00           1418           0.00         2.00
  227.01        2964.25           1422           2.00         2.00
  227.03        2964.50           1425           8.00        15.69
  227.06        2964.75           1428           0.00         2.00
  227.09        2965.00           1431           7.00        11.33
  227.12        2965.25           1435           3.00         2.00
  227.14        2965.50           1438           8.00        15.69
  227.17        2965.75           1441           7.00        11.33
  227.20        2966.00           1445           7.00        11.33
  227.22        2966.25           1448           8.00        15.69
  227.25        2966.50           1451           4.00         2.00
  227.28        2966.75           1455           8.00        15.69
  227.31        2967.00           1458           0.00         2.00
  227.33        2967.25           1461           1.00         2.00
  227.36        2967.50           1465           0.00         2.00
  227.39        2967.75           1468           8.00        15.69
  227.41        2968.00           1471           2.00         2.00
  227.44        2968.25           1475           4.00         2.00
  227.47        2968.50           1478           4.00         2.00
  227.50        2968.75           1481           0.00         2.00
  227.52        2969.00           1485           8.00        15.69
  227.55        2969.25           1488           2.00         2.00
  227.58        2969.50           1491           0.00         2.00
  227.60        2969.75           1495           2.00         2.00
  227.63        2970.00           1498           0.00         2.00
  227.66        2970.25           1501           5.00         2.62
  227.69        2970.50           1505           8.00        15.69
  227.71        2970.75           1508           7.00        11.33
  227.74        2971.00           1511           0.00         2.00
  227.77        2971.25           1515           8.00        15.69
  227.79        2971.50           1518           3.00         2.00
  227.82        2971.75           1521           6.00         6.97
  227.85        2972.00           1525           0.00         2.00
  227.88        2972.25           1528           8.00        15.69
  227.90        2972.50           1531           4.00         2.00
  227.93        2972.75           1535           1.00         2.00
  227.96        2973.00           1538           1.00         2.00
  227.98        2973.25           1541           2.00         2.00
  228.01        2973.50           1545           0.00         2.00
  228.04        2973.75           1548           4.00         2.00
  228.07        2974.00           1551           8.00        15.69
  228.09        2974.25           1555           0.00         2.00
  228.12        2974.50           1558           5.00         2.62
  228.15        2974.75           1561           8.00        15.69
  228.17        2975.00           1565           8.00        15.69
  228.20        2975.25           1568           8.00        15.69
  228.23        2975.50           1571           1.00         2.00
  228.26        2975.75           1575           8.00        15.69
  228.28        2976.00           1578           6.00         6.97
  228.31        2976.25           1581           0.00         2.00
  228.34        2976.50           1585           8.00        15.69
  228.36        2976.75           1588           0.00         2.00
  228.39        2977.00           1591           0.00         2.00
  228.42        2977.25           1595           0.00         2.00
  228.45        2977.50           1598           5.00         2.62
  228.47        2977.75           1601           1.00         2.00
  228.50        2978.00           1605           8.00        15.69
  228.53        2978.25           1608           5.00         2.62
  228.55        2978.50           1611           7.00        11.33
  228.58        2978.75           1615           3.00         2.00
  228.61        2979.00           1618           8.00        15.69
  228.64        2979.25           1621           8.00        15.69
  228.66        2979.50           1625           2.00         2.00
  228.69        2979.75           1628           8.00        15.69
  228.72        2980.00           1631           8.00        15.69
  228.74        2980.25           1635           3.00         2.00
  228.77        2980.50           1638           0.00         2.00
  228.80        2980.75           1641           5.00         2.62
  228.82        2981.00           1645           8.00        15.69
  228.85        2981.25           1648           8.00        15.69
  228.88        2981.50           1651           8.00        15.69
  228.91        2981.75           1655           0.00         2.00
  228.93        2982.00           1658           0.00         2.00
  228.96        2982.25           1661           8.00        15.69
  228.99        2982.50           1665           5.00         2.62
  229.01        2982.75           1668           6.00         6.97
  229.04        2983.00           1671           7.00        11.33
  229.07        2983.25           1675           8.00        15.69
  229.10        2983.50           1678           8.00        15.69
  229.12        2983.75           1681           0.00         2.00
  229.15        2984.00           1685           7.00        11.33
HS scan finished at 03:49:20
end
