************************************************************
  HS Scan of (1) Internal mercury lamp
************************************************************
Integration time is 0.2294 seconds per sample
dh250219Tamanrasset 22.79-5.529 4.974364pr865
************************************************************
Dead Time -------------------------  2.8E-08 
Number of Cycles Used -------------  4 
Starting Wavelength (Angstroms) ---  2950 
Final Wavelength (Angstoms) -------  2984 
Wavelength Increment (Angstroms) --  .25 
Filter Wheel #1 Position ---------- (1) Ground quartz diffuser (ND=2.32)
Filter Wheel #2 Position ---------- (1) Neutral Density 0.494



************************************************************
HS scan start time = 04:15:26
Dark Count =  5.4 


Time (GMT)  Wavelength (Ang)  Step Number  Raw Counts  Counts/Second

  255.79        2950.00           1233          18.00        54.93
  255.85        2950.25           1236          16.00        46.21
  255.88        2950.50           1239          21.00        68.00
  255.90        2950.75           1242          15.00        41.85
  255.93        2951.00           1246          19.00        59.29
  255.96        2951.25           1249          17.00        50.57
  255.99        2951.50           1252          16.00        46.21
  256.01        2951.75           1256          20.00        63.64
  256.04        2952.00           1259          21.00        68.00
  256.07        2952.25           1262          21.00        68.00
  256.09        2952.50           1266          19.00        59.29
  256.12        2952.75           1269          19.00        59.29
  256.15        2953.00           1272          22.00        72.36
  256.18        2953.25           1276          19.00        59.29
  256.20        2953.50           1279          19.00        59.29
  256.23        2953.75           1282          19.00        59.29
  256.26        2954.00           1286          16.00        46.21
  256.28        2954.25           1289          20.00        63.64
  256.31        2954.50           1292          19.00        59.29
  256.34        2954.75           1295          19.00        59.29
  256.37        2955.00           1299          22.00        72.36
  256.39        2955.25           1302          18.00        54.93
  256.42        2955.50           1305          20.00        63.64
  256.45        2955.75           1309          16.00        46.21
  256.47        2956.00           1312          19.00        59.29
  256.50        2956.25           1315          19.00        59.29
  256.53        2956.50           1319          18.00        54.93
  256.56        2956.75           1322          20.00        63.64
  256.58        2957.00           1325          17.00        50.57
  256.61        2957.25           1329          21.00        68.00
  256.64        2957.50           1332          17.00        50.57
  256.66        2957.75           1335          23.00        76.72
  256.69        2958.00           1339          19.00        59.29
  256.72        2958.25           1342          18.00        54.93
  256.75        2958.50           1345          19.00        59.29
  256.77        2958.75           1348          20.00        63.64
  256.80        2959.00           1352          19.00        59.29
  256.83        2959.25           1355          14.00        37.49
  256.85        2959.50           1358          20.00        63.64
  256.88        2959.75           1362          22.00        72.36
  256.91        2960.00           1365          20.00        63.64
  256.94        2960.25           1368          25.00        85.44
  256.96        2960.50           1372          26.00        89.80
  256.99        2960.75           1375          33.00       120.31
  257.02        2961.00           1378          95.00       390.59
  257.05        2961.25           1382         477.00      2055.92
  257.07        2961.50           1385        1146.00      4972.79
  257.10        2961.75           1388        2266.00      9857.12
  257.13        2962.00           1392        4411.00     19215.22
  257.15        2962.25           1395        6366.00     27748.67
  257.18        2962.50           1398        8372.00     36508.97
  257.21        2962.75           1402       11149.00     48643.37
  257.24        2963.00           1405       13180.00     57523.26
  257.26        2963.25           1408       15270.00     66665.74
  257.29        2963.50           1412       17645.00     77060.61
  257.32        2963.75           1415       19953.00     87168.03
  257.35        2964.00           1418       22139.00     96746.47
  257.37        2964.25           1422       24909.00    108891.20
  257.40        2964.50           1425       26795.00    117164.90
  257.43        2964.75           1428       29217.00    127795.60
  257.45        2965.00           1431       31358.00    137198.20
  257.48        2965.25           1435       34043.00    148997.00
  257.51        2965.50           1438       36124.00    158146.90
  257.54        2965.75           1441       38332.00    167860.40
  257.56        2966.00           1445       41082.00    179965.60
  257.59        2966.25           1448       42612.00    186704.10
  257.62        2966.50           1451       43865.00    192224.50
  257.65        2966.75           1455       45236.00    198266.80
  257.67        2967.00           1458       45241.00    198288.80
  257.70        2967.25           1461       45396.00    198972.10
  257.73        2967.50           1465       45131.00    197803.90
  257.75        2967.75           1468       44800.00    196345.00
  257.78        2968.00           1471       43850.00    192158.40
  257.81        2968.25           1475       41856.00    183374.20
  257.84        2968.50           1478       40079.00    175549.60
  257.86        2968.75           1481       38024.00    166505.10
  257.89        2969.00           1485       35108.00    153679.10
  257.92        2969.25           1488       32847.00    143740.40
  257.95        2969.50           1491       30826.00    134861.40
  257.97        2969.75           1495       27905.00    122036.20
  258.00        2970.00           1498       25636.00    112080.10
  258.03        2970.25           1501       23728.00    103712.20
  258.06        2970.50           1505       20844.00     91071.52
  258.08        2970.75           1508       18552.00     81031.94
  258.11        2971.00           1511       16508.00     72083.44
  258.14        2971.25           1515       13756.00     60042.45
  258.16        2971.50           1518       11642.00     50798.45
  258.19        2971.75           1521        9551.00     41659.73
  258.22        2972.00           1525        6859.00     29901.22
  258.25        2972.25           1528        4913.00     21406.03
  258.27        2972.50           1531        3054.00     13294.40
  258.30        2972.75           1535        1278.00      5548.38
  258.33        2973.00           1538         540.00      2330.58
  258.36        2973.25           1541         165.00       695.74
  258.38        2973.50           1545          43.00       163.91
  258.41        2973.75           1548          36.00       133.39
  258.44        2974.00           1551          29.00       102.88
  258.46        2974.25           1555          30.00       107.24
  258.49        2974.50           1558          25.00        85.44
  258.52        2974.75           1561          22.00        72.36
  258.55        2975.00           1565          21.00        68.00
  258.57        2975.25           1568          19.00        59.29
  258.60        2975.50           1571          25.00        85.44
  258.63        2975.75           1575          22.00        72.36
  258.65        2976.00           1578          20.00        63.64
  258.68        2976.25           1581          22.00        72.36
  258.71        2976.50           1585          15.00        41.85
  258.74        2976.75           1588          23.00        76.72
  258.76        2977.00           1591          18.00        54.93
  258.79        2977.25           1595          22.00        72.36
  258.82        2977.50           1598          19.00        59.29
  258.85        2977.75           1601          20.00        63.64
  258.87        2978.00           1605          19.00        59.29
  258.90        2978.25           1608          19.00        59.29
  258.93        2978.50           1611          18.00        54.93
  258.95        2978.75           1615          23.00        76.72
  258.98        2979.00           1618          18.00        54.93
  259.01        2979.25           1621          17.00        50.57
  259.04        2979.50           1625          21.00        68.00
  259.06        2979.75           1628          21.00        68.00
  259.09        2980.00           1631          20.00        63.64
  259.12        2980.25           1635          19.00        59.29
  259.14        2980.50           1638          22.00        72.36
  259.17        2980.75           1641          21.00        68.00
  259.20        2981.00           1645          14.00        37.49
  259.23        2981.25           1648          20.00        63.64
  259.25        2981.50           1651          19.00        59.29
  259.28        2981.75           1655          17.00        50.57
  259.31        2982.00           1658          22.00        72.36
  259.33        2982.25           1661          20.00        63.64
  259.36        2982.50           1665          21.00        68.00
  259.39        2982.75           1668          15.00        41.85
  259.42        2983.00           1671          20.00        63.64
  259.44        2983.25           1675          20.00        63.64
  259.47        2983.50           1678          18.00        54.93
  259.50        2983.75           1681          15.00        41.85
  259.52        2984.00           1685          19.00        59.29
HS scan finished at 04:19:43
end
