************************************************************
  HS Scan of (1) Internal mercury lamp
************************************************************
Integration time is 0.2294 seconds per sample
dh200219Tamanrasset 22.79-5.529 4.974364pr865
************************************************************
Dead Time -------------------------  2.8E-08 
Number of Cycles Used -------------  4 
Starting Wavelength (Angstroms) ---  2950 
Final Wavelength (Angstoms) -------  2984 
Wavelength Increment (Angstroms) --  .25 
Filter Wheel #1 Position ---------- (1) Ground quartz diffuser (ND=2.32)
Filter Wheel #2 Position ---------- (1) Neutral Density 0.494



************************************************************
HS scan start time = 04:19:23
Dark Count =  4.5 


Time (GMT)  Wavelength (Ang)  Step Number  Raw Counts  Counts/Second

  259.74        2950.00           1233          24.00        85.00
  259.81        2950.25           1236          21.00        71.93
  259.83        2950.50           1239          20.00        67.57
  259.86        2950.75           1242          15.00        45.77
  259.89        2951.00           1246          20.00        67.57
  259.91        2951.25           1249          19.00        63.21
  259.94        2951.50           1252          22.00        76.29
  259.97        2951.75           1256          19.00        63.21
  260.00        2952.00           1259          20.00        67.57
  260.02        2952.25           1262          24.00        85.00
  260.05        2952.50           1266          20.00        67.57
  260.08        2952.75           1269          15.00        45.77
  260.10        2953.00           1272          17.00        54.49
  260.13        2953.25           1276          19.00        63.21
  260.16        2953.50           1279          20.00        67.57
  260.19        2953.75           1282          21.00        71.93
  260.21        2954.00           1286          16.00        50.13
  260.24        2954.25           1289          23.00        80.65
  260.27        2954.50           1292          18.00        58.85
  260.29        2954.75           1295          20.00        67.57
  260.32        2955.00           1299          19.00        63.21
  260.35        2955.25           1302          16.00        50.13
  260.38        2955.50           1305          19.00        63.21
  260.40        2955.75           1309          17.00        54.49
  260.43        2956.00           1312          16.00        50.13
  260.46        2956.25           1315          22.00        76.29
  260.48        2956.50           1319          20.00        67.57
  260.51        2956.75           1322          18.00        58.85
  260.54        2957.00           1325          19.00        63.21
  260.57        2957.25           1329          16.00        50.13
  260.59        2957.50           1332          20.00        67.57
  260.62        2957.75           1335          23.00        80.65
  260.65        2958.00           1339          24.00        85.00
  260.67        2958.25           1342          24.00        85.00
  260.70        2958.50           1345          14.00        41.41
  260.73        2958.75           1348          24.00        85.00
  260.76        2959.00           1352          21.00        71.93
  260.78        2959.25           1355          22.00        76.29
  260.81        2959.50           1358          21.00        71.93
  260.84        2959.75           1362          20.00        67.57
  260.86        2960.00           1365          22.00        76.29
  260.89        2960.25           1368          24.00        85.00
  260.92        2960.50           1372          31.00       115.52
  260.95        2960.75           1375          28.00       102.44
  260.97        2961.00           1378          71.00       289.89
  261.00        2961.25           1382         333.00      1432.05
  261.03        2961.50           1385         862.00      3738.40
  261.06        2961.75           1388        1844.00      8020.55
  261.08        2962.00           1392        3775.00     16443.92
  261.11        2962.25           1395        5719.00     24928.03
  261.14        2962.50           1398        7771.00     33887.85
  261.16        2962.75           1402       10524.00     45915.58
  261.19        2963.00           1405       12507.00     54584.24
  261.22        2963.25           1408       14699.00     64171.44
  261.25        2963.50           1412       17487.00     76372.83
  261.27        2963.75           1415       19586.00     85564.39
  261.30        2964.00           1418       21523.00     94050.76
  261.33        2964.25           1422       24359.00    106483.10
  261.36        2964.50           1425       26431.00    115571.70
  261.38        2964.75           1428       28605.00    125112.80
  261.41        2965.00           1431       30704.00    134329.50
  261.44        2965.25           1435       33695.00    147471.30
  261.47        2965.50           1438       35919.00    157249.30
  261.49        2965.75           1441       37993.00    166372.60
  261.52        2966.00           1445       40522.00    177503.80
  261.55        2966.25           1448       42351.00    185558.40
  261.57        2966.50           1451       43767.00    191796.70
  261.60        2966.75           1455       44833.00    196494.40
  261.63        2967.00           1458       45633.00    200020.80
  261.66        2967.25           1461       45493.00    199403.60
  261.68        2967.50           1465       45386.00    198931.90
  261.71        2967.75           1468       44912.00    196842.60
  261.74        2968.00           1471       44328.00    194268.80
  261.77        2968.25           1475       42343.00    185523.10
  261.79        2968.50           1478       40555.00    177649.10
  261.82        2968.75           1481       38431.00    168300.00
  261.85        2969.00           1485       35568.00    155705.70
  261.88        2969.25           1488       33265.00    145581.30
  261.90        2969.50           1491       31284.00    136877.10
  261.93        2969.75           1495       28015.00    122522.90
  261.96        2970.00           1498       26164.00    114400.30
  261.98        2970.25           1501       23929.00    104597.50
  262.01        2970.50           1505       20937.00     91482.94
  262.04        2970.75           1508       18816.00     82192.00
  262.07        2971.00           1511       16612.00     72542.58
  262.09        2971.25           1515       14027.00     61231.75
  262.12        2971.50           1518       11801.00     51497.49
  262.15        2971.75           1521        9776.00     42646.80
  262.18        2972.00           1525        7116.00     31027.38
  262.20        2972.25           1528        5098.00     22217.39
  262.23        2972.50           1531        3329.00     14498.04
  262.26        2972.75           1535        1470.00      6389.55
  262.29        2973.00           1538         608.00      2630.97
  262.31        2973.25           1541         190.00       808.65
  262.34        2973.50           1545          55.00       220.14
  262.37        2973.75           1548          32.00       119.88
  262.39        2974.00           1551          32.00       119.88
  262.42        2974.25           1555          27.00        98.08
  262.45        2974.50           1558          25.00        89.36
  262.48        2974.75           1561          23.00        80.65
  262.50        2975.00           1565          25.00        89.36
  262.53        2975.25           1568          25.00        89.36
  262.56        2975.50           1571          18.00        58.85
  262.58        2975.75           1575          20.00        67.57
  262.61        2976.00           1578          23.00        80.65
  262.64        2976.25           1581          20.00        67.57
  262.67        2976.50           1585          24.00        85.00
  262.69        2976.75           1588          21.00        71.93
  262.72        2977.00           1591          19.00        63.21
  262.75        2977.25           1595          17.00        54.49
  262.77        2977.50           1598          22.00        76.29
  262.80        2977.75           1601          15.00        45.77
  262.83        2978.00           1605          21.00        71.93
  262.86        2978.25           1608          20.00        67.57
  262.88        2978.50           1611          18.00        58.85
  262.91        2978.75           1615          21.00        71.93
  262.94        2979.00           1618          20.00        67.57
  262.96        2979.25           1621          22.00        76.29
  262.99        2979.50           1625          21.00        71.93
  263.02        2979.75           1628          19.00        63.21
  263.05        2980.00           1631          17.00        54.49
  263.07        2980.25           1635          19.00        63.21
  263.10        2980.50           1638          15.00        45.77
  263.13        2980.75           1641          21.00        71.93
  263.15        2981.00           1645          23.00        80.65
  263.18        2981.25           1648          22.00        76.29
  263.21        2981.50           1651          18.00        58.85
  263.24        2981.75           1655          18.00        58.85
  263.26        2982.00           1658          17.00        54.49
  263.29        2982.25           1661          20.00        67.57
  263.32        2982.50           1665          23.00        80.65
  263.34        2982.75           1668          20.00        67.57
  263.37        2983.00           1671          19.00        63.21
  263.40        2983.25           1675          18.00        58.85
  263.43        2983.50           1678          15.00        45.77
  263.45        2983.75           1681          19.00        63.21
  263.48        2984.00           1685          21.00        71.93
HS scan finished at 04:23:40
end
