************************************************************
  HS Scan of (1) Internal mercury lamp
************************************************************
Integration time is 0.2294 seconds per sample
dh260219Tamanrasset 22.79-5.529 4.974364pr865
************************************************************
Dead Time -------------------------  2.8E-08 
Number of Cycles Used -------------  4 
Starting Wavelength (Angstroms) ---  2950 
Final Wavelength (Angstoms) -------  2984 
Wavelength Increment (Angstroms) --  .25 
Filter Wheel #1 Position ---------- (1) Ground quartz diffuser (ND=2.32)
Filter Wheel #2 Position ---------- (1) Neutral Density 0.494



************************************************************
HS scan start time = 04:14:28
Dark Count =  5.3 


Time (GMT)  Wavelength (Ang)  Step Number  Raw Counts  Counts/Second

  254.83        2950.00           1233          24.00        81.52
  254.89        2950.25           1236          18.00        55.36
  254.92        2950.50           1239          19.00        59.72
  254.94        2950.75           1242          19.00        59.72
  254.97        2951.00           1246          15.00        42.28
  255.00        2951.25           1249          25.00        85.88
  255.03        2951.50           1252          16.00        46.64
  255.05        2951.75           1256          20.00        64.08
  255.08        2952.00           1259          20.00        64.08
  255.11        2952.25           1262          21.00        68.44
  255.13        2952.50           1266          20.00        64.08
  255.16        2952.75           1269          21.00        68.44
  255.19        2953.00           1272          20.00        64.08
  255.22        2953.25           1276          17.00        51.00
  255.24        2953.50           1279          19.00        59.72
  255.27        2953.75           1282          20.00        64.08
  255.30        2954.00           1286          19.00        59.72
  255.32        2954.25           1289          19.00        59.72
  255.35        2954.50           1292          19.00        59.72
  255.38        2954.75           1295          23.00        77.16
  255.41        2955.00           1299          20.00        64.08
  255.43        2955.25           1302          15.00        42.28
  255.46        2955.50           1305          17.00        51.00
  255.49        2955.75           1309          21.00        68.44
  255.51        2956.00           1312          19.00        59.72
  255.54        2956.25           1315          16.00        46.64
  255.57        2956.50           1319          18.00        55.36
  255.60        2956.75           1322          16.00        46.64
  255.62        2957.00           1325          22.00        72.80
  255.65        2957.25           1329          19.00        59.72
  255.68        2957.50           1332          20.00        64.08
  255.71        2957.75           1335          21.00        68.44
  255.73        2958.00           1339          18.00        55.36
  255.76        2958.25           1342          17.00        51.00
  255.79        2958.50           1345          18.00        55.36
  255.81        2958.75           1348          21.00        68.44
  255.84        2959.00           1352          15.00        42.28
  255.87        2959.25           1355          16.00        46.64
  255.89        2959.50           1358          19.00        59.72
  255.92        2959.75           1362          17.00        51.00
  255.95        2960.00           1365          17.00        51.00
  255.98        2960.25           1368          25.00        85.88
  256.00        2960.50           1372          29.00       103.31
  256.03        2960.75           1375          39.00       146.91
  256.06        2961.00           1378          52.00       203.58
  256.09        2961.25           1382         283.00      1210.59
  256.11        2961.50           1385         716.00      3098.35
  256.14        2961.75           1388        1648.00      7162.29
  256.17        2962.00           1392        3375.00     14695.24
  256.19        2962.25           1395        5153.00     22453.96
  256.22        2962.50           1398        7315.00     31892.90
  256.25        2962.75           1402        9948.00     43394.90
  256.28        2963.00           1405       11917.00     52001.12
  256.30        2963.25           1408       14042.00     61293.86
  256.33        2963.50           1412       16666.00     72775.43
  256.36        2963.75           1415       18651.00     81465.91
  256.39        2964.00           1418       20734.00     90590.00
  256.41        2964.25           1422       23540.00    102888.40
  256.44        2964.50           1425       25414.00    111106.70
  256.47        2964.75           1428       27514.00    120320.60
  256.50        2965.00           1431       29803.00    130369.10
  256.52        2965.25           1435       32507.00    142246.80
  256.55        2965.50           1438       34719.00    151969.20
  256.58        2965.75           1441       36686.00    160619.20
  256.60        2966.00           1445       39471.00    172873.60
  256.63        2966.25           1448       41469.00    181670.30
  256.66        2966.50           1451       43152.00    189083.40
  256.69        2966.75           1455       44273.00    194022.90
  256.71        2967.00           1458       44788.00    196292.60
  256.74        2967.25           1461       44920.00    196874.40
  256.77        2967.50           1465       45194.00    198082.10
  256.80        2967.75           1468       44824.00    196451.20
  256.82        2968.00           1471       44298.00    194133.00
  256.85        2968.25           1475       42870.00    187841.10
  256.88        2968.50           1478       40893.00    179133.80
  256.91        2968.75           1481       39249.00    171896.40
  256.93        2969.00           1485       36226.00    158595.90
  256.96        2969.25           1488       34041.00    148988.60
  256.99        2969.50           1491       31903.00    139592.90
  257.01        2969.75           1495       28964.00    126685.30
  257.04        2970.00           1498       26753.00    116981.10
  257.07        2970.25           1501       24648.00    107747.00
  257.10        2970.50           1505       21964.00     95979.91
  257.12        2970.75           1508       19941.00     87115.91
  257.15        2971.00           1511       17763.00     77577.66
  257.18        2971.25           1515       14901.00     65051.69
  257.21        2971.50           1518       12817.00     55936.28
  257.23        2971.75           1521       10599.00     46239.87
  257.26        2972.00           1525        7984.00     34814.66
  257.29        2972.25           1528        5987.00     26094.47
  257.31        2972.50           1531        4063.00     17697.09
  257.34        2972.75           1535        1889.00      8213.31
  257.37        2973.00           1538         892.00      3865.72
  257.40        2973.25           1541         345.00      1480.88
  257.42        2973.50           1545          69.00       277.68
  257.45        2973.75           1548          39.00       146.91
  257.48        2974.00           1551          30.00       107.67
  257.51        2974.25           1555          29.00       103.31
  257.53        2974.50           1558          25.00        85.88
  257.56        2974.75           1561          21.00        68.44
  257.59        2975.00           1565          23.00        77.16
  257.61        2975.25           1568          15.00        42.28
  257.64        2975.50           1571          20.00        64.08
  257.67        2975.75           1575          18.00        55.36
  257.70        2976.00           1578          22.00        72.80
  257.72        2976.25           1581          15.00        42.28
  257.75        2976.50           1585          16.00        46.64
  257.78        2976.75           1588          23.00        77.16
  257.81        2977.00           1591          19.00        59.72
  257.83        2977.25           1595          22.00        72.80
  257.86        2977.50           1598          23.00        77.16
  257.89        2977.75           1601          20.00        64.08
  257.91        2978.00           1605          16.00        46.64
  257.94        2978.25           1608          22.00        72.80
  257.97        2978.50           1611          18.00        55.36
  258.00        2978.75           1615          21.00        68.44
  258.02        2979.00           1618          20.00        64.08
  258.05        2979.25           1621          25.00        85.88
  258.08        2979.50           1625          19.00        59.72
  258.10        2979.75           1628          20.00        64.08
  258.13        2980.00           1631          21.00        68.44
  258.16        2980.25           1635          19.00        59.72
  258.19        2980.50           1638          20.00        64.08
  258.21        2980.75           1641          21.00        68.44
  258.24        2981.00           1645          22.00        72.80
  258.27        2981.25           1648          21.00        68.44
  258.29        2981.50           1651          22.00        72.80
  258.32        2981.75           1655          24.00        81.52
  258.35        2982.00           1658          18.00        55.36
  258.37        2982.25           1661          18.00        55.36
  258.40        2982.50           1665          21.00        68.44
  258.43        2982.75           1668          15.00        42.28
  258.46        2983.00           1671          19.00        59.72
  258.48        2983.25           1675          19.00        59.72
  258.51        2983.50           1678          18.00        55.36
  258.54        2983.75           1681          17.00        51.00
  258.56        2984.00           1685          18.00        55.36
HS scan finished at 04:18:45
end
