************************************************************
  HS Scan of (1) Internal mercury lamp
************************************************************
Integration time is 0.2294 seconds per sample
dh280219Tamanrasset 22.79-5.529 4.974364pr865
************************************************************
Dead Time -------------------------  2.8E-08 
Number of Cycles Used -------------  4 
Starting Wavelength (Angstroms) ---  2950 
Final Wavelength (Angstoms) -------  2984 
Wavelength Increment (Angstroms) --  .25 
Filter Wheel #1 Position ---------- (1) Ground quartz diffuser (ND=2.32)
Filter Wheel #2 Position ---------- (1) Neutral Density 0.494



************************************************************
HS scan start time = 04:12:43
Dark Count =  2.3 


Time (GMT)  Wavelength (Ang)  Step Number  Raw Counts  Counts/Second

  253.07        2950.00           1233          21.00        81.52
  253.13        2950.25           1236          22.00        85.88
  253.16        2950.50           1239          18.00        68.44
  253.19        2950.75           1242          21.00        81.52
  253.22        2951.00           1246          20.00        77.16
  253.24        2951.25           1249          20.00        77.16
  253.27        2951.50           1252          20.00        77.16
  253.30        2951.75           1256          19.00        72.80
  253.32        2952.00           1259          20.00        77.16
  253.35        2952.25           1262          16.00        59.72
  253.38        2952.50           1266          19.00        72.80
  253.41        2952.75           1269          21.00        81.52
  253.43        2953.00           1272          18.00        68.44
  253.46        2953.25           1276          22.00        85.88
  253.49        2953.50           1279          19.00        72.80
  253.51        2953.75           1282          17.00        64.08
  253.54        2954.00           1286          20.00        77.16
  253.57        2954.25           1289          18.00        68.44
  253.60        2954.50           1292          22.00        85.88
  253.62        2954.75           1295          23.00        90.24
  253.65        2955.00           1299          16.00        59.72
  253.68        2955.25           1302          18.00        68.44
  253.70        2955.50           1305          21.00        81.52
  253.73        2955.75           1309          21.00        81.52
  253.76        2956.00           1312          17.00        64.08
  253.79        2956.25           1315          21.00        81.52
  253.81        2956.50           1319          18.00        68.44
  253.84        2956.75           1322          23.00        90.24
  253.87        2957.00           1325          18.00        68.44
  253.89        2957.25           1329          20.00        77.16
  253.92        2957.50           1332          21.00        81.52
  253.95        2957.75           1335          16.00        59.72
  253.98        2958.00           1339          18.00        68.44
  254.00        2958.25           1342          18.00        68.44
  254.03        2958.50           1345          18.00        68.44
  254.06        2958.75           1348          18.00        68.44
  254.08        2959.00           1352          16.00        59.72
  254.11        2959.25           1355          20.00        77.16
  254.14        2959.50           1358          22.00        85.88
  254.17        2959.75           1362          21.00        81.52
  254.19        2960.00           1365          25.00        98.95
  254.22        2960.25           1368          27.00       107.67
  254.25        2960.50           1372          27.00       107.67
  254.27        2960.75           1375          33.00       133.83
  254.30        2961.00           1378          64.00       268.96
  254.33        2961.25           1382         295.00      1275.98
  254.36        2961.50           1385         826.00      3591.03
  254.38        2961.75           1388        1799.00      7833.89
  254.41        2962.00           1392        3782.00     16484.07
  254.44        2962.25           1395        5607.00     24448.73
  254.47        2962.50           1398        7738.00     33753.34
  254.49        2962.75           1402       10367.00     45239.05
  254.52        2963.00           1405       12469.00     54427.70
  254.55        2963.25           1408       14586.00     63686.71
  254.57        2963.50           1412       17166.00     74977.20
  254.60        2963.75           1415       19165.00     83730.07
  254.63        2964.00           1418       21294.00     93056.89
  254.66        2964.25           1422       24000.00    104918.50
  254.68        2964.50           1425       26256.00    114813.60
  254.71        2964.75           1428       28366.00    124073.30
  254.74        2965.00           1431       30366.00    132854.70
  254.77        2965.25           1435       33176.00    145199.90
  254.79        2965.50           1438       35307.00    154567.70
  254.82        2965.75           1441       37470.00    164081.20
  254.85        2966.00           1445       40223.00    176197.10
  254.87        2966.25           1448       42019.00    184105.70
  254.90        2966.50           1451       43399.00    190184.90
  254.93        2966.75           1455       44592.00    195441.90
  254.96        2967.00           1458       44866.00    196649.60
  254.98        2967.25           1461       45150.00    197901.40
  255.01        2967.50           1465       44954.00    197037.40
  255.04        2967.75           1468       44987.00    197182.90
  255.07        2968.00           1471       43945.00    192590.70
  255.09        2968.25           1475       42269.00    185206.90
  255.12        2968.50           1478       40361.00    176804.70
  255.15        2968.75           1481       38474.00    168498.90
  255.18        2969.00           1485       35795.00    156713.60
  255.20        2969.25           1488       33147.00    145072.40
  255.23        2969.50           1491       31177.00    136416.80
  255.26        2969.75           1495       28382.00    124143.50
  255.28        2970.00           1498       26237.00    114730.20
  255.31        2970.25           1501       24216.00    105865.70
  255.34        2970.50           1505       21360.00     93346.09
  255.37        2970.75           1508       19216.00     83953.44
  255.39        2971.00           1511       16984.00     74180.51
  255.42        2971.25           1515       14180.00     61910.63
  255.45        2971.50           1518       12188.00     53199.07
  255.48        2971.75           1521       10262.00     44780.18
  255.50        2972.00           1525        7435.00     32430.05
  255.53        2972.25           1528        5399.00     23540.80
  255.56        2972.50           1531        3511.00     15301.67
  255.58        2972.75           1535        1523.00      6630.26
  255.61        2973.00           1538         662.00      2875.99
  255.64        2973.25           1541         232.00      1001.34
  255.67        2973.50           1545          52.00       216.65
  255.69        2973.75           1548          37.00       151.26
  255.72        2974.00           1551          32.00       129.47
  255.75        2974.25           1555          27.00       107.67
  255.77        2974.50           1558          20.00        77.16
  255.80        2974.75           1561          19.00        72.80
  255.83        2975.00           1565          19.00        72.80
  255.86        2975.25           1568          21.00        81.52
  255.88        2975.50           1571          24.00        94.59
  255.91        2975.75           1575          17.00        64.08
  255.94        2976.00           1578          19.00        72.80
  255.96        2976.25           1581          17.00        64.08
  255.99        2976.50           1585          22.00        85.88
  256.02        2976.75           1588          19.00        72.80
  256.05        2977.00           1591          22.00        85.88
  256.07        2977.25           1595          20.00        77.16
  256.10        2977.50           1598          23.00        90.24
  256.13        2977.75           1601          19.00        72.80
  256.15        2978.00           1605          20.00        77.16
  256.18        2978.25           1608          20.00        77.16
  256.21        2978.50           1611          19.00        72.80
  256.24        2978.75           1615          21.00        81.52
  256.26        2979.00           1618          21.00        81.52
  256.29        2979.25           1621          18.00        68.44
  256.32        2979.50           1625          20.00        77.16
  256.34        2979.75           1628          19.00        72.80
  256.37        2980.00           1631          24.00        94.59
  256.40        2980.25           1635          20.00        77.16
  256.43        2980.50           1638          24.00        94.59
  256.45        2980.75           1641          17.00        64.08
  256.48        2981.00           1645          17.00        64.08
  256.51        2981.25           1648          24.00        94.59
  256.53        2981.50           1651          22.00        85.88
  256.56        2981.75           1655          22.00        85.88
  256.59        2982.00           1658          18.00        68.44
  256.62        2982.25           1661          19.00        72.80
  256.64        2982.50           1665          17.00        64.08
  256.67        2982.75           1668          21.00        81.52
  256.70        2983.00           1671          21.00        81.52
  256.72        2983.25           1675          17.00        64.08
  256.75        2983.50           1678          22.00        85.88
  256.78        2983.75           1681          13.00        46.64
  256.81        2984.00           1685          19.00        72.80
HS scan finished at 04:17:00
end
