************************************************************
  HS Scan of (1) Internal mercury lamp
************************************************************
Integration time is 0.2294 seconds per sample
dh240219Tamanrasset 22.79-5.529 4.974364pr865
************************************************************
Dead Time -------------------------  2.8E-08 
Number of Cycles Used -------------  4 
Starting Wavelength (Angstroms) ---  2950 
Final Wavelength (Angstoms) -------  2984 
Wavelength Increment (Angstroms) --  .25 
Filter Wheel #1 Position ---------- (1) Ground quartz diffuser (ND=2.32)
Filter Wheel #2 Position ---------- (1) Neutral Density 0.494



************************************************************
HS scan start time = 04:15:23
Dark Count =  5 


Time (GMT)  Wavelength (Ang)  Step Number  Raw Counts  Counts/Second

  255.74        2950.00           1233          18.00        56.67
  255.80        2950.25           1236          18.00        56.67
  255.83        2950.50           1239          16.00        47.95
  255.86        2950.75           1242          18.00        56.67
  255.89        2951.00           1246          13.00        34.87
  255.91        2951.25           1249          21.00        69.75
  255.94        2951.50           1252          16.00        47.95
  255.97        2951.75           1256          15.00        43.59
  255.99        2952.00           1259          17.00        52.31
  256.02        2952.25           1262          17.00        52.31
  256.05        2952.50           1266          20.00        65.39
  256.07        2952.75           1269          20.00        65.39
  256.10        2953.00           1272          20.00        65.39
  256.13        2953.25           1276          18.00        56.67
  256.16        2953.50           1279          21.00        69.75
  256.18        2953.75           1282          20.00        65.39
  256.21        2954.00           1286          22.00        74.11
  256.24        2954.25           1289          18.00        56.67
  256.27        2954.50           1292          15.00        43.59
  256.29        2954.75           1295          14.00        39.23
  256.32        2955.00           1299          18.00        56.67
  256.35        2955.25           1302          19.00        61.03
  256.37        2955.50           1305          14.00        39.23
  256.40        2955.75           1309          16.00        47.95
  256.43        2956.00           1312          18.00        56.67
  256.46        2956.25           1315          17.00        52.31
  256.48        2956.50           1319          19.00        61.03
  256.51        2956.75           1322          19.00        61.03
  256.54        2957.00           1325          17.00        52.31
  256.56        2957.25           1329          19.00        61.03
  256.59        2957.50           1332          18.00        56.67
  256.62        2957.75           1335          19.00        61.03
  256.65        2958.00           1339          17.00        52.31
  256.67        2958.25           1342          22.00        74.11
  256.70        2958.50           1345          19.00        61.03
  256.73        2958.75           1348          18.00        56.67
  256.75        2959.00           1352          20.00        65.39
  256.78        2959.25           1355          20.00        65.39
  256.81        2959.50           1358          21.00        69.75
  256.84        2959.75           1362          20.00        65.39
  256.86        2960.00           1365          16.00        47.95
  256.89        2960.25           1368          19.00        61.03
  256.92        2960.50           1372          29.00       104.62
  256.94        2960.75           1375          29.00       104.62
  256.97        2961.00           1378          53.00       209.24
  257.00        2961.25           1382         287.00      1229.34
  257.03        2961.50           1385         741.00      3208.66
  257.05        2961.75           1388        1665.00      7237.74
  257.08        2962.00           1392        3568.00     15538.58
  257.11        2962.25           1395        5327.00     23214.74
  257.13        2962.50           1398        7224.00     31496.82
  257.16        2962.75           1402        9986.00     43562.26
  257.19        2963.00           1405       11996.00     52347.82
  257.22        2963.25           1408       14103.00     61562.00
  257.24        2963.50           1412       16819.00     73446.45
  257.27        2963.75           1415       18729.00     81808.81
  257.30        2964.00           1418       20758.00     90696.47
  257.33        2964.25           1422       23685.00    103525.50
  257.35        2964.50           1425       25522.00    111581.70
  257.38        2964.75           1428       27884.00    121945.80
  257.41        2965.00           1431       30106.00    131701.00
  257.44        2965.25           1435       33081.00    144770.50
  257.46        2965.50           1438       34987.00    153148.80
  257.49        2965.75           1441       37395.00    163739.40
  257.52        2966.00           1445       39804.00    174340.70
  257.54        2966.25           1448       41763.00    182966.40
  257.57        2966.50           1451       43309.00    189776.50
  257.60        2966.75           1455       44606.00    195491.80
  257.63        2967.00           1458       45024.00    197334.10
  257.65        2967.25           1461       45210.00    198153.90
  257.68        2967.50           1465       45139.00    197841.00
  257.71        2967.75           1468       45064.00    197510.40
  257.74        2968.00           1471       44329.00    194271.00
  257.76        2968.25           1475       42723.00    187194.80
  257.79        2968.50           1478       40785.00    178659.60
  257.82        2968.75           1481       38840.00    170097.70
  257.85        2969.00           1485       35954.00    157401.00
  257.87        2969.25           1488       33722.00    147587.70
  257.90        2969.50           1491       31604.00    138280.70
  257.93        2969.75           1495       28731.00    125663.70
  257.95        2970.00           1498       26451.00    115657.30
  257.98        2970.25           1501       24405.00    106682.60
  258.01        2970.50           1505       21455.00     93750.57
  258.04        2970.75           1508       19463.00     85023.44
  258.06        2971.00           1511       17209.00     75153.63
  258.09        2971.25           1515       14266.00     62275.02
  258.12        2971.50           1518       12384.00     54044.24
  258.15        2971.75           1521       10262.00     44768.38
  258.17        2972.00           1525        7460.00     32527.43
  258.20        2972.25           1528        5427.00     23651.23
  258.23        2972.50           1531        3530.00     15372.79
  258.26        2972.75           1535        1627.00      7072.02
  258.28        2973.00           1538         700.00      3029.90
  258.31        2973.25           1541         260.00      1111.63
  258.34        2973.50           1545          64.00       257.19
  258.36        2973.75           1548          36.00       135.14
  258.39        2974.00           1551          42.00       161.29
  258.42        2974.25           1555          29.00       104.62
  258.45        2974.50           1558          28.00       100.26
  258.47        2974.75           1561          25.00        87.18
  258.50        2975.00           1565          24.00        82.82
  258.53        2975.25           1568          20.00        65.39
  258.55        2975.50           1571          18.00        56.67
  258.58        2975.75           1575          23.00        78.47
  258.61        2976.00           1578          19.00        61.03
  258.64        2976.25           1581          19.00        61.03
  258.66        2976.50           1585          22.00        74.11
  258.69        2976.75           1588          17.00        52.31
  258.72        2977.00           1591          16.00        47.95
  258.74        2977.25           1595          20.00        65.39
  258.77        2977.50           1598          17.00        52.31
  258.80        2977.75           1601          19.00        61.03
  258.83        2978.00           1605          17.00        52.31
  258.85        2978.25           1608          18.00        56.67
  258.88        2978.50           1611          20.00        65.39
  258.91        2978.75           1615          24.00        82.82
  258.93        2979.00           1618          20.00        65.39
  258.96        2979.25           1621          17.00        52.31
  258.99        2979.50           1625          17.00        52.31
  259.02        2979.75           1628          21.00        69.75
  259.04        2980.00           1631          18.00        56.67
  259.07        2980.25           1635          17.00        52.31
  259.10        2980.50           1638          17.00        52.31
  259.12        2980.75           1641          17.00        52.31
  259.15        2981.00           1645          19.00        61.03
  259.18        2981.25           1648          19.00        61.03
  259.21        2981.50           1651          16.00        47.95
  259.23        2981.75           1655          20.00        65.39
  259.26        2982.00           1658          21.00        69.75
  259.29        2982.25           1661          19.00        61.03
  259.31        2982.50           1665          17.00        52.31
  259.34        2982.75           1668          18.00        56.67
  259.37        2983.00           1671          21.00        69.75
  259.40        2983.25           1675          18.00        56.67
  259.42        2983.50           1678          16.00        47.95
  259.45        2983.75           1681          17.00        52.31
  259.48        2984.00           1685          20.00        65.39
HS scan finished at 04:19:40
end
