************************************************************
  HS Scan of (1) Internal mercury lamp
************************************************************
Integration time is 0.2294 seconds per sample
dh060319Tamanrasset 22.79-5.529 4.974364pr865
************************************************************
Dead Time -------------------------  2.8E-08 
Number of Cycles Used -------------  4 
Starting Wavelength (Angstroms) ---  2950 
Final Wavelength (Angstoms) -------  2984 
Wavelength Increment (Angstroms) --  .25 
Filter Wheel #1 Position ---------- (1) Ground quartz diffuser (ND=2.32)
Filter Wheel #2 Position ---------- (1) Neutral Density 0.494



************************************************************
HS scan start time = 04:07:43
Dark Count =  5.6 


Time (GMT)  Wavelength (Ang)  Step Number  Raw Counts  Counts/Second

  248.08        2950.00           1233          18.00        54.05
  248.14        2950.25           1236          20.00        62.77
  248.17        2950.50           1239          22.00        71.49
  248.19        2950.75           1242          21.00        67.13
  248.22        2951.00           1246          17.00        49.69
  248.25        2951.25           1249          21.00        67.13
  248.28        2951.50           1252          23.00        75.85
  248.30        2951.75           1256          18.00        54.05
  248.33        2952.00           1259          23.00        75.85
  248.36        2952.25           1262          22.00        71.49
  248.39        2952.50           1266          18.00        54.05
  248.41        2952.75           1269          19.00        58.41
  248.44        2953.00           1272          19.00        58.41
  248.47        2953.25           1276          22.00        71.49
  248.49        2953.50           1279          18.00        54.05
  248.52        2953.75           1282          17.00        49.69
  248.55        2954.00           1286          17.00        49.69
  248.57        2954.25           1289          18.00        54.05
  248.60        2954.50           1292          15.00        40.98
  248.63        2954.75           1295          23.00        75.85
  248.66        2955.00           1299          23.00        75.85
  248.68        2955.25           1302          21.00        67.13
  248.71        2955.50           1305          19.00        58.41
  248.74        2955.75           1309          21.00        67.13
  248.77        2956.00           1312          20.00        62.77
  248.79        2956.25           1315          19.00        58.41
  248.82        2956.50           1319          20.00        62.77
  248.85        2956.75           1322          16.00        45.34
  248.87        2957.00           1325          19.00        58.41
  248.90        2957.25           1329          19.00        58.41
  248.93        2957.50           1332          20.00        62.77
  248.96        2957.75           1335          21.00        67.13
  248.98        2958.00           1339          20.00        62.77
  249.01        2958.25           1342          20.00        62.77
  249.04        2958.50           1345          16.00        45.34
  249.06        2958.75           1348          21.00        67.13
  249.09        2959.00           1352          19.00        58.41
  249.12        2959.25           1355          19.00        58.41
  249.15        2959.50           1358          26.00        88.93
  249.17        2959.75           1362          17.00        49.69
  249.20        2960.00           1365          27.00        93.29
  249.23        2960.25           1368          31.00       110.72
  249.25        2960.50           1372          30.00       106.36
  249.28        2960.75           1375          39.00       145.60
  249.31        2961.00           1378          62.00       245.86
  249.34        2961.25           1382         315.00      1348.79
  249.36        2961.50           1385         780.00      3376.08
  249.39        2961.75           1388        1733.00      7531.67
  249.42        2962.00           1392        3707.00     16142.43
  249.45        2962.25           1395        5392.00     23495.84
  249.47        2962.50           1398        7434.00     32411.27
  249.50        2962.75           1402       10071.00     43931.08
  249.53        2963.00           1405       12084.00     52729.94
  249.55        2963.25           1408       14087.00     61489.39
  249.58        2963.50           1412       16853.00     73592.65
  249.61        2963.75           1415       18962.00     82826.57
  249.64        2964.00           1418       21048.00     91964.50
  249.66        2964.25           1422       23905.00    104487.50
  249.69        2964.50           1425       25803.00    112811.80
  249.72        2964.75           1428       28053.00    122684.90
  249.75        2965.00           1431       30310.00    132594.20
  249.77        2965.25           1435       33115.00    144917.30
  249.80        2965.50           1438       35389.00    154913.70
  249.83        2965.75           1441       37240.00    163054.90
  249.85        2966.00           1445       40325.00    176631.60
  249.88        2966.25           1448       41992.00    183972.30
  249.91        2966.50           1451       43349.00    189950.10
  249.94        2966.75           1455       44375.00    194471.10
  249.96        2967.00           1458       45019.00    197309.40
  249.99        2967.25           1461       45080.00    197578.30
  250.02        2967.50           1465       45021.00    197318.20
  250.05        2967.75           1468       44628.00    195586.10
  250.07        2968.00           1471       43980.00    192730.40
  250.10        2968.25           1475       42117.00    184522.80
  250.13        2968.50           1478       40448.00    177173.20
  250.16        2968.75           1481       38378.00    168061.90
  250.18        2969.00           1485       35710.00    156325.30
  250.21        2969.25           1488       33192.00    145255.70
  250.24        2969.50           1491       31432.00    137522.40
  250.27        2969.75           1495       28564.00    124928.00
  250.29        2970.00           1498       26432.00    115571.30
  250.32        2970.25           1501       24229.00    105908.20
  250.35        2970.50           1505       21370.00     93375.46
  250.37        2970.75           1508       19316.00     84376.97
  250.40        2971.00           1511       17255.00     75352.38
  250.43        2971.25           1515       14290.00     62377.39
  250.46        2971.50           1518       12243.00     53425.11
  250.48        2971.75           1521       10256.00     44739.53
  250.51        2972.00           1525        7504.00     32716.97
  250.54        2972.25           1528        5377.00     23430.36
  250.57        2972.50           1531        3629.00     15802.11
  250.59        2972.75           1535        1592.00      6916.77
  250.62        2973.00           1538         720.00      3114.48
  250.65        2973.25           1541         236.00      1004.39
  250.67        2973.50           1545          57.00       224.06
  250.70        2973.75           1548          35.00       128.16
  250.73        2974.00           1551          32.00       115.08
  250.76        2974.25           1555          26.00        88.93
  250.78        2974.50           1558          22.00        71.49
  250.81        2974.75           1561          29.00       102.01
  250.84        2975.00           1565          24.00        80.21
  250.86        2975.25           1568          21.00        67.13
  250.89        2975.50           1571          18.00        54.05
  250.92        2975.75           1575          21.00        67.13
  250.95        2976.00           1578          18.00        54.05
  250.97        2976.25           1581          19.00        58.41
  251.00        2976.50           1585          17.00        49.69
  251.03        2976.75           1588          22.00        71.49
  251.05        2977.00           1591          21.00        67.13
  251.08        2977.25           1595          18.00        54.05
  251.11        2977.50           1598          19.00        58.41
  251.14        2977.75           1601          22.00        71.49
  251.16        2978.00           1605          21.00        67.13
  251.19        2978.25           1608          20.00        62.77
  251.22        2978.50           1611          17.00        49.69
  251.24        2978.75           1615          22.00        71.49
  251.27        2979.00           1618          22.00        71.49
  251.30        2979.25           1621          21.00        67.13
  251.33        2979.50           1625          22.00        71.49
  251.35        2979.75           1628          20.00        62.77
  251.38        2980.00           1631          22.00        71.49
  251.41        2980.25           1635          23.00        75.85
  251.43        2980.50           1638          20.00        62.77
  251.46        2980.75           1641          17.00        49.69
  251.49        2981.00           1645          13.00        32.26
  251.52        2981.25           1648          24.00        80.21
  251.54        2981.50           1651          17.00        49.69
  251.57        2981.75           1655          21.00        67.13
  251.60        2982.00           1658          19.00        58.41
  251.62        2982.25           1661          19.00        58.41
  251.65        2982.50           1665          23.00        75.85
  251.68        2982.75           1668          20.00        62.77
  251.71        2983.00           1671          17.00        49.69
  251.73        2983.25           1675          17.00        49.69
  251.76        2983.50           1678          18.00        54.05
  251.79        2983.75           1681          20.00        62.77
  251.81        2984.00           1685          19.00        58.41
HS scan finished at 04:12:00
end
