************************************************************
  HS Scan of (1) Internal mercury lamp
************************************************************
Integration time is 0.2294 seconds per sample
dh080319Tamanrasset 22.79-5.529 4.974364pr865
************************************************************
Dead Time -------------------------  2.8E-08 
Number of Cycles Used -------------  4 
Starting Wavelength (Angstroms) ---  2950 
Final Wavelength (Angstoms) -------  2984 
Wavelength Increment (Angstroms) --  .25 
Filter Wheel #1 Position ---------- (1) Ground quartz diffuser (ND=2.32)
Filter Wheel #2 Position ---------- (1) Neutral Density 0.494



************************************************************
HS scan start time = 04:06:15
Dark Count =  5.1 


Time (GMT)  Wavelength (Ang)  Step Number  Raw Counts  Counts/Second

  246.60        2950.00           1233          21.00        69.31
  246.67        2950.25           1236          14.00        38.80
  246.69        2950.50           1239          19.00        60.59
  246.72        2950.75           1242          20.00        64.95
  246.75        2951.00           1246          20.00        64.95
  246.78        2951.25           1249          20.00        64.95
  246.80        2951.50           1252          22.00        73.67
  246.83        2951.75           1256          14.00        38.80
  246.86        2952.00           1259          19.00        60.59
  246.88        2952.25           1262          20.00        64.95
  246.91        2952.50           1266          21.00        69.31
  246.94        2952.75           1269          21.00        69.31
  246.97        2953.00           1272          18.00        56.23
  246.99        2953.25           1276          20.00        64.95
  247.02        2953.50           1279          16.00        47.52
  247.05        2953.75           1282          17.00        51.87
  247.07        2954.00           1286          16.00        47.52
  247.10        2954.25           1289          21.00        69.31
  247.13        2954.50           1292          18.00        56.23
  247.16        2954.75           1295          20.00        64.95
  247.18        2955.00           1299          21.00        69.31
  247.21        2955.25           1302          21.00        69.31
  247.24        2955.50           1305          21.00        69.31
  247.26        2955.75           1309          18.00        56.23
  247.29        2956.00           1312          20.00        64.95
  247.32        2956.25           1315          19.00        60.59
  247.35        2956.50           1319          17.00        51.87
  247.37        2956.75           1322          20.00        64.95
  247.40        2957.00           1325          18.00        56.23
  247.43        2957.25           1329          20.00        64.95
  247.45        2957.50           1332          22.00        73.67
  247.48        2957.75           1335          21.00        69.31
  247.51        2958.00           1339          22.00        73.67
  247.54        2958.25           1342          19.00        60.59
  247.56        2958.50           1345          19.00        60.59
  247.59        2958.75           1348          18.00        56.23
  247.62        2959.00           1352          18.00        56.23
  247.64        2959.25           1355          20.00        64.95
  247.67        2959.50           1358          20.00        64.95
  247.70        2959.75           1362          20.00        64.95
  247.73        2960.00           1365          22.00        73.67
  247.75        2960.25           1368          25.00        86.75
  247.78        2960.50           1372          35.00       130.34
  247.81        2960.75           1375          30.00       108.54
  247.83        2961.00           1378          75.00       304.71
  247.86        2961.25           1382         402.00      1730.25
  247.89        2961.50           1385        1004.00      4354.93
  247.92        2961.75           1388        1949.00      8475.86
  247.94        2962.00           1392        4085.00     17793.96
  247.97        2962.25           1395        6022.00     26248.14
  248.00        2962.50           1398        8096.00     35304.72
  248.03        2962.75           1402       10806.00     47145.46
  248.05        2963.00           1405       12854.00     56098.96
  248.08        2963.25           1408       14918.00     65126.94
  248.11        2963.50           1412       17534.00     76575.96
  248.13        2963.75           1415       19581.00     85539.86
  248.16        2964.00           1418       21722.00     94920.21
  248.19        2964.25           1422       24281.00    106138.40
  248.22        2964.50           1425       26531.00    116007.90
  248.24        2964.75           1428       28650.00    125307.70
  248.27        2965.00           1431       30660.00    134133.60
  248.30        2965.25           1435       33534.00    146761.00
  248.33        2965.50           1438       35720.00    156371.50
  248.35        2965.75           1441       37785.00    165454.80
  248.38        2966.00           1445       40577.00    177743.40
  248.41        2966.25           1448       42450.00    185991.80
  248.43        2966.50           1451       43951.00    192604.80
  248.46        2966.75           1455       45039.00    197399.80
  248.49        2967.00           1458       45357.00    198801.50
  248.52        2967.25           1461       45613.00    199929.90
  248.54        2967.50           1465       45672.00    200190.00
  248.57        2967.75           1468       45191.00    198069.70
  248.60        2968.00           1471       44354.00    194380.70
  248.63        2968.25           1475       42686.00    187031.40
  248.65        2968.50           1478       40857.00    178976.20
  248.68        2968.75           1481       38643.00    169230.20
  248.71        2969.00           1485       36003.00    157616.00
  248.74        2969.25           1488       33577.00    146949.90
  248.76        2969.50           1491       31367.00    137239.10
  248.79        2969.75           1495       28534.00    124798.50
  248.82        2970.00           1498       26304.00    115011.90
  248.84        2970.25           1501       24275.00    106112.10
  248.87        2970.50           1505       21436.00     93666.87
  248.90        2970.75           1508       19314.00     84370.39
  248.93        2971.00           1511       17111.00     74724.19
  248.95        2971.25           1515       14309.00     62462.69
  248.98        2971.50           1518       12183.00     53164.97
  249.01        2971.75           1521       10142.00     44243.53
  249.04        2972.00           1525        7449.00     32478.96
  249.06        2972.25           1528        5215.00     22725.44
  249.09        2972.50           1531        3470.00     15110.58
  249.12        2972.75           1535        1518.00      6596.25
  249.14        2973.00           1538         602.00      2602.19
  249.17        2973.25           1541         192.00       814.75
  249.20        2973.50           1545          48.00       187.01
  249.23        2973.75           1548          31.00       112.90
  249.25        2974.00           1551          26.00        91.11
  249.28        2974.25           1555          26.00        91.11
  249.31        2974.50           1558          23.00        78.03
  249.33        2974.75           1561          24.00        82.39
  249.36        2975.00           1565          24.00        82.39
  249.39        2975.25           1568          16.00        47.52
  249.42        2975.50           1571          19.00        60.59
  249.44        2975.75           1575          18.00        56.23
  249.47        2976.00           1578          21.00        69.31
  249.50        2976.25           1581          24.00        82.39
  249.53        2976.50           1585          20.00        64.95
  249.55        2976.75           1588          20.00        64.95
  249.58        2977.00           1591          19.00        60.59
  249.61        2977.25           1595          21.00        69.31
  249.63        2977.50           1598          23.00        78.03
  249.66        2977.75           1601          18.00        56.23
  249.69        2978.00           1605          21.00        69.31
  249.71        2978.25           1608          22.00        73.67
  249.74        2978.50           1611          22.00        73.67
  249.77        2978.75           1615          20.00        64.95
  249.80        2979.00           1618          24.00        82.39
  249.82        2979.25           1621          20.00        64.95
  249.85        2979.50           1625          19.00        60.59
  249.88        2979.75           1628          20.00        64.95
  249.91        2980.00           1631          16.00        47.52
  249.93        2980.25           1635          18.00        56.23
  249.96        2980.50           1638          22.00        73.67
  249.99        2980.75           1641          23.00        78.03
  250.01        2981.00           1645          17.00        51.87
  250.04        2981.25           1648          21.00        69.31
  250.07        2981.50           1651          17.00        51.87
  250.09        2981.75           1655          20.00        64.95
  250.12        2982.00           1658          16.00        47.52
  250.15        2982.25           1661          14.00        38.80
  250.18        2982.50           1665          18.00        56.23
  250.20        2982.75           1668          16.00        47.52
  250.23        2983.00           1671          18.00        56.23
  250.26        2983.25           1675          16.00        47.52
  250.28        2983.50           1678          17.00        51.87
  250.31        2983.75           1681          16.00        47.52
  250.34        2984.00           1685          15.00        43.16
HS scan finished at 04:10:32
end
