************************************************************
  HS Scan of (1) Internal mercury lamp
************************************************************
Integration time is 0.2294 seconds per sample
dh090319Tamanrasset 22.79-5.529 4.974364pr865
************************************************************
Dead Time -------------------------  2.8E-08 
Number of Cycles Used -------------  4 
Starting Wavelength (Angstroms) ---  2950 
Final Wavelength (Angstoms) -------  2984 
Wavelength Increment (Angstroms) --  .25 
Filter Wheel #1 Position ---------- (1) Ground quartz diffuser (ND=2.32)
Filter Wheel #2 Position ---------- (1) Neutral Density 0.494



************************************************************
HS scan start time = 04:05:15
Dark Count =  4.2 


Time (GMT)  Wavelength (Ang)  Step Number  Raw Counts  Counts/Second

  245.60        2950.00           1233          20.00        68.88
  245.66        2950.25           1236          15.00        47.08
  245.69        2950.50           1239          17.00        55.80
  245.72        2950.75           1242          17.00        55.80
  245.75        2951.00           1246          19.00        64.52
  245.77        2951.25           1249          22.00        77.59
  245.80        2951.50           1252          18.00        60.16
  245.83        2951.75           1256          19.00        64.52
  245.85        2952.00           1259          20.00        68.88
  245.88        2952.25           1262          19.00        64.52
  245.91        2952.50           1266          18.00        60.16
  245.94        2952.75           1269          24.00        86.31
  245.96        2953.00           1272          18.00        60.16
  245.99        2953.25           1276          23.00        81.95
  246.02        2953.50           1279          15.00        47.08
  246.05        2953.75           1282          18.00        60.16
  246.07        2954.00           1286          18.00        60.16
  246.10        2954.25           1289          20.00        68.88
  246.13        2954.50           1292          21.00        73.23
  246.15        2954.75           1295          20.00        68.88
  246.18        2955.00           1299          20.00        68.88
  246.21        2955.25           1302          21.00        73.23
  246.24        2955.50           1305          18.00        60.16
  246.26        2955.75           1309          18.00        60.16
  246.29        2956.00           1312          18.00        60.16
  246.32        2956.25           1315          18.00        60.16
  246.34        2956.50           1319          20.00        68.88
  246.37        2956.75           1322          20.00        68.88
  246.40        2957.00           1325          21.00        73.23
  246.43        2957.25           1329          17.00        55.80
  246.45        2957.50           1332          20.00        68.88
  246.48        2957.75           1335          17.00        55.80
  246.51        2958.00           1339          19.00        64.52
  246.53        2958.25           1342          19.00        64.52
  246.56        2958.50           1345          22.00        77.59
  246.59        2958.75           1348          16.00        51.44
  246.62        2959.00           1352          21.00        73.23
  246.64        2959.25           1355          20.00        68.88
  246.67        2959.50           1358          20.00        68.88
  246.70        2959.75           1362          19.00        64.52
  246.72        2960.00           1365          21.00        73.23
  246.75        2960.25           1368          24.00        86.31
  246.78        2960.50           1372          30.00       112.47
  246.81        2960.75           1375          37.00       142.98
  246.83        2961.00           1378          64.00       260.68
  246.86        2961.25           1382         352.00      1516.19
  246.89        2961.50           1385         840.00      3643.79
  246.91        2961.75           1388        1818.00      7908.47
  246.94        2962.00           1392        3780.00     16467.05
  246.97        2962.25           1395        5470.00     23842.42
  247.00        2962.50           1398        7483.00     32631.37
  247.02        2962.75           1402       10070.00     43932.83
  247.05        2963.00           1405       12156.00     53050.85
  247.08        2963.25           1408       14181.00     61906.69
  247.11        2963.50           1412       17002.00     74250.99
  247.13        2963.75           1415       19100.00     83437.08
  247.16        2964.00           1418       21108.00     92233.54
  247.19        2964.25           1422       23743.00    103783.30
  247.21        2964.50           1425       25619.00    112010.70
  247.24        2964.75           1428       27826.00    121694.70
  247.27        2965.00           1431       29870.00    130668.20
  247.30        2965.25           1435       32833.00    143684.20
  247.32        2965.50           1438       35002.00    153218.30
  247.35        2965.75           1441       36964.00    161846.90
  247.38        2966.00           1445       39886.00    174705.20
  247.41        2966.25           1448       41503.00    181824.80
  247.43        2966.50           1451       43187.00    189242.50
  247.46        2966.75           1455       44202.00    193714.90
  247.49        2967.00           1458       44631.00    195605.50
  247.52        2967.25           1461       44974.00    197117.20
  247.54        2967.50           1465       44887.00    196733.80
  247.57        2967.75           1468       44471.00    194900.30
  247.60        2968.00           1471       43709.00    191542.40
  247.62        2968.25           1475       42177.00    184793.30
  247.65        2968.50           1478       40225.00    176197.60
  247.68        2968.75           1481       38168.00    167144.00
  247.71        2969.00           1485       35494.00    155381.60
  247.73        2969.25           1488       33282.00    145657.40
  247.76        2969.50           1491       31157.00    136320.60
  247.79        2969.75           1495       28410.00    124258.10
  247.82        2970.00           1498       26279.00    114906.20
  247.84        2970.25           1501       24109.00    105388.10
  247.87        2970.50           1505       21342.00     93258.90
  247.90        2970.75           1508       18977.00     82898.40
  247.93        2971.00           1511       16845.00     73563.76
  247.95        2971.25           1515       14159.00     61810.46
  247.98        2971.50           1518       12045.00     52565.55
  248.01        2971.75           1521        9994.00     43600.71
  248.04        2972.00           1525        7396.00     32251.43
  248.06        2972.25           1528        5352.00     23327.35
  248.09        2972.50           1531        3552.00     15472.26
  248.12        2972.75           1535        1599.00      6953.40
  248.14        2973.00           1538         681.00      2950.55
  248.17        2973.25           1541         214.00       914.58
  248.20        2973.50           1545          52.00       208.37
  248.23        2973.75           1548          36.00       138.62
  248.25        2974.00           1551          32.00       121.19
  248.28        2974.25           1555          24.00        86.31
  248.31        2974.50           1558          24.00        86.31
  248.33        2974.75           1561          21.00        73.23
  248.36        2975.00           1565          23.00        81.95
  248.39        2975.25           1568          24.00        86.31
  248.42        2975.50           1571          17.00        55.80
  248.44        2975.75           1575          15.00        47.08
  248.47        2976.00           1578          19.00        64.52
  248.50        2976.25           1581          22.00        77.59
  248.52        2976.50           1585          20.00        68.88
  248.55        2976.75           1588          23.00        81.95
  248.58        2977.00           1591          21.00        73.23
  248.61        2977.25           1595          20.00        68.88
  248.63        2977.50           1598          17.00        55.80
  248.66        2977.75           1601          24.00        86.31
  248.69        2978.00           1605          21.00        73.23
  248.71        2978.25           1608          17.00        55.80
  248.74        2978.50           1611          19.00        64.52
  248.77        2978.75           1615          16.00        51.44
  248.80        2979.00           1618          16.00        51.44
  248.82        2979.25           1621          17.00        55.80
  248.85        2979.50           1625          19.00        64.52
  248.88        2979.75           1628          21.00        73.23
  248.90        2980.00           1631          17.00        55.80
  248.93        2980.25           1635          22.00        77.59
  248.96        2980.50           1638          17.00        55.80
  248.99        2980.75           1641          20.00        68.88
  249.01        2981.00           1645          21.00        73.23
  249.04        2981.25           1648          20.00        68.88
  249.07        2981.50           1651          19.00        64.52
  249.09        2981.75           1655          18.00        60.16
  249.12        2982.00           1658          20.00        68.88
  249.15        2982.25           1661          21.00        73.23
  249.18        2982.50           1665          18.00        60.16
  249.20        2982.75           1668          21.00        73.23
  249.23        2983.00           1671          23.00        81.95
  249.26        2983.25           1675          19.00        64.52
  249.28        2983.50           1678          20.00        68.88
  249.31        2983.75           1681          19.00        64.52
  249.34        2984.00           1685          16.00        51.44
HS scan finished at 04:09:32
end
