************************************************************
  HS Scan of (1) Internal mercury lamp
************************************************************
Integration time is 0.2294 seconds per sample
dh040319Tamanrasset 22.79-5.529 4.974364pr865
************************************************************
Dead Time -------------------------  2.8E-08 
Number of Cycles Used -------------  4 
Starting Wavelength (Angstroms) ---  2950 
Final Wavelength (Angstoms) -------  2984 
Wavelength Increment (Angstroms) --  .25 
Filter Wheel #1 Position ---------- (1) Ground quartz diffuser (ND=2.32)
Filter Wheel #2 Position ---------- (1) Neutral Density 0.494



************************************************************
HS scan start time = 04:09:44
Dark Count =  6.1 


Time (GMT)  Wavelength (Ang)  Step Number  Raw Counts  Counts/Second

  250.08        2950.00           1233          19.00        56.23
  250.15        2950.25           1236          20.00        60.59
  250.17        2950.50           1239          20.00        60.59
  250.20        2950.75           1242          22.00        69.31
  250.23        2951.00           1246          19.00        56.23
  250.26        2951.25           1249          20.00        60.59
  250.28        2951.50           1252          20.00        60.59
  250.31        2951.75           1256          16.00        43.16
  250.34        2952.00           1259          17.00        47.52
  250.36        2952.25           1262          21.00        64.95
  250.39        2952.50           1266          23.00        73.67
  250.42        2952.75           1269          19.00        56.23
  250.45        2953.00           1272          22.00        69.31
  250.47        2953.25           1276          19.00        56.23
  250.50        2953.50           1279          22.00        69.31
  250.53        2953.75           1282          18.00        51.87
  250.55        2954.00           1286          22.00        69.31
  250.58        2954.25           1289          17.00        47.52
  250.61        2954.50           1292          18.00        51.87
  250.64        2954.75           1295          18.00        51.87
  250.66        2955.00           1299          17.00        47.52
  250.69        2955.25           1302          20.00        60.59
  250.72        2955.50           1305          16.00        43.16
  250.74        2955.75           1309          19.00        56.23
  250.77        2956.00           1312          20.00        60.59
  250.80        2956.25           1315          22.00        69.31
  250.83        2956.50           1319          19.00        56.23
  250.85        2956.75           1322          21.00        64.95
  250.88        2957.00           1325          23.00        73.67
  250.91        2957.25           1329          20.00        60.59
  250.93        2957.50           1332          22.00        69.31
  250.96        2957.75           1335          15.00        38.80
  250.99        2958.00           1339          20.00        60.59
  251.02        2958.25           1342          20.00        60.59
  251.04        2958.50           1345          17.00        47.52
  251.07        2958.75           1348          19.00        56.23
  251.10        2959.00           1352          15.00        38.80
  251.12        2959.25           1355          21.00        64.95
  251.15        2959.50           1358          24.00        78.03
  251.18        2959.75           1362          19.00        56.23
  251.21        2960.00           1365          24.00        78.03
  251.23        2960.25           1368          23.00        73.67
  251.26        2960.50           1372          26.00        86.75
  251.29        2960.75           1375          32.00       112.90
  251.31        2961.00           1378          66.00       261.12
  251.34        2961.25           1382         336.00      1438.16
  251.37        2961.50           1385         835.00      3613.71
  251.40        2961.75           1388        1791.00      7782.43
  251.42        2962.00           1392        3850.00     16764.19
  251.45        2962.25           1395        5656.00     24646.04
  251.48        2962.50           1398        7633.00     33278.16
  251.51        2962.75           1402       10377.00     45266.15
  251.53        2963.00           1405       12380.00     54021.93
  251.56        2963.25           1408       14444.00     63048.88
  251.59        2963.50           1412       17076.00     74566.60
  251.61        2963.75           1415       18940.00     82728.03
  251.64        2964.00           1418       21063.00     92028.03
  251.67        2964.25           1422       23865.00    104309.90
  251.70        2964.50           1425       25750.00    112577.10
  251.72        2964.75           1428       28104.00    122906.60
  251.75        2965.00           1431       30129.00    131797.20
  251.78        2965.25           1435       33141.00    145029.30
  251.81        2965.50           1438       35223.00    154181.60
  251.83        2965.75           1441       37378.00    163659.80
  251.86        2966.00           1445       40057.00    175449.60
  251.89        2966.25           1448       42079.00    184353.30
  251.91        2966.50           1451       43206.00    189317.80
  251.94        2966.75           1455       44518.00    195099.00
  251.97        2967.00           1458       45136.00    197822.90
  252.00        2967.25           1461       44996.00    197205.80
  252.02        2967.50           1465       45014.00    197285.10
  252.05        2967.75           1468       44727.00    196020.20
  252.08        2968.00           1471       43606.00    191080.20
  252.11        2968.25           1475       42182.00    184806.90
  252.13        2968.50           1478       40204.00    176096.70
  252.16        2968.75           1481       38218.00    167355.60
  252.19        2969.00           1485       35395.00    154937.90
  252.22        2969.25           1488       33072.00    144726.10
  252.24        2969.50           1491       30998.00    135613.80
  252.27        2969.75           1495       28127.00    123007.50
  252.30        2970.00           1498       26008.00    113708.90
  252.32        2970.25           1501       23817.00    104099.40
  252.35        2970.50           1505       21049.00     91966.69
  252.38        2970.75           1508       18789.00     82066.75
  252.41        2971.00           1511       16569.00     72347.37
  252.43        2971.25           1515       13894.00     60642.99
  252.46        2971.50           1518       11862.00     51757.17
  252.49        2971.75           1521        9823.00     42845.19
  252.52        2972.00           1525        7087.00     30893.76
  252.54        2972.25           1528        4953.00     21577.55
  252.57        2972.50           1531        3231.00     14063.52
  252.60        2972.75           1535        1387.00      6020.63
  252.63        2973.00           1538         565.00      2436.52
  252.65        2973.25           1541         199.00       840.91
  252.68        2973.50           1545          50.00       191.37
  252.71        2973.75           1548          36.00       130.34
  252.73        2974.00           1551          30.00       104.19
  252.76        2974.25           1555          25.00        82.39
  252.79        2974.50           1558          25.00        82.39
  252.82        2974.75           1561          23.00        73.67
  252.84        2975.00           1565          18.00        51.87
  252.87        2975.25           1568          23.00        73.67
  252.90        2975.50           1571          20.00        60.59
  252.92        2975.75           1575          20.00        60.59
  252.95        2976.00           1578          18.00        51.87
  252.98        2976.25           1581          23.00        73.67
  253.01        2976.50           1585          19.00        56.23
  253.03        2976.75           1588          18.00        51.87
  253.06        2977.00           1591          25.00        82.39
  253.09        2977.25           1595          21.00        64.95
  253.11        2977.50           1598          20.00        60.59
  253.14        2977.75           1601          21.00        64.95
  253.17        2978.00           1605          19.00        56.23
  253.20        2978.25           1608          22.00        69.31
  253.22        2978.50           1611          24.00        78.03
  253.25        2978.75           1615          19.00        56.23
  253.28        2979.00           1618          21.00        64.95
  253.30        2979.25           1621          19.00        56.23
  253.33        2979.50           1625          22.00        69.31
  253.36        2979.75           1628          17.00        47.52
  253.39        2980.00           1631          18.00        51.87
  253.41        2980.25           1635          21.00        64.95
  253.44        2980.50           1638          25.00        82.39
  253.47        2980.75           1641          17.00        47.52
  253.49        2981.00           1645          17.00        47.52
  253.52        2981.25           1648          11.00        21.36
  253.55        2981.50           1651          17.00        47.52
  253.57        2981.75           1655          19.00        56.23
  253.60        2982.00           1658          14.00        34.44
  253.63        2982.25           1661          21.00        64.95
  253.66        2982.50           1665          17.00        47.52
  253.68        2982.75           1668          22.00        69.31
  253.71        2983.00           1671          20.00        60.59
  253.74        2983.25           1675          19.00        56.23
  253.77        2983.50           1678          20.00        60.59
  253.79        2983.75           1681          19.00        56.23
  253.82        2984.00           1685          19.00        56.23
HS scan finished at 04:14:00
end
