************************************************************
  HS Scan of (1) Internal mercury lamp
************************************************************
Integration time is 0.2294 seconds per sample
dh050319Tamanrasset 22.79-5.529 4.974364pr865
************************************************************
Dead Time -------------------------  2.8E-08 
Number of Cycles Used -------------  4 
Starting Wavelength (Angstroms) ---  2950 
Final Wavelength (Angstoms) -------  2984 
Wavelength Increment (Angstroms) --  .25 
Filter Wheel #1 Position ---------- (1) Ground quartz diffuser (ND=2.32)
Filter Wheel #2 Position ---------- (1) Neutral Density 0.494



************************************************************
HS scan start time = 04:08:44
Dark Count =  4.9 


Time (GMT)  Wavelength (Ang)  Step Number  Raw Counts  Counts/Second

  249.09        2950.00           1233          19.00        61.46
  249.15        2950.25           1236          17.00        52.75
  249.18        2950.50           1239          18.00        57.11
  249.21        2950.75           1242          14.00        39.67
  249.24        2951.00           1246          23.00        78.90
  249.26        2951.25           1249          20.00        65.82
  249.29        2951.50           1252          20.00        65.82
  249.32        2951.75           1256          15.00        44.03
  249.34        2952.00           1259          22.00        74.54
  249.37        2952.25           1262          16.00        48.39
  249.40        2952.50           1266          16.00        48.39
  249.43        2952.75           1269          19.00        61.46
  249.45        2953.00           1272          20.00        65.82
  249.48        2953.25           1276          20.00        65.82
  249.51        2953.50           1279          17.00        52.75
  249.53        2953.75           1282          21.00        70.18
  249.56        2954.00           1286          19.00        61.46
  249.59        2954.25           1289          21.00        70.18
  249.62        2954.50           1292          23.00        78.90
  249.64        2954.75           1295          25.00        87.62
  249.67        2955.00           1299          21.00        70.18
  249.70        2955.25           1302          16.00        48.39
  249.72        2955.50           1305          18.00        57.11
  249.75        2955.75           1309          16.00        48.39
  249.78        2956.00           1312          20.00        65.82
  249.81        2956.25           1315          18.00        57.11
  249.83        2956.50           1319          20.00        65.82
  249.86        2956.75           1322          18.00        57.11
  249.89        2957.00           1325          20.00        65.82
  249.91        2957.25           1329          20.00        65.82
  249.94        2957.50           1332          21.00        70.18
  249.97        2957.75           1335          21.00        70.18
  250.00        2958.00           1339          19.00        61.46
  250.02        2958.25           1342          18.00        57.11
  250.05        2958.50           1345          20.00        65.82
  250.08        2958.75           1348          14.00        39.67
  250.10        2959.00           1352          22.00        74.54
  250.13        2959.25           1355          19.00        61.46
  250.16        2959.50           1358          13.00        35.31
  250.19        2959.75           1362          21.00        70.18
  250.21        2960.00           1365          17.00        52.75
  250.24        2960.25           1368          22.00        74.54
  250.27        2960.50           1372          30.00       109.42
  250.29        2960.75           1375          40.00       153.01
  250.32        2961.00           1378          67.00       270.71
  250.35        2961.25           1382         344.00      1478.27
  250.38        2961.50           1385         835.00      3618.94
  250.40        2961.75           1388        1828.00      7949.02
  250.43        2962.00           1392        3753.00     16346.19
  250.46        2962.25           1395        5616.00     24476.67
  250.48        2962.50           1398        7612.00     33191.69
  250.51        2962.75           1402       10343.00     45122.80
  250.54        2963.00           1405       12456.00     54359.49
  250.57        2963.25           1408       14582.00     63657.83
  250.59        2963.50           1412       17129.00     74803.85
  250.62        2963.75           1415       19240.00     84047.16
  250.65        2964.00           1418       21484.00     93878.09
  250.68        2964.25           1422       24079.00    105253.50
  250.70        2964.50           1425       25971.00    113551.80
  250.73        2964.75           1428       28119.00    122977.70
  250.76        2965.00           1431       30262.00    132386.50
  250.79        2965.25           1435       33253.00    145526.90
  250.81        2965.50           1438       35225.00    154195.70
  250.84        2965.75           1441       37382.00    163682.60
  250.87        2966.00           1445       40172.00    175961.20
  250.89        2966.25           1448       41865.00    183416.00
  250.92        2966.50           1451       43400.00    190177.90
  250.95        2966.75           1455       44476.00    194919.30
  250.98        2967.00           1458       45102.00    197678.40
  251.00        2967.25           1461       45185.00    198044.20
  251.03        2967.50           1465       44980.00    197140.60
  251.06        2967.75           1468       44827.00    196466.20
  251.09        2968.00           1471       44115.00    193328.40
  251.11        2968.25           1475       42337.00    185495.00
  251.14        2968.50           1478       40440.00    177141.00
  251.17        2968.75           1481       38333.00    167867.00
  251.19        2969.00           1485       35782.00    156645.00
  251.22        2969.25           1488       33345.00    145931.20
  251.25        2969.50           1491       31227.00    136625.00
  251.28        2969.75           1495       28520.00    124737.90
  251.30        2970.00           1498       26349.00    115210.20
  251.33        2970.25           1501       24176.00    105678.90
  251.36        2970.50           1505       21357.00     93321.56
  251.39        2970.75           1508       19166.00     83723.07
  251.41        2971.00           1511       17071.00     74549.96
  251.44        2971.25           1515       14139.00     61719.91
  251.47        2971.50           1518       12147.00     53008.44
  251.50        2971.75           1521       10111.00     44108.94
  251.52        2972.00           1525        7373.00     32147.93
  251.55        2972.25           1528        5430.00     23664.76
  251.58        2972.50           1531        3538.00     15408.13
  251.60        2972.75           1535        1585.00      6889.30
  251.63        2973.00           1538         720.00      3117.53
  251.66        2973.25           1541         249.00      1064.11
  251.69        2973.50           1545          57.00       227.12
  251.71        2973.75           1548          38.00       144.29
  251.74        2974.00           1551          29.00       105.06
  251.77        2974.25           1555          25.00        87.62
  251.79        2974.50           1558          25.00        87.62
  251.82        2974.75           1561          22.00        74.54
  251.85        2975.00           1565          23.00        78.90
  251.88        2975.25           1568          21.00        70.18
  251.90        2975.50           1571          19.00        61.46
  251.93        2975.75           1575          20.00        65.82
  251.96        2976.00           1578          17.00        52.75
  251.98        2976.25           1581          19.00        61.46
  252.01        2976.50           1585          19.00        61.46
  252.04        2976.75           1588          19.00        61.46
  252.07        2977.00           1591          19.00        61.46
  252.09        2977.25           1595          22.00        74.54
  252.12        2977.50           1598          20.00        65.82
  252.15        2977.75           1601          14.00        39.67
  252.17        2978.00           1605          25.00        87.62
  252.20        2978.25           1608          17.00        52.75
  252.23        2978.50           1611          19.00        61.46
  252.26        2978.75           1615          16.00        48.39
  252.28        2979.00           1618          23.00        78.90
  252.31        2979.25           1621          21.00        70.18
  252.34        2979.50           1625          21.00        70.18
  252.36        2979.75           1628          21.00        70.18
  252.39        2980.00           1631          17.00        52.75
  252.42        2980.25           1635          22.00        74.54
  252.45        2980.50           1638          23.00        78.90
  252.47        2980.75           1641          24.00        83.26
  252.50        2981.00           1645          21.00        70.18
  252.53        2981.25           1648          21.00        70.18
  252.55        2981.50           1651          19.00        61.46
  252.58        2981.75           1655          16.00        48.39
  252.61        2982.00           1658          17.00        52.75
  252.64        2982.25           1661          22.00        74.54
  252.66        2982.50           1665          23.00        78.90
  252.69        2982.75           1668          22.00        74.54
  252.72        2983.00           1671          18.00        57.11
  252.74        2983.25           1675          14.00        39.67
  252.77        2983.50           1678          16.00        48.39
  252.80        2983.75           1681          22.00        74.54
  252.83        2984.00           1685          17.00        52.75
HS scan finished at 04:13:01
end
