************************************************************
  HS Scan of (1) Internal mercury lamp
************************************************************
Integration time is 0.2294 seconds per sample
dh100319Tamanrasset 22.79-5.529 4.974364pr865
************************************************************
Dead Time -------------------------  2.8E-08 
Number of Cycles Used -------------  4 
Starting Wavelength (Angstroms) ---  2950 
Final Wavelength (Angstoms) -------  2984 
Wavelength Increment (Angstroms) --  .25 
Filter Wheel #1 Position ---------- (1) Ground quartz diffuser (ND=2.32)
Filter Wheel #2 Position ---------- (1) Neutral Density 0.494



************************************************************
HS scan start time = 04:03:47
Dark Count =  6.3 


Time (GMT)  Wavelength (Ang)  Step Number  Raw Counts  Counts/Second

  244.15        2950.00           1233          19.00        55.36
  244.21        2950.25           1236          18.00        51.00
  244.24        2950.50           1239          18.00        51.00
  244.27        2950.75           1242          18.00        51.00
  244.29        2951.00           1246          19.00        55.36
  244.32        2951.25           1249          18.00        51.00
  244.35        2951.50           1252          15.00        37.93
  244.37        2951.75           1256          20.00        59.72
  244.40        2952.00           1259          22.00        68.44
  244.43        2952.25           1262          20.00        59.72
  244.46        2952.50           1266          17.00        46.64
  244.48        2952.75           1269          20.00        59.72
  244.51        2953.00           1272          22.00        68.44
  244.54        2953.25           1276          23.00        72.80
  244.56        2953.50           1279          26.00        85.88
  244.59        2953.75           1282          21.00        64.08
  244.62        2954.00           1286          16.00        42.28
  244.65        2954.25           1289          21.00        64.08
  244.67        2954.50           1292          17.00        46.64
  244.70        2954.75           1295          18.00        51.00
  244.73        2955.00           1299          17.00        46.64
  244.75        2955.25           1302          15.00        37.93
  244.78        2955.50           1305          20.00        59.72
  244.81        2955.75           1309          20.00        59.72
  244.84        2956.00           1312          15.00        37.93
  244.86        2956.25           1315          19.00        55.36
  244.89        2956.50           1319          16.00        42.28
  244.92        2956.75           1322          17.00        46.64
  244.94        2957.00           1325          24.00        77.16
  244.97        2957.25           1329          23.00        72.80
  245.00        2957.50           1332          21.00        64.08
  245.03        2957.75           1335          20.00        59.72
  245.05        2958.00           1339          20.00        59.72
  245.08        2958.25           1342          20.00        59.72
  245.11        2958.50           1345          17.00        46.64
  245.14        2958.75           1348          20.00        59.72
  245.16        2959.00           1352          22.00        68.44
  245.19        2959.25           1355          19.00        55.36
  245.22        2959.50           1358          19.00        55.36
  245.24        2959.75           1362          18.00        51.00
  245.27        2960.00           1365          23.00        72.80
  245.30        2960.25           1368          23.00        72.80
  245.33        2960.50           1372          28.00        94.59
  245.35        2960.75           1375          32.00       112.03
  245.38        2961.00           1378          65.00       255.89
  245.41        2961.25           1382         333.00      1424.21
  245.43        2961.50           1385         848.00      3669.51
  245.46        2961.75           1388        1804.00      7838.25
  245.49        2962.00           1392        3867.00     16837.49
  245.52        2962.25           1395        5867.00     25566.25
  245.54        2962.50           1398        7893.00     34412.83
  245.57        2962.75           1402       10496.00     45785.34
  245.60        2963.00           1405       12518.00     54624.47
  245.63        2963.25           1408       14610.00     63774.21
  245.65        2963.50           1412       17291.00     75506.90
  245.68        2963.75           1415       19157.00     83677.51
  245.71        2964.00           1418       21250.00     92846.55
  245.73        2964.25           1422       23995.00    104879.00
  245.76        2964.50           1425       26266.00    114839.90
  245.79        2964.75           1428       28461.00    124472.70
  245.82        2965.00           1431       30359.00    132806.40
  245.84        2965.25           1435       33061.00    144676.90
  245.87        2965.50           1438       35553.00    155631.80
  245.90        2965.75           1441       37672.00    164952.40
  245.93        2966.00           1445       40220.00    176166.30
  245.95        2966.25           1448       42006.00    184030.90
  245.98        2966.50           1451       43370.00    190039.50
  246.01        2966.75           1455       44664.00    195741.60
  246.03        2967.00           1458       44971.00    197094.70
  246.06        2967.25           1461       45227.00    198223.10
  246.09        2967.50           1465       44993.00    197191.70
  246.12        2967.75           1468       44582.00    195380.20
  246.14        2968.00           1471       44128.00    193379.50
  246.17        2968.25           1475       42367.00    185620.90
  246.20        2968.50           1478       40728.00    178402.90
  246.23        2968.75           1481       38596.00    169018.10
  246.25        2969.00           1485       35614.00    155900.10
  246.28        2969.25           1488       33437.00    146329.40
  246.31        2969.50           1491       31188.00    136447.50
  246.34        2969.75           1495       28296.00    123748.50
  246.36        2970.00           1498       26424.00    115533.10
  246.39        2970.25           1501       24129.00    105466.60
  246.42        2970.50           1505       21237.00     92789.59
  246.45        2970.75           1508       19163.00     83703.79
  246.47        2971.00           1511       17092.00     74635.76
  246.50        2971.25           1515       14035.00     61258.87
  246.53        2971.50           1518       12062.00     52630.69
  246.55        2971.75           1521       10071.00     43928.02
  246.58        2972.00           1525        7446.00     32460.62
  246.61        2972.25           1528        5362.00     23361.84
  246.64        2972.50           1531        3529.00     15362.75
  246.66        2972.75           1535        1581.00      6865.75
  246.69        2973.00           1538         664.00      2867.27
  246.72        2973.25           1541         212.00       896.71
  246.75        2973.50           1545          55.00       212.29
  246.77        2973.75           1548          37.00       133.83
  246.80        2974.00           1551          28.00        94.59
  246.83        2974.25           1555          23.00        72.80
  246.85        2974.50           1558          23.00        72.80
  246.88        2974.75           1561          29.00        98.95
  246.91        2975.00           1565          23.00        72.80
  246.94        2975.25           1568          20.00        59.72
  246.96        2975.50           1571          25.00        81.52
  246.99        2975.75           1575          19.00        55.36
  247.02        2976.00           1578          23.00        72.80
  247.04        2976.25           1581          16.00        42.28
  247.07        2976.50           1585          22.00        68.44
  247.10        2976.75           1588          21.00        64.08
  247.13        2977.00           1591          24.00        77.16
  247.15        2977.25           1595          17.00        46.64
  247.18        2977.50           1598          16.00        42.28
  247.21        2977.75           1601          20.00        59.72
  247.23        2978.00           1605          16.00        42.28
  247.26        2978.25           1608          22.00        68.44
  247.29        2978.50           1611          17.00        46.64
  247.32        2978.75           1615          18.00        51.00
  247.34        2979.00           1618          23.00        72.80
  247.37        2979.25           1621          20.00        59.72
  247.40        2979.50           1625          19.00        55.36
  247.43        2979.75           1628          18.00        51.00
  247.45        2980.00           1631          19.00        55.36
  247.48        2980.25           1635          18.00        51.00
  247.51        2980.50           1638          18.00        51.00
  247.53        2980.75           1641          18.00        51.00
  247.56        2981.00           1645          18.00        51.00
  247.59        2981.25           1648          23.00        72.80
  247.61        2981.50           1651          20.00        59.72
  247.64        2981.75           1655          21.00        64.08
  247.67        2982.00           1658          20.00        59.72
  247.70        2982.25           1661          21.00        64.08
  247.72        2982.50           1665          20.00        59.72
  247.75        2982.75           1668          18.00        51.00
  247.78        2983.00           1671          19.00        55.36
  247.80        2983.25           1675          16.00        42.28
  247.83        2983.50           1678          21.00        64.08
  247.86        2983.75           1681          20.00        59.72
  247.89        2984.00           1685          18.00        51.00
HS scan finished at 04:08:04
end
