************************************************************
  HS Scan of (1) Internal mercury lamp
************************************************************
Integration time is 0.2294 seconds per sample
dh010317Tamanrasset 22.79-5.529 2.695419pr865
************************************************************
Dead Time -------------------------  2.8E-08 
Number of Cycles Used -------------  4 
Starting Wavelength (Angstroms) ---  2950 
Final Wavelength (Angstoms) -------  2984 
Wavelength Increment (Angstroms) --  .25 
Filter Wheel #1 Position ---------- (1) Ground quartz diffuser (ND=2.32)
Filter Wheel #2 Position ---------- (1) Neutral Density 0.494



************************************************************
HS scan start time = 03:43:17
Dark Count =  4.4 


Time (GMT)  Wavelength (Ang)  Step Number  Raw Counts  Counts/Second

  223.63        2950.00           1233           0.00         2.00
  223.70        2950.25           1236           2.00         2.00
  223.72        2950.50           1239           6.00         6.97
  223.75        2950.75           1242           8.00        15.69
  223.78        2951.00           1246           5.00         2.62
  223.81        2951.25           1249           8.00        15.69
  223.83        2951.50           1252           8.00        15.69
  223.86        2951.75           1256           8.00        15.69
  223.89        2952.00           1259           8.00        15.69
  223.91        2952.25           1262           1.00         2.00
  223.94        2952.50           1266           1.00         2.00
  223.97        2952.75           1269           8.00        15.69
  224.00        2953.00           1272           8.00        15.69
  224.02        2953.25           1276           8.00        15.69
  224.05        2953.50           1279           0.00         2.00
  224.08        2953.75           1282           8.00        15.69
  224.10        2954.00           1286           8.00        15.69
  224.13        2954.25           1289           0.00         2.00
  224.16        2954.50           1292           0.00         2.00
  224.19        2954.75           1295           1.00         2.00
  224.21        2955.00           1299           8.00        15.69
  224.24        2955.25           1302           6.00         6.97
  224.27        2955.50           1305           5.00         2.62
  224.29        2955.75           1309           0.00         2.00
  224.32        2956.00           1312           0.00         2.00
  224.35        2956.25           1315           8.00        15.69
  224.38        2956.50           1319           4.00         2.00
  224.40        2956.75           1322           7.00        11.33
  224.43        2957.00           1325           0.00         2.00
  224.46        2957.25           1329           8.00        15.69
  224.48        2957.50           1332           8.00        15.69
  224.51        2957.75           1335           0.00         2.00
  224.54        2958.00           1339           6.00         6.97
  224.57        2958.25           1342           2.00         2.00
  224.59        2958.50           1345           7.00        11.33
  224.62        2958.75           1348           8.00        15.69
  224.65        2959.00           1352           0.00         2.00
  224.67        2959.25           1355           8.00        15.69
  224.70        2959.50           1358           4.00         2.00
  224.73        2959.75           1362           8.00        15.69
  224.76        2960.00           1365           0.00         2.00
  224.78        2960.25           1368           0.00         2.00
  224.81        2960.50           1372           0.00         2.00
  224.84        2960.75           1375           8.00        15.69
  224.86        2961.00           1378           8.00        15.69
  224.89        2961.25           1382           8.00        15.69
  224.92        2961.50           1385           8.00        15.69
  224.95        2961.75           1388           0.00         2.00
  224.97        2962.00           1392           8.00        15.69
  225.00        2962.25           1395           7.00        11.33
  225.03        2962.50           1398           5.00         2.62
  225.05        2962.75           1402           0.00         2.00
  225.08        2963.00           1405           0.00         2.00
  225.11        2963.25           1408           8.00        15.69
  225.13        2963.50           1412           1.00         2.00
  225.16        2963.75           1415           4.00         2.00
  225.19        2964.00           1418           0.00         2.00
  225.22        2964.25           1422           5.00         2.62
  225.24        2964.50           1425           0.00         2.00
  225.27        2964.75           1428           0.00         2.00
  225.30        2965.00           1431           0.00         2.00
  225.32        2965.25           1435           8.00        15.69
  225.35        2965.50           1438           8.00        15.69
  225.38        2965.75           1441           8.00        15.69
  225.41        2966.00           1445           6.00         6.97
  225.43        2966.25           1448           8.00        15.69
  225.46        2966.50           1451           0.00         2.00
  225.49        2966.75           1455           0.00         2.00
  225.51        2967.00           1458           5.00         2.62
  225.54        2967.25           1461           8.00        15.69
  225.57        2967.50           1465           3.00         2.00
  225.60        2967.75           1468           5.00         2.62
  225.62        2968.00           1471           8.00        15.69
  225.65        2968.25           1475           0.00         2.00
  225.68        2968.50           1478           2.00         2.00
  225.70        2968.75           1481           8.00        15.69
  225.73        2969.00           1485           6.00         6.97
  225.76        2969.25           1488           8.00        15.69
  225.78        2969.50           1491           8.00        15.69
  225.81        2969.75           1495           8.00        15.69
  225.84        2970.00           1498           7.00        11.33
  225.87        2970.25           1501           8.00        15.69
  225.89        2970.50           1505           0.00         2.00
  225.92        2970.75           1508           4.00         2.00
  225.95        2971.00           1511           8.00        15.69
  225.97        2971.25           1515           0.00         2.00
  226.00        2971.50           1518           5.00         2.62
  226.03        2971.75           1521           8.00        15.69
  226.06        2972.00           1525           1.00         2.00
  226.08        2972.25           1528           6.00         6.97
  226.11        2972.50           1531           7.00        11.33
  226.14        2972.75           1535           8.00        15.69
  226.17        2973.00           1538           8.00        15.69
  226.19        2973.25           1541           8.00        15.69
  226.22        2973.50           1545           8.00        15.69
  226.25        2973.75           1548           6.00         6.97
  226.27        2974.00           1551           0.00         2.00
  226.30        2974.25           1555           8.00        15.69
  226.33        2974.50           1558           0.00         2.00
  226.36        2974.75           1561           0.00         2.00
  226.38        2975.00           1565           0.00         2.00
  226.41        2975.25           1568           5.00         2.62
  226.44        2975.50           1571           0.00         2.00
  226.46        2975.75           1575           8.00        15.69
  226.49        2976.00           1578           3.00         2.00
  226.52        2976.25           1581           4.00         2.00
  226.54        2976.50           1585           8.00        15.69
  226.57        2976.75           1588           8.00        15.69
  226.60        2977.00           1591           0.00         2.00
  226.63        2977.25           1595           0.00         2.00
  226.65        2977.50           1598           8.00        15.69
  226.68        2977.75           1601           3.00         2.00
  226.71        2978.00           1605           8.00        15.69
  226.73        2978.25           1608           8.00        15.69
  226.76        2978.50           1611           4.00         2.00
  226.79        2978.75           1615           8.00        15.69
  226.82        2979.00           1618           8.00        15.69
  226.84        2979.25           1621           2.00         2.00
  226.87        2979.50           1625           1.00         2.00
  226.90        2979.75           1628           6.00         6.97
  226.92        2980.00           1631           8.00        15.69
  226.95        2980.25           1635           0.00         2.00
  226.98        2980.50           1638           2.00         2.00
  227.01        2980.75           1641           7.00        11.33
  227.03        2981.00           1645           0.00         2.00
  227.06        2981.25           1648           2.00         2.00
  227.09        2981.50           1651           2.00         2.00
  227.11        2981.75           1655           6.00         6.97
  227.14        2982.00           1658           8.00        15.69
  227.17        2982.25           1661           8.00        15.69
  227.20        2982.50           1665           5.00         2.62
  227.22        2982.75           1668           0.00         2.00
  227.25        2983.00           1671           6.00         6.97
  227.28        2983.25           1675           8.00        15.69
  227.30        2983.50           1678           8.00        15.69
  227.33        2983.75           1681           4.00         2.00
  227.36        2984.00           1685           1.00         2.00
HS scan finished at 03:47:33
end
