************************************************************
  HS Scan of (1) Internal mercury lamp
************************************************************
Integration time is 0.2294 seconds per sample
dh030319Tamanrasset 22.79-5.529 4.974364pr865
************************************************************
Dead Time -------------------------  2.8E-08 
Number of Cycles Used -------------  4 
Starting Wavelength (Angstroms) ---  2950 
Final Wavelength (Angstoms) -------  2984 
Wavelength Increment (Angstroms) --  .25 
Filter Wheel #1 Position ---------- (1) Ground quartz diffuser (ND=2.32)
Filter Wheel #2 Position ---------- (1) Neutral Density 0.494



************************************************************
HS scan start time = 04:09:42
Dark Count =  4 


Time (GMT)  Wavelength (Ang)  Step Number  Raw Counts  Counts/Second

  250.06        2950.00           1233          16.00        52.31
  250.13        2950.25           1236          18.00        61.03
  250.15        2950.50           1239          18.00        61.03
  250.18        2950.75           1242          20.00        69.75
  250.21        2951.00           1246          21.00        74.11
  250.24        2951.25           1249          23.00        82.82
  250.26        2951.50           1252          14.00        43.59
  250.29        2951.75           1256          18.00        61.03
  250.32        2952.00           1259          20.00        69.75
  250.34        2952.25           1262          21.00        74.11
  250.37        2952.50           1266          25.00        91.54
  250.40        2952.75           1269          16.00        52.31
  250.42        2953.00           1272          16.00        52.31
  250.45        2953.25           1276          20.00        69.75
  250.48        2953.50           1279          19.00        65.39
  250.51        2953.75           1282          24.00        87.18
  250.53        2954.00           1286          17.00        56.67
  250.56        2954.25           1289          18.00        61.03
  250.59        2954.50           1292          20.00        69.75
  250.62        2954.75           1295          20.00        69.75
  250.64        2955.00           1299          18.00        61.03
  250.67        2955.25           1302          17.00        56.67
  250.70        2955.50           1305          15.00        47.95
  250.72        2955.75           1309          20.00        69.75
  250.75        2956.00           1312          20.00        69.75
  250.78        2956.25           1315          20.00        69.75
  250.81        2956.50           1319          17.00        56.67
  250.83        2956.75           1322          17.00        56.67
  250.86        2957.00           1325          19.00        65.39
  250.89        2957.25           1329          22.00        78.47
  250.91        2957.50           1332          19.00        65.39
  250.94        2957.75           1335          18.00        61.03
  250.97        2958.00           1339          18.00        61.03
  251.00        2958.25           1342          17.00        56.67
  251.02        2958.50           1345          20.00        69.75
  251.05        2958.75           1348          18.00        61.03
  251.08        2959.00           1352          20.00        69.75
  251.10        2959.25           1355          19.00        65.39
  251.13        2959.50           1358          16.00        52.31
  251.16        2959.75           1362          21.00        74.11
  251.19        2960.00           1365          18.00        61.03
  251.21        2960.25           1368          24.00        87.18
  251.24        2960.50           1372          28.00       104.62
  251.27        2960.75           1375          31.00       117.70
  251.30        2961.00           1378          56.00       226.68
  251.32        2961.25           1382         302.00      1299.09
  251.35        2961.50           1385         820.00      3557.46
  251.38        2961.75           1388        1767.00      7686.92
  251.40        2962.00           1392        3653.00     15913.80
  251.43        2962.25           1395        5613.00     24467.50
  251.46        2962.50           1398        7476.00     32601.68
  251.49        2962.75           1402       10197.00     44488.69
  251.51        2963.00           1405       12301.00     53685.70
  251.54        2963.25           1408       14495.00     63281.17
  251.57        2963.50           1412       17203.00     75131.74
  251.60        2963.75           1415       19235.00     84029.21
  251.62        2964.00           1418       21215.00     92703.28
  251.65        2964.25           1422       23774.00    103920.10
  251.68        2964.50           1425       26138.00    114288.40
  251.70        2964.75           1428       28237.00    123499.60
  251.73        2965.00           1431       30421.00    133088.80
  251.76        2965.25           1435       32985.00    144353.00
  251.79        2965.50           1438       35314.00    154591.00
  251.81        2965.75           1441       37527.00    164324.50
  251.84        2966.00           1445       40213.00    176145.60
  251.87        2966.25           1448       41749.00    182909.10
  251.90        2966.50           1451       43321.00    189833.70
  251.92        2966.75           1455       44394.00    194561.90
  251.95        2967.00           1458       44900.00    196791.90
  251.98        2967.25           1461       44928.00    196915.30
  252.00        2967.50           1465       45012.00    197285.60
  252.03        2967.75           1468       44648.00    195681.30
  252.06        2968.00           1471       44023.00    192926.90
  252.09        2968.25           1475       42071.00    184327.30
  252.11        2968.50           1478       40412.00    177021.70
  252.14        2968.75           1481       38606.00    169072.30
  252.17        2969.00           1485       35666.00    156138.90
  252.20        2969.25           1488       33472.00    146493.30
  252.22        2969.50           1491       31173.00    136391.70
  252.25        2969.75           1495       28179.00    123245.00
  252.28        2970.00           1498       26142.00    114306.00
  252.31        2970.25           1501       24083.00    105275.00
  252.33        2970.50           1505       21219.00     92720.80
  252.36        2970.75           1508       19023.00     83100.73
  252.39        2971.00           1511       16926.00     73919.19
  252.41        2971.25           1515       14302.00     62436.87
  252.44        2971.50           1518       12162.00     53077.96
  252.47        2971.75           1521       10124.00     44169.68
  252.50        2972.00           1525        7445.00     32466.29
  252.52        2972.25           1528        5375.00     23428.62
  252.55        2972.50           1531        3538.00     15412.06
  252.58        2972.75           1535        1647.00      7163.60
  252.61        2973.00           1538         669.00      2899.10
  252.63        2973.25           1541         225.00       963.41
  252.66        2973.50           1545          56.00       226.68
  252.69        2973.75           1548          37.00       143.85
  252.71        2974.00           1551          28.00       104.62
  252.74        2974.25           1555          29.00       108.98
  252.77        2974.50           1558          23.00        82.82
  252.80        2974.75           1561          21.00        74.11
  252.82        2975.00           1565          22.00        78.47
  252.85        2975.25           1568          20.00        69.75
  252.88        2975.50           1571          20.00        69.75
  252.91        2975.75           1575          24.00        87.18
  252.93        2976.00           1578          18.00        61.03
  252.96        2976.25           1581          20.00        69.75
  252.99        2976.50           1585          18.00        61.03
  253.01        2976.75           1588          19.00        65.39
  253.04        2977.00           1591          21.00        74.11
  253.07        2977.25           1595          18.00        61.03
  253.10        2977.50           1598          20.00        69.75
  253.12        2977.75           1601          22.00        78.47
  253.15        2978.00           1605          17.00        56.67
  253.18        2978.25           1608          20.00        69.75
  253.20        2978.50           1611          22.00        78.47
  253.23        2978.75           1615          22.00        78.47
  253.26        2979.00           1618          21.00        74.11
  253.29        2979.25           1621          16.00        52.31
  253.31        2979.50           1625          22.00        78.47
  253.34        2979.75           1628          17.00        56.67
  253.37        2980.00           1631          22.00        78.47
  253.39        2980.25           1635          23.00        82.82
  253.42        2980.50           1638          22.00        78.47
  253.45        2980.75           1641          22.00        78.47
  253.48        2981.00           1645          18.00        61.03
  253.50        2981.25           1648          18.00        61.03
  253.53        2981.50           1651          17.00        56.67
  253.56        2981.75           1655          18.00        61.03
  253.58        2982.00           1658          16.00        52.31
  253.61        2982.25           1661          21.00        74.11
  253.64        2982.50           1665          19.00        65.39
  253.67        2982.75           1668          20.00        69.75
  253.69        2983.00           1671          18.00        61.03
  253.72        2983.25           1675          18.00        61.03
  253.75        2983.50           1678          21.00        74.11
  253.77        2983.75           1681          18.00        61.03
  253.80        2984.00           1685          16.00        52.31
HS scan finished at 04:13:59
end
