************************************************************
  HS Scan of (1) Internal mercury lamp
************************************************************
Integration time is 0.2294 seconds per sample
dh010319Tamanrasset 22.79-5.529 4.974364pr865
************************************************************
Dead Time -------------------------  2.8E-08 
Number of Cycles Used -------------  4 
Starting Wavelength (Angstroms) ---  2950 
Final Wavelength (Angstoms) -------  2984 
Wavelength Increment (Angstroms) --  .25 
Filter Wheel #1 Position ---------- (1) Ground quartz diffuser (ND=2.32)
Filter Wheel #2 Position ---------- (1) Neutral Density 0.494



************************************************************
HS scan start time = 04:12:02
Dark Count =  3.7 


Time (GMT)  Wavelength (Ang)  Step Number  Raw Counts  Counts/Second

  252.38        2950.00           1233          21.00        75.41
  252.45        2950.25           1236          22.00        79.77
  252.48        2950.50           1239          23.00        84.13
  252.50        2950.75           1242          16.00        53.62
  252.53        2951.00           1246          18.00        62.34
  252.56        2951.25           1249          18.00        62.34
  252.58        2951.50           1252          17.00        57.98
  252.61        2951.75           1256          21.00        75.41
  252.64        2952.00           1259          21.00        75.41
  252.67        2952.25           1262          21.00        75.41
  252.69        2952.50           1266          23.00        84.13
  252.72        2952.75           1269          19.00        66.70
  252.75        2953.00           1272          16.00        53.62
  252.77        2953.25           1276          19.00        66.70
  252.80        2953.50           1279          23.00        84.13
  252.83        2953.75           1282          21.00        75.41
  252.86        2954.00           1286          16.00        53.62
  252.88        2954.25           1289          20.00        71.06
  252.91        2954.50           1292          20.00        71.06
  252.94        2954.75           1295          23.00        84.13
  252.96        2955.00           1299          16.00        53.62
  252.99        2955.25           1302          20.00        71.06
  253.02        2955.50           1305          19.00        66.70
  253.05        2955.75           1309          15.00        49.26
  253.07        2956.00           1312          20.00        71.06
  253.10        2956.25           1315          22.00        79.77
  253.13        2956.50           1319          22.00        79.77
  253.16        2956.75           1322          18.00        62.34
  253.18        2957.00           1325          18.00        62.34
  253.21        2957.25           1329          15.00        49.26
  253.24        2957.50           1332          23.00        84.13
  253.26        2957.75           1335          18.00        62.34
  253.29        2958.00           1339          23.00        84.13
  253.32        2958.25           1342          23.00        84.13
  253.35        2958.50           1345          19.00        66.70
  253.37        2958.75           1348          15.00        49.26
  253.40        2959.00           1352          19.00        66.70
  253.43        2959.25           1355          24.00        88.49
  253.45        2959.50           1358          23.00        84.13
  253.48        2959.75           1362          21.00        75.41
  253.51        2960.00           1365          21.00        75.41
  253.54        2960.25           1368          25.00        92.85
  253.56        2960.50           1372          25.00        92.85
  253.59        2960.75           1375          28.00       105.93
  253.62        2961.00           1378          50.00       201.83
  253.64        2961.25           1382         279.00      1200.13
  253.67        2961.50           1385         725.00      3144.57
  253.70        2961.75           1388        1630.00      7090.77
  253.73        2962.00           1392        3442.00     14994.53
  253.75        2962.25           1395        5357.00     23351.36
  253.78        2962.50           1398        7231.00     31533.06
  253.81        2962.75           1402        9952.00     43419.37
  253.84        2963.00           1405       12162.00     53079.27
  253.86        2963.25           1408       14244.00     62184.47
  253.89        2963.50           1412       16828.00     73491.54
  253.92        2963.75           1415       18899.00     82558.99
  253.94        2964.00           1418       20979.00     91670.49
  253.97        2964.25           1422       23669.00    103461.00
  254.00        2964.50           1425       25790.00    112763.10
  254.03        2964.75           1428       27769.00    121446.70
  254.05        2965.00           1431       29884.00    130731.80
  254.08        2965.25           1435       32771.00    143413.90
  254.11        2965.50           1438       34577.00    151351.90
  254.14        2965.75           1441       36775.00    161017.70
  254.16        2966.00           1445       39599.00    173444.00
  254.19        2966.25           1448       41387.00    181316.20
  254.22        2966.50           1451       43131.00    188998.00
  254.25        2966.75           1455       44338.00    194316.40
  254.27        2967.00           1458       44735.00    196066.00
  254.30        2967.25           1461       45126.00    197789.40
  254.33        2967.50           1465       44947.00    197000.40
  254.35        2967.75           1468       44819.00    196436.20
  254.38        2968.00           1471       44188.00    193655.40
  254.41        2968.25           1475       42576.00    186553.00
  254.44        2968.50           1478       40838.00    178898.70
  254.46        2968.75           1481       39083.00    171172.90
  254.49        2969.00           1485       36045.00    157806.90
  254.52        2969.25           1488       33964.00    148657.20
  254.55        2969.50           1491       31656.00    138514.80
  254.57        2969.75           1495       29045.00    127047.90
  254.60        2970.00           1498       26658.00    116571.20
  254.63        2970.25           1501       24519.00    107188.30
  254.65        2970.50           1505       21710.00     94873.76
  254.68        2970.75           1508       19569.00     85493.44
  254.71        2971.00           1511       17410.00     76039.24
  254.74        2971.25           1515       14687.00     64122.44
  254.76        2971.50           1518       12569.00     54858.83
  254.79        2971.75           1521       10457.00     45626.26
  254.82        2972.00           1525        7734.00     33729.75
  254.85        2972.25           1528        5948.00     25931.20
  254.87        2972.50           1531        3969.00     17293.90
  254.90        2972.75           1535        1879.00      8176.68
  254.93        2973.00           1538         826.00      3584.93
  254.95        2973.25           1541         300.00      1291.68
  254.98        2973.50           1545          69.00       284.66
  255.01        2973.75           1548          30.00       114.65
  255.04        2974.00           1551          25.00        92.85
  255.06        2974.25           1555          27.00       101.57
  255.09        2974.50           1558          26.00        97.21
  255.12        2974.75           1561          18.00        62.34
  255.14        2975.00           1565          18.00        62.34
  255.17        2975.25           1568          20.00        71.06
  255.20        2975.50           1571          16.00        53.62
  255.23        2975.75           1575          21.00        75.41
  255.25        2976.00           1578          21.00        75.41
  255.28        2976.25           1581          17.00        57.98
  255.31        2976.50           1585          21.00        75.41
  255.34        2976.75           1588          20.00        71.06
  255.36        2977.00           1591          21.00        75.41
  255.39        2977.25           1595          21.00        75.41
  255.42        2977.50           1598          22.00        79.77
  255.44        2977.75           1601          23.00        84.13
  255.47        2978.00           1605          21.00        75.41
  255.50        2978.25           1608          20.00        71.06
  255.53        2978.50           1611          26.00        97.21
  255.55        2978.75           1615          20.00        71.06
  255.58        2979.00           1618          18.00        62.34
  255.61        2979.25           1621          19.00        66.70
  255.63        2979.50           1625          21.00        75.41
  255.66        2979.75           1628          17.00        57.98
  255.69        2980.00           1631          19.00        66.70
  255.72        2980.25           1635          17.00        57.98
  255.74        2980.50           1638          20.00        71.06
  255.77        2980.75           1641          17.00        57.98
  255.80        2981.00           1645          21.00        75.41
  255.82        2981.25           1648          19.00        66.70
  255.85        2981.50           1651          22.00        79.77
  255.88        2981.75           1655          18.00        62.34
  255.91        2982.00           1658          22.00        79.77
  255.93        2982.25           1661          20.00        71.06
  255.96        2982.50           1665          17.00        57.98
  255.99        2982.75           1668          20.00        71.06
  256.01        2983.00           1671          24.00        88.49
  256.04        2983.25           1675          18.00        62.34
  256.07        2983.50           1678          19.00        66.70
  256.10        2983.75           1681          19.00        66.70
  256.12        2984.00           1685          18.00        62.34
HS scan finished at 04:16:19
end
