************************************************************
  HS Scan of (1) Internal mercury lamp
************************************************************
Integration time is 0.2294 seconds per sample
dh020319Tamanrasset 22.79-5.529 4.974364pr865
************************************************************
Dead Time -------------------------  2.8E-08 
Number of Cycles Used -------------  4 
Starting Wavelength (Angstroms) ---  2950 
Final Wavelength (Angstoms) -------  2984 
Wavelength Increment (Angstroms) --  .25 
Filter Wheel #1 Position ---------- (1) Ground quartz diffuser (ND=2.32)
Filter Wheel #2 Position ---------- (1) Neutral Density 0.494



************************************************************
HS scan start time = 04:10:43
Dark Count =  4.9 


Time (GMT)  Wavelength (Ang)  Step Number  Raw Counts  Counts/Second

  251.08        2950.00           1233          19.00        61.46
  251.14        2950.25           1236          19.00        61.46
  251.17        2950.50           1239          20.00        65.82
  251.19        2950.75           1242          18.00        57.11
  251.22        2951.00           1246          14.00        39.67
  251.25        2951.25           1249          17.00        52.75
  251.28        2951.50           1252          17.00        52.75
  251.30        2951.75           1256          19.00        61.46
  251.33        2952.00           1259          16.00        48.39
  251.36        2952.25           1262          15.00        44.03
  251.38        2952.50           1266          21.00        70.18
  251.41        2952.75           1269          20.00        65.82
  251.44        2953.00           1272          19.00        61.46
  251.47        2953.25           1276          23.00        78.90
  251.49        2953.50           1279          19.00        61.46
  251.52        2953.75           1282          21.00        70.18
  251.55        2954.00           1286          19.00        61.46
  251.57        2954.25           1289          21.00        70.18
  251.60        2954.50           1292          19.00        61.46
  251.63        2954.75           1295          20.00        65.82
  251.66        2955.00           1299          16.00        48.39
  251.68        2955.25           1302          17.00        52.75
  251.71        2955.50           1305          20.00        65.82
  251.74        2955.75           1309          17.00        52.75
  251.76        2956.00           1312          21.00        70.18
  251.79        2956.25           1315          18.00        57.11
  251.82        2956.50           1319          22.00        74.54
  251.85        2956.75           1322          19.00        61.46
  251.87        2957.00           1325          19.00        61.46
  251.90        2957.25           1329          20.00        65.82
  251.93        2957.50           1332          17.00        52.75
  251.95        2957.75           1335          18.00        57.11
  251.98        2958.00           1339          21.00        70.18
  252.01        2958.25           1342          21.00        70.18
  252.04        2958.50           1345          21.00        70.18
  252.06        2958.75           1348          19.00        61.46
  252.09        2959.00           1352          18.00        57.11
  252.12        2959.25           1355          20.00        65.82
  252.14        2959.50           1358          23.00        78.90
  252.17        2959.75           1362          21.00        70.18
  252.20        2960.00           1365          18.00        57.11
  252.23        2960.25           1368          22.00        74.54
  252.25        2960.50           1372          27.00        96.34
  252.28        2960.75           1375          29.00       105.06
  252.31        2961.00           1378          74.00       301.22
  252.33        2961.25           1382         360.00      1548.02
  252.36        2961.50           1385         925.00      4011.35
  252.39        2961.75           1388        1949.00      8476.73
  252.42        2962.00           1392        3956.00     17231.94
  252.44        2962.25           1395        5811.00     25327.90
  252.47        2962.50           1398        7917.00     34523.77
  252.50        2962.75           1402       10486.00     45747.75
  252.52        2963.00           1405       12484.00     54481.92
  252.55        2963.25           1408       14618.00     63815.32
  252.58        2963.50           1412       17316.00     75622.46
  252.61        2963.75           1415       19422.00     84844.31
  252.63        2964.00           1418       21463.00     93786.06
  252.66        2964.25           1422       24068.00    105205.30
  252.69        2964.50           1425       26141.00    114297.60
  252.72        2964.75           1428       28399.00    124206.70
  252.74        2965.00           1431       30507.00    133462.50
  252.77        2965.25           1435       33416.00    146243.20
  252.80        2965.50           1438       35501.00    155409.30
  252.83        2965.75           1441       37439.00    163933.40
  252.85        2966.00           1445       40450.00    177185.10
  252.88        2966.25           1448       41991.00    183971.00
  252.91        2966.50           1451       43418.00    190257.20
  252.93        2966.75           1455       44520.00    195113.20
  252.96        2967.00           1458       45171.00    197982.50
  252.99        2967.25           1461       45386.00    198930.20
  253.02        2967.50           1465       45433.00    199137.40
  253.04        2967.75           1468       44891.00    196748.30
  253.07        2968.00           1471       44157.00    193513.40
  253.10        2968.25           1475       42416.00    185842.90
  253.13        2968.50           1478       40551.00    177629.80
  253.15        2968.75           1481       38359.00    167981.40
  253.18        2969.00           1485       35877.00    157062.80
  253.21        2969.25           1488       33491.00    146572.90
  253.24        2969.50           1491       31285.00    136879.80
  253.26        2969.75           1495       28522.00    124746.70
  253.29        2970.00           1498       26526.00    115986.80
  253.32        2970.25           1501       24368.00    106520.80
  253.34        2970.50           1505       21315.00     93137.52
  253.37        2970.75           1508       19149.00     83648.61
  253.40        2971.00           1511       17121.00     74768.84
  253.43        2971.25           1515       14349.00     62638.54
  253.45        2971.50           1518       12073.00     52684.90
  253.48        2971.75           1521        9993.00     43593.28
  253.51        2972.00           1525        7170.00     31261.44
  253.54        2972.25           1528        5230.00     22791.79
  253.56        2972.50           1531        3442.00     14989.29
  253.59        2972.75           1535        1514.00      6579.68
  253.62        2973.00           1538         657.00      2842.86
  253.64        2973.25           1541         226.00       963.84
  253.67        2973.50           1545          51.00       200.96
  253.70        2973.75           1548          35.00       131.21
  253.73        2974.00           1551          29.00       105.06
  253.75        2974.25           1555          24.00        83.26
  253.78        2974.50           1558          25.00        87.62
  253.81        2974.75           1561          29.00       105.06
  253.83        2975.00           1565          25.00        87.62
  253.86        2975.25           1568          22.00        74.54
  253.89        2975.50           1571          22.00        74.54
  253.92        2975.75           1575          24.00        83.26
  253.94        2976.00           1578          21.00        70.18
  253.97        2976.25           1581          19.00        61.46
  254.00        2976.50           1585          20.00        65.82
  254.02        2976.75           1588          21.00        70.18
  254.05        2977.00           1591          19.00        61.46
  254.08        2977.25           1595          17.00        52.75
  254.11        2977.50           1598          22.00        74.54
  254.13        2977.75           1601          19.00        61.46
  254.16        2978.00           1605          24.00        83.26
  254.19        2978.25           1608          17.00        52.75
  254.21        2978.50           1611          17.00        52.75
  254.24        2978.75           1615          17.00        52.75
  254.27        2979.00           1618          20.00        65.82
  254.30        2979.25           1621          22.00        74.54
  254.32        2979.50           1625          21.00        70.18
  254.35        2979.75           1628          18.00        57.11
  254.38        2980.00           1631          19.00        61.46
  254.40        2980.25           1635          17.00        52.75
  254.43        2980.50           1638          21.00        70.18
  254.46        2980.75           1641          20.00        65.82
  254.49        2981.00           1645          18.00        57.11
  254.51        2981.25           1648          19.00        61.46
  254.54        2981.50           1651          15.00        44.03
  254.57        2981.75           1655          18.00        57.11
  254.60        2982.00           1658          15.00        44.03
  254.62        2982.25           1661          18.00        57.11
  254.65        2982.50           1665          22.00        74.54
  254.68        2982.75           1668          14.00        39.67
  254.70        2983.00           1671          18.00        57.11
  254.73        2983.25           1675          16.00        48.39
  254.76        2983.50           1678          18.00        57.11
  254.79        2983.75           1681          21.00        70.18
  254.81        2984.00           1685          20.00        65.82
HS scan finished at 04:15:00
end
