************************************************************
  HS Scan of (1) Internal mercury lamp
************************************************************
Integration time is 0.2294 seconds per sample
dh140317Tamanrasset 22.79-5.529 2.761697pr865
************************************************************
Dead Time -------------------------  2.8E-08 
Number of Cycles Used -------------  4 
Starting Wavelength (Angstroms) ---  2950 
Final Wavelength (Angstoms) -------  2984 
Wavelength Increment (Angstroms) --  .25 
Filter Wheel #1 Position ---------- (1) Ground quartz diffuser (ND=2.32)
Filter Wheel #2 Position ---------- (1) Neutral Density 0.494



************************************************************
HS scan start time = 03:32:29
Dark Count =  4 


Time (GMT)  Wavelength (Ang)  Step Number  Raw Counts  Counts/Second

  212.84        2950.00           1233           8.00        17.44
  212.91        2950.25           1236           0.00         2.00
  212.93        2950.50           1239           6.00         8.72
  212.96        2950.75           1242           8.00        17.44
  212.99        2951.00           1246           0.00         2.00
  213.01        2951.25           1249           4.00         2.00
  213.04        2951.50           1252           0.00         2.00
  213.07        2951.75           1256           0.00         2.00
  213.10        2952.00           1259           0.00         2.00
  213.12        2952.25           1262           8.00        17.44
  213.15        2952.50           1266           2.00         2.00
  213.18        2952.75           1269           6.00         8.72
  213.20        2953.00           1272           2.00         2.00
  213.23        2953.25           1276           0.00         2.00
  213.26        2953.50           1279           0.00         2.00
  213.29        2953.75           1282           0.00         2.00
  213.31        2954.00           1286           2.00         2.00
  213.34        2954.25           1289           0.00         2.00
  213.37        2954.50           1292           0.00         2.00
  213.39        2954.75           1295           0.00         2.00
  213.42        2955.00           1299           3.00         2.00
  213.45        2955.25           1302           8.00        17.44
  213.47        2955.50           1305           6.00         8.72
  213.50        2955.75           1309           8.00        17.44
  213.53        2956.00           1312           1.00         2.00
  213.56        2956.25           1315           8.00        17.44
  213.58        2956.50           1319           8.00        17.44
  213.61        2956.75           1322           0.00         2.00
  213.64        2957.00           1325           6.00         8.72
  213.66        2957.25           1329           0.00         2.00
  213.69        2957.50           1332           8.00        17.44
  213.72        2957.75           1335           8.00        17.44
  213.75        2958.00           1339           3.00         2.00
  213.77        2958.25           1342           0.00         2.00
  213.80        2958.50           1345           2.00         2.00
  213.83        2958.75           1348           4.00         2.00
  213.85        2959.00           1352           8.00        17.44
  213.88        2959.25           1355           7.00        13.08
  213.91        2959.50           1358           0.00         2.00
  213.94        2959.75           1362           7.00        13.08
  213.96        2960.00           1365           3.00         2.00
  213.99        2960.25           1368           8.00        17.44
  214.02        2960.50           1372           1.00         2.00
  214.04        2960.75           1375           5.00         4.36
  214.07        2961.00           1378           1.00         2.00
  214.10        2961.25           1382           7.00        13.08
  214.13        2961.50           1385           8.00        17.44
  214.15        2961.75           1388           6.00         8.72
  214.18        2962.00           1392           5.00         4.36
  214.21        2962.25           1395           3.00         2.00
  214.23        2962.50           1398           2.00         2.00
  214.26        2962.75           1402           0.00         2.00
  214.29        2963.00           1405           8.00        17.44
  214.32        2963.25           1408           8.00        17.44
  214.34        2963.50           1412           3.00         2.00
  214.37        2963.75           1415           0.00         2.00
  214.40        2964.00           1418           2.00         2.00
  214.42        2964.25           1422           8.00        17.44
  214.45        2964.50           1425           0.00         2.00
  214.48        2964.75           1428           8.00        17.44
  214.50        2965.00           1431           3.00         2.00
  214.53        2965.25           1435           8.00        17.44
  214.56        2965.50           1438           6.00         8.72
  214.59        2965.75           1441           5.00         4.36
  214.61        2966.00           1445           0.00         2.00
  214.64        2966.25           1448           0.00         2.00
  214.67        2966.50           1451           0.00         2.00
  214.69        2966.75           1455           7.00        13.08
  214.72        2967.00           1458           1.00         2.00
  214.75        2967.25           1461           8.00        17.44
  214.78        2967.50           1465           4.00         2.00
  214.80        2967.75           1468           5.00         4.36
  214.83        2968.00           1471           1.00         2.00
  214.86        2968.25           1475           6.00         8.72
  214.89        2968.50           1478           6.00         8.72
  214.91        2968.75           1481           0.00         2.00
  214.94        2969.00           1485           8.00        17.44
  214.97        2969.25           1488           2.00         2.00
  214.99        2969.50           1491           5.00         4.36
  215.02        2969.75           1495           0.00         2.00
  215.05        2970.00           1498           4.00         2.00
  215.08        2970.25           1501           4.00         2.00
  215.10        2970.50           1505           0.00         2.00
  215.13        2970.75           1508           3.00         2.00
  215.16        2971.00           1511           3.00         2.00
  215.18        2971.25           1515           1.00         2.00
  215.21        2971.50           1518           1.00         2.00
  215.24        2971.75           1521           8.00        17.44
  215.27        2972.00           1525           0.00         2.00
  215.29        2972.25           1528           0.00         2.00
  215.32        2972.50           1531           5.00         4.36
  215.35        2972.75           1535           0.00         2.00
  215.37        2973.00           1538           1.00         2.00
  215.40        2973.25           1541           1.00         2.00
  215.43        2973.50           1545           4.00         2.00
  215.46        2973.75           1548           0.00         2.00
  215.48        2974.00           1551           5.00         4.36
  215.51        2974.25           1555           3.00         2.00
  215.54        2974.50           1558           2.00         2.00
  215.56        2974.75           1561           7.00        13.08
  215.59        2975.00           1565           8.00        17.44
  215.62        2975.25           1568           3.00         2.00
  215.65        2975.50           1571           0.00         2.00
  215.67        2975.75           1575           7.00        13.08
  215.70        2976.00           1578           3.00         2.00
  215.73        2976.25           1581           0.00         2.00
  215.75        2976.50           1585           4.00         2.00
  215.78        2976.75           1588           0.00         2.00
  215.81        2977.00           1591           8.00        17.44
  215.84        2977.25           1595           7.00        13.08
  215.86        2977.50           1598           6.00         8.72
  215.89        2977.75           1601           0.00         2.00
  215.92        2978.00           1605           8.00        17.44
  215.94        2978.25           1608           8.00        17.44
  215.97        2978.50           1611           1.00         2.00
  216.00        2978.75           1615           4.00         2.00
  216.03        2979.00           1618           7.00        13.08
  216.05        2979.25           1621           3.00         2.00
  216.08        2979.50           1625           0.00         2.00
  216.11        2979.75           1628           8.00        17.44
  216.13        2980.00           1631           0.00         2.00
  216.16        2980.25           1635           0.00         2.00
  216.19        2980.50           1638           3.00         2.00
  216.22        2980.75           1641           8.00        17.44
  216.24        2981.00           1645           4.00         2.00
  216.27        2981.25           1648           0.00         2.00
  216.30        2981.50           1651           1.00         2.00
  216.32        2981.75           1655           2.00         2.00
  216.35        2982.00           1658           8.00        17.44
  216.38        2982.25           1661           8.00        17.44
  216.41        2982.50           1665           8.00        17.44
  216.43        2982.75           1668           1.00         2.00
  216.46        2983.00           1671           0.00         2.00
  216.49        2983.25           1675           8.00        17.44
  216.51        2983.50           1678           0.00         2.00
  216.54        2983.75           1681           8.00        17.44
  216.57        2984.00           1685           0.00         2.00
HS scan finished at 03:36:45
end
