************************************************************
  HS Scan of (1) Internal mercury lamp
************************************************************
Integration time is 0.2294 seconds per sample
dh170317Tamanrasset 22.79-5.529 2.736205pr865
************************************************************
Dead Time -------------------------  2.8E-08 
Number of Cycles Used -------------  4 
Starting Wavelength (Angstroms) ---  2950 
Final Wavelength (Angstoms) -------  2984 
Wavelength Increment (Angstroms) --  .25 
Filter Wheel #1 Position ---------- (1) Ground quartz diffuser (ND=2.32)
Filter Wheel #2 Position ---------- (1) Neutral Density 0.494



************************************************************
HS scan start time = 03:29:16
Dark Count =  2.3 


Time (GMT)  Wavelength (Ang)  Step Number  Raw Counts  Counts/Second

  209.62        2950.00           1233           8.00        24.85
  209.68        2950.25           1236           6.00        16.13
  209.71        2950.50           1239           0.00         2.00
  209.73        2950.75           1242           8.00        24.85
  209.76        2951.00           1246           8.00        24.85
  209.79        2951.25           1249           3.00         3.05
  209.81        2951.50           1252           6.00        16.13
  209.84        2951.75           1256           5.00        11.77
  209.87        2952.00           1259           7.00        20.49
  209.90        2952.25           1262           2.00         2.00
  209.92        2952.50           1266           4.00         7.41
  209.95        2952.75           1269           1.00         2.00
  209.98        2953.00           1272           5.00        11.77
  210.00        2953.25           1276           0.00         2.00
  210.03        2953.50           1279           7.00        20.49
  210.06        2953.75           1282           8.00        24.85
  210.09        2954.00           1286           8.00        24.85
  210.11        2954.25           1289           4.00         7.41
  210.14        2954.50           1292           3.00         3.05
  210.17        2954.75           1295           8.00        24.85
  210.19        2955.00           1299           0.00         2.00
  210.22        2955.25           1302           0.00         2.00
  210.25        2955.50           1305           3.00         3.05
  210.28        2955.75           1309           2.00         2.00
  210.30        2956.00           1312           7.00        20.49
  210.33        2956.25           1315           8.00        24.85
  210.36        2956.50           1319           0.00         2.00
  210.38        2956.75           1322           8.00        24.85
  210.41        2957.00           1325           5.00        11.77
  210.44        2957.25           1329           0.00         2.00
  210.47        2957.50           1332           6.00        16.13
  210.49        2957.75           1335           8.00        24.85
  210.52        2958.00           1339           6.00        16.13
  210.55        2958.25           1342           0.00         2.00
  210.57        2958.50           1345           8.00        24.85
  210.60        2958.75           1348           6.00        16.13
  210.63        2959.00           1352           0.00         2.00
  210.66        2959.25           1355           8.00        24.85
  210.68        2959.50           1358           4.00         7.41
  210.71        2959.75           1362           3.00         3.05
  210.74        2960.00           1365           8.00        24.85
  210.76        2960.25           1368           8.00        24.85
  210.79        2960.50           1372           8.00        24.85
  210.82        2960.75           1375           0.00         2.00
  210.84        2961.00           1378           8.00        24.85
  210.87        2961.25           1382           3.00         3.05
  210.90        2961.50           1385           7.00        20.49
  210.93        2961.75           1388           7.00        20.49
  210.95        2962.00           1392           3.00         3.05
  210.98        2962.25           1395           3.00         3.05
  211.01        2962.50           1398           0.00         2.00
  211.03        2962.75           1402           0.00         2.00
  211.06        2963.00           1405           0.00         2.00
  211.09        2963.25           1408           0.00         2.00
  211.12        2963.50           1412           3.00         3.05
  211.14        2963.75           1415           8.00        24.85
  211.17        2964.00           1418           8.00        24.85
  211.20        2964.25           1422           8.00        24.85
  211.22        2964.50           1425           0.00         2.00
  211.25        2964.75           1428           3.00         3.05
  211.28        2965.00           1431           5.00        11.77
  211.31        2965.25           1435           0.00         2.00
  211.33        2965.50           1438           0.00         2.00
  211.36        2965.75           1441           4.00         7.41
  211.39        2966.00           1445           8.00        24.85
  211.41        2966.25           1448           8.00        24.85
  211.44        2966.50           1451           7.00        20.49
  211.47        2966.75           1455           8.00        24.85
  211.50        2967.00           1458           2.00         2.00
  211.52        2967.25           1461           0.00         2.00
  211.55        2967.50           1465           0.00         2.00
  211.58        2967.75           1468           0.00         2.00
  211.60        2968.00           1471           4.00         7.41
  211.63        2968.25           1475           8.00        24.85
  211.66        2968.50           1478           4.00         7.41
  211.68        2968.75           1481           8.00        24.85
  211.71        2969.00           1485           1.00         2.00
  211.74        2969.25           1488           0.00         2.00
  211.77        2969.50           1491           4.00         7.41
  211.79        2969.75           1495           4.00         7.41
  211.82        2970.00           1498           0.00         2.00
  211.85        2970.25           1501           0.00         2.00
  211.87        2970.50           1505           5.00        11.77
  211.90        2970.75           1508           0.00         2.00
  211.93        2971.00           1511           0.00         2.00
  211.96        2971.25           1515           8.00        24.85
  211.98        2971.50           1518           0.00         2.00
  212.01        2971.75           1521           5.00        11.77
  212.04        2972.00           1525           0.00         2.00
  212.06        2972.25           1528           1.00         2.00
  212.09        2972.50           1531           8.00        24.85
  212.12        2972.75           1535           4.00         7.41
  212.15        2973.00           1538           0.00         2.00
  212.17        2973.25           1541           5.00        11.77
  212.20        2973.50           1545           8.00        24.85
  212.23        2973.75           1548           8.00        24.85
  212.25        2974.00           1551           4.00         7.41
  212.28        2974.25           1555           8.00        24.85
  212.31        2974.50           1558           6.00        16.13
  212.34        2974.75           1561           0.00         2.00
  212.36        2975.00           1565           8.00        24.85
  212.39        2975.25           1568           1.00         2.00
  212.42        2975.50           1571           8.00        24.85
  212.44        2975.75           1575           8.00        24.85
  212.47        2976.00           1578           0.00         2.00
  212.50        2976.25           1581           2.00         2.00
  212.52        2976.50           1585           5.00        11.77
  212.55        2976.75           1588           0.00         2.00
  212.58        2977.00           1591           1.00         2.00
  212.61        2977.25           1595           7.00        20.49
  212.63        2977.50           1598           8.00        24.85
  212.66        2977.75           1601           5.00        11.77
  212.69        2978.00           1605           8.00        24.85
  212.71        2978.25           1608           0.00         2.00
  212.74        2978.50           1611           5.00        11.77
  212.77        2978.75           1615           8.00        24.85
  212.80        2979.00           1618           7.00        20.49
  212.82        2979.25           1621           1.00         2.00
  212.85        2979.50           1625           8.00        24.85
  212.88        2979.75           1628           8.00        24.85
  212.90        2980.00           1631           0.00         2.00
  212.93        2980.25           1635           0.00         2.00
  212.96        2980.50           1638           8.00        24.85
  212.99        2980.75           1641           8.00        24.85
  213.01        2981.00           1645           7.00        20.49
  213.04        2981.25           1648           8.00        24.85
  213.07        2981.50           1651           0.00         2.00
  213.09        2981.75           1655           0.00         2.00
  213.12        2982.00           1658           3.00         3.05
  213.15        2982.25           1661           8.00        24.85
  213.18        2982.50           1665           4.00         7.41
  213.20        2982.75           1668           8.00        24.85
  213.23        2983.00           1671           4.00         7.41
  213.26        2983.25           1675           7.00        20.49
  213.28        2983.50           1678           0.00         2.00
  213.31        2983.75           1681           6.00        16.13
  213.34        2984.00           1685           8.00        24.85
HS scan finished at 03:33:32
end
