************************************************************
  HS Scan of (1) Internal mercury lamp
************************************************************
Integration time is 0.2294 seconds per sample
dh180319Tamanrasset 22.79-5.529 4.974364pr865
************************************************************
Dead Time -------------------------  2.8E-08 
Number of Cycles Used -------------  4 
Starting Wavelength (Angstroms) ---  2950 
Final Wavelength (Angstoms) -------  2984 
Wavelength Increment (Angstroms) --  .25 
Filter Wheel #1 Position ---------- (1) Ground quartz diffuser (ND=2.32)
Filter Wheel #2 Position ---------- (1) Neutral Density 0.494



************************************************************
HS scan start time = 03:57:20
Dark Count =  4.5 


Time (GMT)  Wavelength (Ang)  Step Number  Raw Counts  Counts/Second

  237.69        2950.00           1233          19.00        63.21
  237.75        2950.25           1236          21.00        71.93
  237.78        2950.50           1239          23.00        80.65
  237.81        2950.75           1242          16.00        50.13
  237.84        2951.00           1246          16.00        50.13
  237.86        2951.25           1249          16.00        50.13
  237.89        2951.50           1252          21.00        71.93
  237.92        2951.75           1256          25.00        89.36
  237.94        2952.00           1259          19.00        63.21
  237.97        2952.25           1262          16.00        50.13
  238.00        2952.50           1266          24.00        85.00
  238.03        2952.75           1269          16.00        50.13
  238.05        2953.00           1272          19.00        63.21
  238.08        2953.25           1276          16.00        50.13
  238.11        2953.50           1279          19.00        63.21
  238.13        2953.75           1282          17.00        54.49
  238.16        2954.00           1286          19.00        63.21
  238.19        2954.25           1289          17.00        54.49
  238.22        2954.50           1292          22.00        76.29
  238.24        2954.75           1295          21.00        71.93
  238.27        2955.00           1299          19.00        63.21
  238.30        2955.25           1302          22.00        76.29
  238.32        2955.50           1305          13.00        37.05
  238.35        2955.75           1309          20.00        67.57
  238.38        2956.00           1312          15.00        45.77
  238.41        2956.25           1315          19.00        63.21
  238.43        2956.50           1319          20.00        67.57
  238.46        2956.75           1322          19.00        63.21
  238.49        2957.00           1325          19.00        63.21
  238.51        2957.25           1329          17.00        54.49
  238.54        2957.50           1332          18.00        58.85
  238.57        2957.75           1335          20.00        67.57
  238.60        2958.00           1339          21.00        71.93
  238.62        2958.25           1342          19.00        63.21
  238.65        2958.50           1345          19.00        63.21
  238.68        2958.75           1348          21.00        71.93
  238.70        2959.00           1352          19.00        63.21
  238.73        2959.25           1355          20.00        67.57
  238.76        2959.50           1358          23.00        80.65
  238.79        2959.75           1362          20.00        67.57
  238.81        2960.00           1365          21.00        71.93
  238.84        2960.25           1368          23.00        80.65
  238.87        2960.50           1372          33.00       124.24
  238.89        2960.75           1375          39.00       150.39
  238.92        2961.00           1378          80.00       329.12
  238.95        2961.25           1382         408.00      1759.02
  238.98        2961.50           1385        1022.00      4436.03
  239.00        2961.75           1388        2088.00      9084.70
  239.03        2962.00           1392        4375.00     19062.05
  239.06        2962.25           1395        6424.00     28005.83
  239.09        2962.50           1398        8899.00     38815.05
  239.11        2962.75           1402       11924.00     52035.22
  239.14        2963.00           1405       14130.00     61682.30
  239.17        2963.25           1408       16739.00     73098.46
  239.19        2963.50           1412       19727.00     86182.00
  239.22        2963.75           1415       22285.00     97390.32
  239.25        2964.00           1418       24582.00    107461.10
  239.28        2964.25           1422       27542.00    120446.90
  239.30        2964.50           1425       29866.00    130649.30
  239.33        2964.75           1428       32448.00    141991.00
  239.36        2965.00           1431       34790.00    152284.80
  239.39        2965.25           1435       37866.00    165813.80
  239.41        2965.50           1438       40772.00    178604.60
  239.44        2965.75           1441       42939.00    188148.60
  239.47        2966.00           1445       46086.00    202017.90
  239.49        2966.25           1448       48072.00    210776.00
  239.52        2966.50           1451       49691.00    217918.90
  239.55        2966.75           1455       51397.00    225448.80
  239.58        2967.00           1458       51702.00    226795.30
  239.60        2967.25           1461       51938.00    227837.30
  239.63        2967.50           1465       51873.00    227550.30
  239.66        2967.75           1468       51398.00    225453.20
  239.69        2968.00           1471       50603.00    221943.90
  239.71        2968.25           1475       48653.00    213339.00
  239.74        2968.50           1478       46622.00    204381.20
  239.77        2968.75           1481       44710.00    195952.30
  239.80        2969.00           1485       41405.00    181391.90
  239.82        2969.25           1488       38687.00    169426.50
  239.85        2969.50           1491       36047.00    157812.20
  239.88        2969.75           1495       32951.00    144201.40
  239.90        2970.00           1498       30297.00    132542.00
  239.93        2970.25           1501       27810.00    121623.20
  239.96        2970.50           1505       24334.00    106373.50
  239.99        2970.75           1508       21893.00     95672.25
  240.01        2971.00           1511       19461.00     85016.88
  240.04        2971.25           1515       16340.00     71352.09
  240.07        2971.50           1518       14001.00     61118.02
  240.10        2971.75           1521       11630.00     50749.92
  240.12        2972.00           1525        8539.00     37242.39
  240.15        2972.25           1528        6183.00     26953.64
  240.18        2972.50           1531        4068.00     17722.40
  240.20        2972.75           1535        1811.00      7876.63
  240.23        2973.00           1538         721.00      3123.64
  240.26        2973.25           1541         237.00      1013.54
  240.29        2973.50           1545          46.00       180.91
  240.31        2973.75           1548          37.00       141.67
  240.34        2974.00           1551          28.00       102.44
  240.37        2974.25           1555          29.00       106.80
  240.40        2974.50           1558          23.00        80.65
  240.42        2974.75           1561          24.00        85.00
  240.45        2975.00           1565          19.00        63.21
  240.48        2975.25           1568          17.00        54.49
  240.50        2975.50           1571          25.00        89.36
  240.53        2975.75           1575          24.00        85.00
  240.56        2976.00           1578          22.00        76.29
  240.59        2976.25           1581          19.00        63.21
  240.61        2976.50           1585          20.00        67.57
  240.64        2976.75           1588          25.00        89.36
  240.67        2977.00           1591          17.00        54.49
  240.69        2977.25           1595          24.00        85.00
  240.72        2977.50           1598          21.00        71.93
  240.75        2977.75           1601          16.00        50.13
  240.78        2978.00           1605          23.00        80.65
  240.80        2978.25           1608          23.00        80.65
  240.83        2978.50           1611          18.00        58.85
  240.86        2978.75           1615          19.00        63.21
  240.88        2979.00           1618          25.00        89.36
  240.91        2979.25           1621          18.00        58.85
  240.94        2979.50           1625          21.00        71.93
  240.97        2979.75           1628          22.00        76.29
  240.99        2980.00           1631          18.00        58.85
  241.02        2980.25           1635          22.00        76.29
  241.05        2980.50           1638          20.00        67.57
  241.07        2980.75           1641          22.00        76.29
  241.10        2981.00           1645          15.00        45.77
  241.13        2981.25           1648          21.00        71.93
  241.16        2981.50           1651          23.00        80.65
  241.18        2981.75           1655          18.00        58.85
  241.21        2982.00           1658          17.00        54.49
  241.24        2982.25           1661          14.00        41.41
  241.26        2982.50           1665          20.00        67.57
  241.29        2982.75           1668          13.00        37.05
  241.32        2983.00           1671          16.00        50.13
  241.35        2983.25           1675          17.00        54.49
  241.37        2983.50           1678          22.00        76.29
  241.40        2983.75           1681          20.00        67.57
  241.43        2984.00           1685          18.00        58.85
HS scan finished at 04:01:37
end
