************************************************************
  HS Scan of (1) Internal mercury lamp
************************************************************
Integration time is 0.2294 seconds per sample
dh160319Tamanrasset 22.79-5.529 4.974364pr865
************************************************************
Dead Time -------------------------  2.8E-08 
Number of Cycles Used -------------  4 
Starting Wavelength (Angstroms) ---  2950 
Final Wavelength (Angstoms) -------  2984 
Wavelength Increment (Angstroms) --  .25 
Filter Wheel #1 Position ---------- (1) Ground quartz diffuser (ND=2.32)
Filter Wheel #2 Position ---------- (1) Neutral Density 0.494



************************************************************
HS scan start time = 03:59:17
Dark Count =  2.2 


Time (GMT)  Wavelength (Ang)  Step Number  Raw Counts  Counts/Second

  239.65        2950.00           1233          19.00        73.23
  239.71        2950.25           1236          16.00        60.16
  239.74        2950.50           1239          14.00        51.44
  239.77        2950.75           1242          15.00        55.80
  239.79        2951.00           1246          19.00        73.23
  239.82        2951.25           1249          20.00        77.59
  239.85        2951.50           1252          20.00        77.59
  239.88        2951.75           1256          17.00        64.52
  239.90        2952.00           1259          18.00        68.88
  239.93        2952.25           1262          16.00        60.16
  239.96        2952.50           1266          18.00        68.88
  239.98        2952.75           1269          19.00        73.23
  240.01        2953.00           1272          20.00        77.59
  240.04        2953.25           1276          18.00        68.88
  240.07        2953.50           1279          17.00        64.52
  240.09        2953.75           1282          15.00        55.80
  240.12        2954.00           1286          19.00        73.23
  240.15        2954.25           1289          15.00        55.80
  240.17        2954.50           1292          15.00        55.80
  240.20        2954.75           1295          20.00        77.59
  240.23        2955.00           1299          19.00        73.23
  240.26        2955.25           1302          22.00        86.31
  240.28        2955.50           1305          21.00        81.95
  240.31        2955.75           1309          21.00        81.95
  240.34        2956.00           1312          22.00        86.31
  240.36        2956.25           1315          16.00        60.16
  240.39        2956.50           1319          18.00        68.88
  240.42        2956.75           1322          19.00        73.23
  240.45        2957.00           1325          23.00        90.67
  240.47        2957.25           1329          21.00        81.95
  240.50        2957.50           1332          22.00        86.31
  240.53        2957.75           1335          19.00        73.23
  240.55        2958.00           1339          16.00        60.16
  240.58        2958.25           1342          18.00        68.88
  240.61        2958.50           1345          18.00        68.88
  240.64        2958.75           1348          19.00        73.23
  240.66        2959.00           1352          23.00        90.67
  240.69        2959.25           1355          20.00        77.59
  240.72        2959.50           1358          22.00        86.31
  240.74        2959.75           1362          20.00        77.59
  240.77        2960.00           1365          21.00        81.95
  240.80        2960.25           1368          27.00       108.11
  240.83        2960.50           1372          24.00        95.03
  240.85        2960.75           1375          32.00       129.90
  240.88        2961.00           1378          62.00       260.68
  240.91        2961.25           1382         322.00      1394.13
  240.93        2961.50           1385         827.00      3595.83
  240.96        2961.75           1388        1652.00      7193.25
  240.99        2962.00           1392        3661.00     15956.56
  241.02        2962.25           1395        5628.00     24540.83
  241.04        2962.50           1398        7645.00     33347.60
  241.07        2962.75           1402       10271.00     44819.94
  241.10        2963.00           1405       12437.00     54288.21
  241.13        2963.25           1408       14340.00     62610.98
  241.15        2963.50           1412       17219.00     75209.66
  241.18        2963.75           1415       19232.00     84023.96
  241.21        2964.00           1418       21328.00     93206.32
  241.24        2964.25           1422       24060.00    105182.00
  241.26        2964.50           1425       25969.00    113554.90
  241.29        2964.75           1428       28386.00    124161.50
  241.32        2965.00           1431       30574.00    133768.60
  241.34        2965.25           1435       33107.00    144897.10
  241.37        2965.50           1438       35623.00    155957.70
  241.40        2965.75           1441       37528.00    164336.90
  241.43        2966.00           1445       40347.00    176743.50
  241.45        2966.25           1448       42225.00    185013.50
  241.48        2966.50           1451       43803.00    191965.40
  241.51        2966.75           1455       44755.00    196160.80
  241.54        2967.00           1458       45472.00    199321.20
  241.56        2967.25           1461       45849.00    200983.10
  241.59        2967.50           1465       45490.00    199400.50
  241.62        2967.75           1468       45212.00    198175.10
  241.65        2968.00           1471       44529.00    195164.70
  241.67        2968.25           1475       42713.00    187163.10
  241.70        2968.50           1478       40900.00    179178.30
  241.73        2968.75           1481       38976.00    170708.50
  241.76        2969.00           1485       36072.00    157932.30
  241.78        2969.25           1488       33886.00    148320.90
  241.81        2969.50           1491       31696.00    138697.10
  241.84        2969.75           1495       28846.00    126180.90
  241.86        2970.00           1498       26645.00    116520.80
  241.89        2970.25           1501       24549.00    107326.40
  241.92        2970.50           1505       21609.00     94437.71
  241.95        2970.75           1508       19399.00     84755.39
  241.97        2971.00           1511       17157.00     74938.25
  242.00        2971.25           1515       14387.00     62816.58
  242.03        2971.50           1518       12164.00     53094.57
  242.06        2971.75           1521       10052.00     43862.91
  242.08        2972.00           1525        7380.00     32190.29
  242.11        2972.25           1528        5339.00     23279.34
  242.14        2972.50           1531        3466.00     15105.78
  242.17        2972.75           1535        1484.00      6460.63
  242.19        2973.00           1538         676.00      2937.47
  242.22        2973.25           1541         225.00       971.26
  242.25        2973.50           1545          53.00       221.45
  242.27        2973.75           1548          31.00       125.55
  242.30        2974.00           1551          31.00       125.55
  242.33        2974.25           1555          19.00        73.23
  242.36        2974.50           1558          23.00        90.67
  242.38        2974.75           1561          23.00        90.67
  242.41        2975.00           1565          24.00        95.03
  242.44        2975.25           1568          25.00        99.39
  242.46        2975.50           1571          17.00        64.52
  242.49        2975.75           1575          23.00        90.67
  242.52        2976.00           1578          20.00        77.59
  242.55        2976.25           1581          16.00        60.16
  242.57        2976.50           1585          23.00        90.67
  242.60        2976.75           1588          21.00        81.95
  242.63        2977.00           1591          19.00        73.23
  242.65        2977.25           1595          16.00        60.16
  242.68        2977.50           1598          20.00        77.59
  242.71        2977.75           1601          23.00        90.67
  242.74        2978.00           1605          19.00        73.23
  242.76        2978.25           1608          21.00        81.95
  242.79        2978.50           1611          20.00        77.59
  242.82        2978.75           1615          23.00        90.67
  242.84        2979.00           1618          19.00        73.23
  242.87        2979.25           1621          21.00        81.95
  242.90        2979.50           1625          17.00        64.52
  242.93        2979.75           1628          22.00        86.31
  242.95        2980.00           1631          18.00        68.88
  242.98        2980.25           1635          21.00        81.95
  243.01        2980.50           1638          16.00        60.16
  243.03        2980.75           1641          20.00        77.59
  243.06        2981.00           1645          20.00        77.59
  243.09        2981.25           1648          21.00        81.95
  243.12        2981.50           1651          20.00        77.59
  243.14        2981.75           1655          19.00        73.23
  243.17        2982.00           1658          19.00        73.23
  243.20        2982.25           1661          18.00        68.88
  243.22        2982.50           1665          17.00        64.52
  243.25        2982.75           1668          20.00        77.59
  243.28        2983.00           1671          18.00        68.88
  243.31        2983.25           1675          18.00        68.88
  243.33        2983.50           1678          17.00        64.52
  243.36        2983.75           1681          20.00        77.59
  243.39        2984.00           1685          18.00        68.88
HS scan finished at 04:03:34
end
