************************************************************
  HS Scan of (1) Internal mercury lamp
************************************************************
Integration time is 0.2294 seconds per sample
dh150319Tamanrasset 22.79-5.529 4.974364pr865
************************************************************
Dead Time -------------------------  2.8E-08 
Number of Cycles Used -------------  4 
Starting Wavelength (Angstroms) ---  2950 
Final Wavelength (Angstoms) -------  2984 
Wavelength Increment (Angstroms) --  .25 
Filter Wheel #1 Position ---------- (1) Ground quartz diffuser (ND=2.32)
Filter Wheel #2 Position ---------- (1) Neutral Density 0.494



************************************************************
HS scan start time = 04:00:16
Dark Count =  5 


Time (GMT)  Wavelength (Ang)  Step Number  Raw Counts  Counts/Second

  240.62        2950.00           1233          21.00        69.75
  240.69        2950.25           1236          23.00        78.47
  240.71        2950.50           1239          23.00        78.47
  240.74        2950.75           1242          21.00        69.75
  240.77        2951.00           1246          19.00        61.03
  240.80        2951.25           1249          23.00        78.47
  240.82        2951.50           1252          20.00        65.39
  240.85        2951.75           1256          18.00        56.67
  240.88        2952.00           1259          22.00        74.11
  240.91        2952.25           1262          21.00        69.75
  240.93        2952.50           1266          20.00        65.39
  240.96        2952.75           1269          18.00        56.67
  240.99        2953.00           1272          19.00        61.03
  241.01        2953.25           1276          17.00        52.31
  241.04        2953.50           1279          17.00        52.31
  241.07        2953.75           1282          19.00        61.03
  241.10        2954.00           1286          18.00        56.67
  241.12        2954.25           1289          15.00        43.59
  241.15        2954.50           1292          18.00        56.67
  241.18        2954.75           1295          19.00        61.03
  241.20        2955.00           1299          20.00        65.39
  241.23        2955.25           1302          15.00        43.59
  241.26        2955.50           1305          21.00        69.75
  241.29        2955.75           1309          22.00        74.11
  241.31        2956.00           1312          17.00        52.31
  241.34        2956.25           1315          22.00        74.11
  241.37        2956.50           1319          20.00        65.39
  241.39        2956.75           1322          18.00        56.67
  241.42        2957.00           1325          18.00        56.67
  241.45        2957.25           1329          17.00        52.31
  241.48        2957.50           1332          16.00        47.95
  241.50        2957.75           1335          21.00        69.75
  241.53        2958.00           1339          16.00        47.95
  241.56        2958.25           1342          18.00        56.67
  241.58        2958.50           1345          16.00        47.95
  241.61        2958.75           1348          20.00        65.39
  241.64        2959.00           1352          21.00        69.75
  241.67        2959.25           1355          19.00        61.03
  241.69        2959.50           1358          22.00        74.11
  241.72        2959.75           1362          20.00        65.39
  241.75        2960.00           1365          23.00        78.47
  241.77        2960.25           1368          21.00        69.75
  241.80        2960.50           1372          27.00        95.90
  241.83        2960.75           1375          31.00       113.34
  241.86        2961.00           1378          72.00       292.07
  241.88        2961.25           1382         368.00      1582.46
  241.91        2961.50           1385         939.00      4071.96
  241.94        2961.75           1388        1858.00      8079.42
  241.96        2962.00           1392        3965.00     17270.77
  241.99        2962.25           1395        5861.00     25545.73
  242.02        2962.50           1398        7898.00     34440.35
  242.05        2962.75           1402       10456.00     45616.21
  242.07        2963.00           1405       12504.00     54568.93
  242.10        2963.25           1408       14587.00     63679.26
  242.13        2963.50           1412       17209.00     75153.63
  242.16        2963.75           1415       19268.00     84169.37
  242.18        2964.00           1418       21385.00     93443.83
  242.21        2964.25           1422       24028.00    105029.40
  242.24        2964.50           1425       26078.00    114020.80
  242.27        2964.75           1428       28312.00    123824.40
  242.29        2965.00           1431       30420.00    133080.00
  242.32        2965.25           1435       33216.00    145363.80
  242.35        2965.50           1438       35277.00    154423.90
  242.38        2965.75           1441       37241.00    163061.90
  242.40        2966.00           1445       40047.00    175410.40
  242.43        2966.25           1448       41766.00    182979.60
  242.46        2966.50           1451       43167.00    189150.90
  242.49        2966.75           1455       44405.00    194605.90
  242.51        2967.00           1458       44975.00    197118.10
  242.54        2967.25           1461       44999.00    197223.90
  242.57        2967.50           1465       44904.00    196805.10
  242.59        2967.75           1468       44466.00    194874.70
  242.62        2968.00           1471       43888.00    192327.60
  242.65        2968.25           1475       42041.00    184190.80
  242.68        2968.50           1478       40274.00    176409.80
  242.70        2968.75           1481       38238.00    167448.50
  242.73        2969.00           1485       35444.00    155158.20
  242.76        2969.25           1488       33217.00    145368.20
  242.79        2969.50           1491       31239.00    136677.20
  242.81        2969.75           1495       28471.00    124522.30
  242.84        2970.00           1498       26224.00    114661.40
  242.87        2970.25           1501       24024.00    105011.90
  242.90        2970.50           1505       21214.00     92694.50
  242.92        2970.75           1508       19217.00     83946.00
  242.95        2971.00           1511       17109.00     74715.88
  242.98        2971.25           1515       14090.00     61505.14
  243.00        2971.50           1518       12013.00     52422.14
  243.03        2971.75           1521       10047.00     43828.82
  243.06        2972.00           1525        7255.00     31632.19
  243.09        2972.25           1528        5295.00     23075.06
  243.11        2972.50           1531        3459.00     15063.02
  243.14        2972.75           1535        1596.00      6936.83
  243.17        2973.00           1538         674.00      2916.54
  243.20        2973.25           1541         211.00       898.02
  243.22        2973.50           1545          56.00       222.32
  243.25        2973.75           1548          33.00       122.06
  243.28        2974.00           1551          28.00       100.26
  243.31        2974.25           1555          25.00        87.18
  243.33        2974.50           1558          23.00        78.47
  243.36        2974.75           1561          23.00        78.47
  243.39        2975.00           1565          25.00        87.18
  243.41        2975.25           1568          18.00        56.67
  243.44        2975.50           1571          24.00        82.82
  243.47        2975.75           1575          21.00        69.75
  243.50        2976.00           1578          24.00        82.82
  243.52        2976.25           1581          19.00        61.03
  243.55        2976.50           1585          22.00        74.11
  243.58        2976.75           1588          22.00        74.11
  243.60        2977.00           1591          19.00        61.03
  243.63        2977.25           1595          21.00        69.75
  243.66        2977.50           1598          15.00        43.59
  243.69        2977.75           1601          17.00        52.31
  243.71        2978.00           1605          18.00        56.67
  243.74        2978.25           1608          18.00        56.67
  243.77        2978.50           1611          21.00        69.75
  243.79        2978.75           1615          23.00        78.47
  243.82        2979.00           1618          25.00        87.18
  243.85        2979.25           1621          18.00        56.67
  243.88        2979.50           1625          19.00        61.03
  243.90        2979.75           1628          23.00        78.47
  243.93        2980.00           1631          19.00        61.03
  243.96        2980.25           1635          17.00        52.31
  243.98        2980.50           1638          17.00        52.31
  244.01        2980.75           1641          17.00        52.31
  244.04        2981.00           1645          19.00        61.03
  244.07        2981.25           1648          16.00        47.95
  244.09        2981.50           1651          19.00        61.03
  244.12        2981.75           1655          22.00        74.11
  244.15        2982.00           1658          15.00        43.59
  244.17        2982.25           1661          21.00        69.75
  244.20        2982.50           1665          21.00        69.75
  244.23        2982.75           1668          18.00        56.67
  244.26        2983.00           1671          19.00        61.03
  244.28        2983.25           1675          19.00        61.03
  244.31        2983.50           1678          20.00        65.39
  244.34        2983.75           1681          18.00        56.67
  244.36        2984.00           1685          25.00        87.18
HS scan finished at 04:04:33
end
