************************************************************
  HS Scan of (1) Internal mercury lamp
************************************************************
Integration time is 0.2294 seconds per sample
dh120319Tamanrasset 22.79-5.529 4.974364pr865
************************************************************
Dead Time -------------------------  2.8E-08 
Number of Cycles Used -------------  4 
Starting Wavelength (Angstroms) ---  2950 
Final Wavelength (Angstoms) -------  2984 
Wavelength Increment (Angstroms) --  .25 
Filter Wheel #1 Position ---------- (1) Ground quartz diffuser (ND=2.32)
Filter Wheel #2 Position ---------- (1) Neutral Density 0.494



************************************************************
HS scan start time = 04:01:48
Dark Count =  5.1 


Time (GMT)  Wavelength (Ang)  Step Number  Raw Counts  Counts/Second

  242.16        2950.00           1233          20.00        64.95
  242.23        2950.25           1236          18.00        56.23
  242.25        2950.50           1239          22.00        73.67
  242.28        2950.75           1242          13.00        34.44
  242.31        2951.00           1246          22.00        73.67
  242.33        2951.25           1249          20.00        64.95
  242.36        2951.50           1252          22.00        73.67
  242.39        2951.75           1256          19.00        60.59
  242.42        2952.00           1259          23.00        78.03
  242.44        2952.25           1262          18.00        56.23
  242.47        2952.50           1266          19.00        60.59
  242.50        2952.75           1269          13.00        34.44
  242.52        2953.00           1272          17.00        51.87
  242.55        2953.25           1276          20.00        64.95
  242.58        2953.50           1279          18.00        56.23
  242.61        2953.75           1282          21.00        69.31
  242.63        2954.00           1286          19.00        60.59
  242.66        2954.25           1289          21.00        69.31
  242.69        2954.50           1292          16.00        47.52
  242.71        2954.75           1295          17.00        51.87
  242.74        2955.00           1299          18.00        56.23
  242.77        2955.25           1302          19.00        60.59
  242.80        2955.50           1305          18.00        56.23
  242.82        2955.75           1309          19.00        60.59
  242.85        2956.00           1312          20.00        64.95
  242.88        2956.25           1315          13.00        34.44
  242.90        2956.50           1319          19.00        60.59
  242.93        2956.75           1322          17.00        51.87
  242.96        2957.00           1325          19.00        60.59
  242.99        2957.25           1329          15.00        43.16
  243.01        2957.50           1332          17.00        51.87
  243.04        2957.75           1335          16.00        47.52
  243.07        2958.00           1339          20.00        64.95
  243.10        2958.25           1342          18.00        56.23
  243.12        2958.50           1345          24.00        82.39
  243.15        2958.75           1348          15.00        43.16
  243.18        2959.00           1352          18.00        56.23
  243.20        2959.25           1355          20.00        64.95
  243.23        2959.50           1358          20.00        64.95
  243.26        2959.75           1362          22.00        73.67
  243.29        2960.00           1365          22.00        73.67
  243.31        2960.25           1368          23.00        78.03
  243.34        2960.50           1372          28.00        99.83
  243.37        2960.75           1375          32.00       117.26
  243.39        2961.00           1378          70.00       282.91
  243.42        2961.25           1382         351.00      1507.91
  243.45        2961.50           1385         931.00      4036.64
  243.48        2961.75           1388        1874.00      8148.76
  243.50        2962.00           1392        3852.00     16777.28
  243.53        2962.25           1395        5758.00     25095.66
  243.56        2962.50           1398        7751.00     33797.88
  243.58        2962.75           1402       10480.00     45720.66
  243.61        2963.00           1405       12469.00     54415.46
  243.64        2963.25           1408       14506.00     63324.48
  243.67        2963.50           1412       17273.00     75433.36
  243.69        2963.75           1415       19059.00     83253.57
  243.72        2964.00           1418       21262.00     92904.40
  243.75        2964.25           1422       24051.00    105129.90
  243.78        2964.50           1425       26192.00    114520.50
  243.80        2964.75           1428       28379.00    124118.10
  243.83        2965.00           1431       30513.00    133488.00
  243.86        2965.25           1435       33307.00    145763.30
  243.89        2965.50           1438       35307.00    154555.40
  243.91        2965.75           1441       37808.00    165556.00
  243.94        2966.00           1445       40337.00    176686.70
  243.97        2966.25           1448       42218.00    184969.90
  243.99        2966.50           1451       43459.00    190436.90
  244.02        2966.75           1455       44827.00    196465.30
  244.05        2967.00           1458       45145.00    197867.00
  244.08        2967.25           1461       45317.00    198625.10
  244.10        2967.50           1465       45169.00    197972.80
  244.13        2967.75           1468       45145.00    197867.00
  244.16        2968.00           1471       44100.00    193261.40
  244.19        2968.25           1475       42512.00    186264.90
  244.21        2968.50           1478       40962.00    179438.50
  244.24        2968.75           1481       38878.00    170264.40
  244.27        2969.00           1485       36165.00    158328.50
  244.30        2969.25           1488       33562.00    146884.00
  244.32        2969.50           1491       31561.00    138091.30
  244.35        2969.75           1495       28592.00    125053.10
  244.38        2970.00           1498       26527.00    115990.30
  244.40        2970.25           1501       24301.00    106226.10
  244.43        2970.50           1505       21279.00     92978.88
  244.46        2970.75           1508       19359.00     84567.49
  244.49        2971.00           1511       17265.00     75398.33
  244.51        2971.25           1515       14483.00     63223.86
  244.54        2971.50           1518       12271.00     53549.72
  244.57        2971.75           1521       10315.00     44999.56
  244.60        2972.00           1525        7591.00     33099.10
  244.62        2972.25           1528        5504.00     23986.90
  244.65        2972.50           1531        3530.00     15372.35
  244.68        2972.75           1535        1586.00      6892.79
  244.71        2973.00           1538         725.00      3138.46
  244.73        2973.25           1541         226.00       962.97
  244.76        2973.50           1545          52.00       204.45
  244.79        2973.75           1548          39.00       147.78
  244.81        2974.00           1551          32.00       117.26
  244.84        2974.25           1555          24.00        82.39
  244.87        2974.50           1558          23.00        78.03
  244.89        2974.75           1561          22.00        73.67
  244.92        2975.00           1565          20.00        64.95
  244.95        2975.25           1568          14.00        38.80
  244.98        2975.50           1571          19.00        60.59
  245.00        2975.75           1575          20.00        64.95
  245.03        2976.00           1578          23.00        78.03
  245.06        2976.25           1581          17.00        51.87
  245.08        2976.50           1585          18.00        56.23
  245.11        2976.75           1588          20.00        64.95
  245.14        2977.00           1591          18.00        56.23
  245.17        2977.25           1595          18.00        56.23
  245.19        2977.50           1598          18.00        56.23
  245.22        2977.75           1601          19.00        60.59
  245.25        2978.00           1605          22.00        73.67
  245.28        2978.25           1608          23.00        78.03
  245.30        2978.50           1611          18.00        56.23
  245.33        2978.75           1615          23.00        78.03
  245.36        2979.00           1618          24.00        82.39
  245.38        2979.25           1621          19.00        60.59
  245.41        2979.50           1625          19.00        60.59
  245.44        2979.75           1628          19.00        60.59
  245.47        2980.00           1631          21.00        69.31
  245.49        2980.25           1635          17.00        51.87
  245.52        2980.50           1638          17.00        51.87
  245.55        2980.75           1641          17.00        51.87
  245.57        2981.00           1645          21.00        69.31
  245.60        2981.25           1648          17.00        51.87
  245.63        2981.50           1651          18.00        56.23
  245.66        2981.75           1655          18.00        56.23
  245.68        2982.00           1658          19.00        60.59
  245.71        2982.25           1661          17.00        51.87
  245.74        2982.50           1665          16.00        47.52
  245.76        2982.75           1668          19.00        60.59
  245.79        2983.00           1671          21.00        69.31
  245.82        2983.25           1675          17.00        51.87
  245.85        2983.50           1678          25.00        86.75
  245.87        2983.75           1681          13.00        34.44
  245.90        2984.00           1685          19.00        60.59
HS scan finished at 04:06:05
end
