************************************************************
  HS Scan of (1) Internal mercury lamp
************************************************************
Integration time is 0.2294 seconds per sample
dh110319Tamanrasset 22.79-5.529 4.974364pr865
************************************************************
Dead Time -------------------------  2.8E-08 
Number of Cycles Used -------------  4 
Starting Wavelength (Angstroms) ---  2950 
Final Wavelength (Angstoms) -------  2984 
Wavelength Increment (Angstroms) --  .25 
Filter Wheel #1 Position ---------- (1) Ground quartz diffuser (ND=2.32)
Filter Wheel #2 Position ---------- (1) Neutral Density 0.494



************************************************************
HS scan start time = 04:02:48
Dark Count =  3.2 


Time (GMT)  Wavelength (Ang)  Step Number  Raw Counts  Counts/Second

  243.16        2950.00           1233          18.00        64.52
  243.22        2950.25           1236          19.00        68.88
  243.25        2950.50           1239          19.00        68.88
  243.27        2950.75           1242          19.00        68.88
  243.30        2951.00           1246          19.00        68.88
  243.33        2951.25           1249          18.00        64.52
  243.35        2951.50           1252          20.00        73.23
  243.38        2951.75           1256          21.00        77.59
  243.41        2952.00           1259          17.00        60.16
  243.44        2952.25           1262          20.00        73.23
  243.46        2952.50           1266          18.00        64.52
  243.49        2952.75           1269          18.00        64.52
  243.52        2953.00           1272          16.00        55.80
  243.54        2953.25           1276          19.00        68.88
  243.57        2953.50           1279          18.00        64.52
  243.60        2953.75           1282          18.00        64.52
  243.63        2954.00           1286          16.00        55.80
  243.65        2954.25           1289          21.00        77.59
  243.68        2954.50           1292          17.00        60.16
  243.71        2954.75           1295          22.00        81.95
  243.73        2955.00           1299          17.00        60.16
  243.76        2955.25           1302          21.00        77.59
  243.79        2955.50           1305          19.00        68.88
  243.82        2955.75           1309          20.00        73.23
  243.84        2956.00           1312          16.00        55.80
  243.87        2956.25           1315          17.00        60.16
  243.90        2956.50           1319          21.00        77.59
  243.92        2956.75           1322          21.00        77.59
  243.95        2957.00           1325          18.00        64.52
  243.98        2957.25           1329          19.00        68.88
  244.01        2957.50           1332          18.00        64.52
  244.03        2957.75           1335          19.00        68.88
  244.06        2958.00           1339          17.00        60.16
  244.09        2958.25           1342          15.00        51.44
  244.12        2958.50           1345          18.00        64.52
  244.14        2958.75           1348          20.00        73.23
  244.17        2959.00           1352          19.00        68.88
  244.20        2959.25           1355          21.00        77.59
  244.22        2959.50           1358          23.00        86.31
  244.25        2959.75           1362          26.00        99.39
  244.28        2960.00           1365          23.00        86.31
  244.31        2960.25           1368          23.00        86.31
  244.33        2960.50           1372          24.00        90.67
  244.36        2960.75           1375          29.00       112.47
  244.39        2961.00           1378          80.00       334.79
  244.41        2961.25           1382         398.00      1721.09
  244.44        2961.50           1385         973.00      4228.05
  244.47        2961.75           1388        1979.00      8614.98
  244.50        2962.00           1392        4163.00     18142.60
  244.52        2962.25           1395        6043.00     26348.12
  244.55        2962.50           1398        8196.00     35749.80
  244.58        2962.75           1402       10855.00     47367.93
  244.61        2963.00           1405       12881.00     56225.33
  244.63        2963.25           1408       14869.00     64920.88
  244.66        2963.50           1412       17569.00     76737.52
  244.69        2963.75           1415       19684.00     85999.34
  244.71        2964.00           1418       21941.00     95888.33
  244.74        2964.25           1422       24517.00    107181.70
  244.77        2964.50           1425       26609.00    116358.40
  244.80        2964.75           1428       28888.00    126360.90
  244.82        2965.00           1431       30912.00    135248.80
  244.85        2965.25           1435       33664.00    147340.70
  244.88        2965.50           1438       35940.00    157347.30
  244.91        2965.75           1441       37898.00    165960.40
  244.93        2966.00           1445       40822.00    178830.40
  244.96        2966.25           1448       42586.00    186599.30
  244.99        2966.50           1451       43916.00    192458.90
  245.01        2966.75           1455       45028.00    197359.60
  245.04        2967.00           1458       45548.00    199651.80
  245.07        2967.25           1461       45459.00    199259.50
  245.10        2967.50           1465       45342.00    198743.70
  245.12        2967.75           1468       44778.00    196257.70
  245.15        2968.00           1471       44142.00    193454.80
  245.18        2968.25           1475       42250.00    185119.20
  245.21        2968.50           1478       40168.00    175951.00
  245.23        2968.75           1481       38260.00    167553.20
  245.26        2969.00           1485       35614.00    155913.70
  245.29        2969.25           1488       33080.00    144774.00
  245.32        2969.50           1491       30997.00    135622.20
  245.34        2969.75           1495       28133.00    123046.60
  245.37        2970.00           1498       25980.00    113598.80
  245.40        2970.25           1501       23903.00    104489.20
  245.42        2970.50           1505       20933.00     91471.12
  245.45        2970.75           1508       18929.00     82692.56
  245.48        2971.00           1511       16838.00     73537.49
  245.51        2971.25           1515       13937.00     60843.76
  245.53        2971.50           1518       11803.00     51511.91
  245.56        2971.75           1521        9772.00     42635.00
  245.59        2972.00           1525        7023.00     30626.95
  245.62        2972.25           1528        5074.00     22118.32
  245.64        2972.50           1531        3248.00     14150.33
  245.67        2972.75           1535        1359.00      5911.18
  245.70        2973.00           1538         529.00      2292.21
  245.72        2973.25           1541         171.00       731.49
  245.75        2973.50           1545          45.00       182.22
  245.78        2973.75           1548          37.00       147.34
  245.81        2974.00           1551          34.00       134.26
  245.83        2974.25           1555          30.00       116.83
  245.86        2974.50           1558          24.00        90.67
  245.89        2974.75           1561          21.00        77.59
  245.91        2975.00           1565          17.00        60.16
  245.94        2975.25           1568          19.00        68.88
  245.97        2975.50           1571          20.00        73.23
  246.00        2975.75           1575          21.00        77.59
  246.02        2976.00           1578          24.00        90.67
  246.05        2976.25           1581          23.00        86.31
  246.08        2976.50           1585          24.00        90.67
  246.11        2976.75           1588          20.00        73.23
  246.13        2977.00           1591          23.00        86.31
  246.16        2977.25           1595          18.00        64.52
  246.19        2977.50           1598          22.00        81.95
  246.21        2977.75           1601          20.00        73.23
  246.24        2978.00           1605          18.00        64.52
  246.27        2978.25           1608          21.00        77.59
  246.29        2978.50           1611          20.00        73.23
  246.32        2978.75           1615          20.00        73.23
  246.35        2979.00           1618          23.00        86.31
  246.38        2979.25           1621          20.00        73.23
  246.40        2979.50           1625          19.00        68.88
  246.43        2979.75           1628          21.00        77.59
  246.46        2980.00           1631          15.00        51.44
  246.48        2980.25           1635          21.00        77.59
  246.51        2980.50           1638          18.00        64.52
  246.54        2980.75           1641          21.00        77.59
  246.57        2981.00           1645          20.00        73.23
  246.59        2981.25           1648          13.00        42.72
  246.62        2981.50           1651          21.00        77.59
  246.65        2981.75           1655          17.00        60.16
  246.67        2982.00           1658          19.00        68.88
  246.70        2982.25           1661          21.00        77.59
  246.73        2982.50           1665          15.00        51.44
  246.76        2982.75           1668          17.00        60.16
  246.78        2983.00           1671          17.00        60.16
  246.81        2983.25           1675          17.00        60.16
  246.84        2983.50           1678          13.00        42.72
  246.87        2983.75           1681          19.00        68.88
  246.89        2984.00           1685          20.00        73.23
HS scan finished at 04:07:05
end
