************************************************************
  HS Scan of (1) Internal mercury lamp
************************************************************
Integration time is 0.2294 seconds per sample
dh160317Tamanrasset 22.79-5.529 2.731107pr865
************************************************************
Dead Time -------------------------  2.8E-08 
Number of Cycles Used -------------  4 
Starting Wavelength (Angstroms) ---  2950 
Final Wavelength (Angstoms) -------  2984 
Wavelength Increment (Angstroms) --  .25 
Filter Wheel #1 Position ---------- (1) Ground quartz diffuser (ND=2.32)
Filter Wheel #2 Position ---------- (1) Neutral Density 0.494



************************************************************
HS scan start time = 03:30:15
Dark Count =  1.6 


Time (GMT)  Wavelength (Ang)  Step Number  Raw Counts  Counts/Second

  210.61        2950.00           1233           4.00        10.46
  210.67        2950.25           1236           2.00         2.00
  210.70        2950.50           1239           8.00        27.90
  210.73        2950.75           1242           3.00         6.10
  210.75        2951.00           1246           2.00         2.00
  210.78        2951.25           1249           8.00        27.90
  210.81        2951.50           1252           5.00        14.82
  210.84        2951.75           1256           8.00        27.90
  210.86        2952.00           1259           7.00        23.54
  210.89        2952.25           1262           5.00        14.82
  210.92        2952.50           1266           7.00        23.54
  210.94        2952.75           1269           2.00         2.00
  210.97        2953.00           1272           8.00        27.90
  211.00        2953.25           1276           0.00         2.00
  211.03        2953.50           1279           0.00         2.00
  211.05        2953.75           1282           6.00        19.18
  211.08        2954.00           1286           8.00        27.90
  211.11        2954.25           1289           0.00         2.00
  211.13        2954.50           1292           8.00        27.90
  211.16        2954.75           1295           5.00        14.82
  211.19        2955.00           1299           2.00         2.00
  211.22        2955.25           1302           0.00         2.00
  211.24        2955.50           1305           5.00        14.82
  211.27        2955.75           1309           3.00         6.10
  211.30        2956.00           1312           0.00         2.00
  211.32        2956.25           1315           8.00        27.90
  211.35        2956.50           1319           8.00        27.90
  211.38        2956.75           1322           0.00         2.00
  211.40        2957.00           1325           8.00        27.90
  211.43        2957.25           1329           5.00        14.82
  211.46        2957.50           1332           0.00         2.00
  211.49        2957.75           1335           8.00        27.90
  211.51        2958.00           1339           6.00        19.18
  211.54        2958.25           1342           6.00        19.18
  211.57        2958.50           1345           8.00        27.90
  211.59        2958.75           1348           0.00         2.00
  211.62        2959.00           1352           0.00         2.00
  211.65        2959.25           1355           0.00         2.00
  211.68        2959.50           1358           0.00         2.00
  211.70        2959.75           1362           0.00         2.00
  211.73        2960.00           1365           6.00        19.18
  211.76        2960.25           1368           7.00        23.54
  211.78        2960.50           1372           2.00         2.00
  211.81        2960.75           1375           8.00        27.90
  211.84        2961.00           1378           5.00        14.82
  211.87        2961.25           1382           3.00         6.10
  211.89        2961.50           1385           8.00        27.90
  211.92        2961.75           1388           6.00        19.18
  211.95        2962.00           1392           5.00        14.82
  211.97        2962.25           1395           4.00        10.46
  212.00        2962.50           1398           0.00         2.00
  212.03        2962.75           1402           0.00         2.00
  212.06        2963.00           1405           4.00        10.46
  212.08        2963.25           1408           0.00         2.00
  212.11        2963.50           1412           0.00         2.00
  212.14        2963.75           1415           0.00         2.00
  212.16        2964.00           1418           8.00        27.90
  212.19        2964.25           1422           0.00         2.00
  212.22        2964.50           1425           8.00        27.90
  212.25        2964.75           1428           0.00         2.00
  212.27        2965.00           1431           1.00         2.00
  212.30        2965.25           1435           8.00        27.90
  212.33        2965.50           1438           4.00        10.46
  212.35        2965.75           1441           8.00        27.90
  212.38        2966.00           1445           8.00        27.90
  212.41        2966.25           1448           8.00        27.90
  212.44        2966.50           1451           0.00         2.00
  212.46        2966.75           1455           3.00         6.10
  212.49        2967.00           1458           1.00         2.00
  212.52        2967.25           1461           8.00        27.90
  212.54        2967.50           1465           1.00         2.00
  212.57        2967.75           1468           3.00         6.10
  212.60        2968.00           1471           0.00         2.00
  212.63        2968.25           1475           0.00         2.00
  212.65        2968.50           1478           0.00         2.00
  212.68        2968.75           1481           8.00        27.90
  212.71        2969.00           1485           5.00        14.82
  212.73        2969.25           1488           8.00        27.90
  212.76        2969.50           1491           1.00         2.00
  212.79        2969.75           1495           0.00         2.00
  212.82        2970.00           1498           0.00         2.00
  212.84        2970.25           1501           4.00        10.46
  212.87        2970.50           1505           8.00        27.90
  212.90        2970.75           1508           9.00        32.26
  212.92        2971.00           1511           3.00         6.10
  212.95        2971.25           1515           0.00         2.00
  212.98        2971.50           1518           8.00        27.90
  213.01        2971.75           1521           8.00        27.90
  213.03        2972.00           1525           0.00         2.00
  213.06        2972.25           1528           7.00        23.54
  213.09        2972.50           1531           3.00         6.10
  213.11        2972.75           1535           2.00         2.00
  213.14        2973.00           1538           0.00         2.00
  213.17        2973.25           1541           2.00         2.00
  213.19        2973.50           1545           3.00         6.10
  213.22        2973.75           1548           6.00        19.18
  213.25        2974.00           1551           2.00         2.00
  213.28        2974.25           1555           0.00         2.00
  213.30        2974.50           1558           3.00         6.10
  213.33        2974.75           1561           1.00         2.00
  213.36        2975.00           1565           7.00        23.54
  213.39        2975.25           1568           6.00        19.18
  213.41        2975.50           1571           8.00        27.90
  213.44        2975.75           1575           0.00         2.00
  213.47        2976.00           1578           5.00        14.82
  213.49        2976.25           1581           0.00         2.00
  213.52        2976.50           1585           5.00        14.82
  213.55        2976.75           1588           0.00         2.00
  213.58        2977.00           1591           5.00        14.82
  213.60        2977.25           1595           6.00        19.18
  213.63        2977.50           1598           6.00        19.18
  213.66        2977.75           1601           8.00        27.90
  213.68        2978.00           1605           3.00         6.10
  213.71        2978.25           1608           7.00        23.54
  213.74        2978.50           1611           2.00         2.00
  213.76        2978.75           1615           4.00        10.46
  213.79        2979.00           1618           0.00         2.00
  213.82        2979.25           1621           8.00        27.90
  213.85        2979.50           1625           7.00        23.54
  213.87        2979.75           1628           0.00         2.00
  213.90        2980.00           1631           8.00        27.90
  213.93        2980.25           1635           7.00        23.54
  213.95        2980.50           1638           0.00         2.00
  213.98        2980.75           1641           8.00        27.90
  214.01        2981.00           1645           5.00        14.82
  214.04        2981.25           1648           0.00         2.00
  214.06        2981.50           1651           8.00        27.90
  214.09        2981.75           1655           8.00        27.90
  214.12        2982.00           1658           8.00        27.90
  214.14        2982.25           1661           0.00         2.00
  214.17        2982.50           1665           7.00        23.54
  214.20        2982.75           1668           8.00        27.90
  214.22        2983.00           1671           8.00        27.90
  214.25        2983.25           1675           0.00         2.00
  214.28        2983.50           1678           0.00         2.00
  214.31        2983.75           1681           0.00         2.00
  214.33        2984.00           1685           8.00        27.90
HS scan finished at 03:34:31
end
