************************************************************
  HS Scan of (1) Internal mercury lamp
************************************************************
Integration time is 0.2294 seconds per sample
dh200319Tamanrasset 22.79-5.529 1.784871pr865
************************************************************
Dead Time -------------------------  2.8E-08 
Number of Cycles Used -------------  4 
Starting Wavelength (Angstroms) ---  2950 
Final Wavelength (Angstoms) -------  2984 
Wavelength Increment (Angstroms) --  .25 
Filter Wheel #1 Position ---------- (1) Ground quartz diffuser (ND=2.32)
Filter Wheel #2 Position ---------- (1) Neutral Density 0.494



************************************************************
HS scan start time = 03:56:02
Dark Count =  2.6 


Time (GMT)  Wavelength (Ang)  Step Number  Raw Counts  Counts/Second

  236.39        2950.00           1233          19.00        71.49
  236.45        2950.25           1236          21.00        80.21
  236.48        2950.50           1239          19.00        71.49
  236.51        2950.75           1242          16.00        58.41
  236.53        2951.00           1246          22.00        84.57
  236.56        2951.25           1249          21.00        80.21
  236.59        2951.50           1252          20.00        75.85
  236.61        2951.75           1256          19.00        71.49
  236.64        2952.00           1259          22.00        84.57
  236.67        2952.25           1262          20.00        75.85
  236.70        2952.50           1266          17.00        62.77
  236.72        2952.75           1269          18.00        67.13
  236.75        2953.00           1272          18.00        67.13
  236.78        2953.25           1276          15.00        54.05
  236.81        2953.50           1279          21.00        80.21
  236.83        2953.75           1282          22.00        84.57
  236.86        2954.00           1286          15.00        54.05
  236.89        2954.25           1289          14.00        49.69
  236.91        2954.50           1292          20.00        75.85
  236.94        2954.75           1295          19.00        71.49
  236.97        2955.00           1299          18.00        67.13
  236.99        2955.25           1302          17.00        62.77
  237.02        2955.50           1305          16.00        58.41
  237.05        2955.75           1309          23.00        88.93
  237.08        2956.00           1312          20.00        75.85
  237.10        2956.25           1315          17.00        62.77
  237.13        2956.50           1319          21.00        80.21
  237.16        2956.75           1322          18.00        67.13
  237.19        2957.00           1325          20.00        75.85
  237.21        2957.25           1329          19.00        71.49
  237.24        2957.50           1332          19.00        71.49
  237.27        2957.75           1335          21.00        80.21
  237.29        2958.00           1339          21.00        80.21
  237.32        2958.25           1342          14.00        49.69
  237.35        2958.50           1345          23.00        88.93
  237.37        2958.75           1348          16.00        58.41
  237.40        2959.00           1352          18.00        67.13
  237.43        2959.25           1355          17.00        62.77
  237.46        2959.50           1358          16.00        58.41
  237.48        2959.75           1362          20.00        75.85
  237.51        2960.00           1365          23.00        88.93
  237.54        2960.25           1368          28.00       110.72
  237.57        2960.50           1372          27.00       106.36
  237.59        2960.75           1375          29.00       115.08
  237.62        2961.00           1378          63.00       263.30
  237.65        2961.25           1382         330.00      1427.26
  237.67        2961.50           1385         857.00      3724.89
  237.70        2961.75           1388        1862.00      8107.33
  237.73        2962.00           1392        3877.00     16897.27
  237.76        2962.25           1395        5685.00     24787.91
  237.78        2962.50           1398        7741.00     33765.13
  237.81        2962.75           1402       10394.00     45355.74
  237.84        2963.00           1405       12346.00     53888.58
  237.86        2963.25           1408       14423.00     62972.32
  237.89        2963.50           1412       17109.00     74726.38
  237.92        2963.75           1415       19228.00     84004.68
  237.95        2964.00           1418       21224.00     92748.84
  237.97        2964.25           1422       24090.00    105311.80
  238.00        2964.50           1425       26151.00    114351.60
  238.03        2964.75           1428       28214.00    123404.80
  238.06        2965.00           1431       30391.00    132963.20
  238.08        2965.25           1435       33286.00    145682.00
  238.11        2965.50           1438       35304.00    154553.20
  238.14        2965.75           1441       37417.00    163846.70
  238.17        2966.00           1445       40193.00    176063.70
  238.19        2966.25           1448       42002.00    184029.50
  238.22        2966.50           1451       43225.00    189417.00
  238.25        2966.75           1455       44359.00    194413.80
  238.27        2967.00           1458       44903.00    196811.30
  238.30        2967.25           1461       45064.00    197520.90
  238.33        2967.50           1465       44842.00    196542.40
  238.36        2967.75           1468       44468.00    194894.10
  238.38        2968.00           1471       43644.00    191263.10
  238.41        2968.25           1475       41908.00    183615.50
  238.44        2968.50           1478       40308.00    176570.00
  238.47        2968.75           1481       38034.00    166561.40
  238.49        2969.00           1485       35478.00    155318.30
  238.52        2969.25           1488       33133.00    145009.60
  238.55        2969.50           1491       30824.00    134864.90
  238.58        2969.75           1495       28176.00    123238.00
  238.60        2970.00           1498       25921.00    113342.60
  238.63        2970.25           1501       23901.00    104483.10
  238.66        2970.50           1505       21100.00     92205.49
  238.68        2970.75           1508       19065.00     83290.80
  238.71        2971.00           1511       16939.00     73982.22
  238.74        2971.25           1515       13977.00     61021.35
  238.77        2971.50           1518       11918.00     52017.30
  238.79        2971.75           1521        9983.00     43559.64
  238.82        2972.00           1525        7411.00     32323.93
  238.85        2972.25           1528        5353.00     23338.70
  238.88        2972.50           1531        3445.00     15012.41
  238.90        2972.75           1535        1643.00      7152.26
  238.93        2973.00           1538         698.00      3031.64
  238.96        2973.25           1541         213.00       917.20
  238.98        2973.50           1545          51.00       210.99
  239.01        2973.75           1548          36.00       145.60
  239.04        2974.00           1551          24.00        93.29
  239.07        2974.25           1555          27.00       106.36
  239.09        2974.50           1558          24.00        93.29
  239.12        2974.75           1561          19.00        71.49
  239.15        2975.00           1565          17.00        62.77
  239.18        2975.25           1568          22.00        84.57
  239.20        2975.50           1571          25.00        97.65
  239.23        2975.75           1575          19.00        71.49
  239.26        2976.00           1578          21.00        80.21
  239.28        2976.25           1581          22.00        84.57
  239.31        2976.50           1585          18.00        67.13
  239.34        2976.75           1588          21.00        80.21
  239.37        2977.00           1591          18.00        67.13
  239.39        2977.25           1595          23.00        88.93
  239.42        2977.50           1598          20.00        75.85
  239.45        2977.75           1601          17.00        62.77
  239.47        2978.00           1605          18.00        67.13
  239.50        2978.25           1608          25.00        97.65
  239.53        2978.50           1611          25.00        97.65
  239.56        2978.75           1615          22.00        84.57
  239.58        2979.00           1618          23.00        88.93
  239.61        2979.25           1621          18.00        67.13
  239.64        2979.50           1625          19.00        71.49
  239.66        2979.75           1628          20.00        75.85
  239.69        2980.00           1631          21.00        80.21
  239.72        2980.25           1635          19.00        71.49
  239.75        2980.50           1638          17.00        62.77
  239.77        2980.75           1641          18.00        67.13
  239.80        2981.00           1645          23.00        88.93
  239.83        2981.25           1648          14.00        49.69
  239.85        2981.50           1651          16.00        58.41
  239.88        2981.75           1655          20.00        75.85
  239.91        2982.00           1658          17.00        62.77
  239.94        2982.25           1661          18.00        67.13
  239.96        2982.50           1665          20.00        75.85
  239.99        2982.75           1668          19.00        71.49
  240.02        2983.00           1671          16.00        58.41
  240.04        2983.25           1675          16.00        58.41
  240.07        2983.50           1678          22.00        84.57
  240.10        2983.75           1681          19.00        71.49
  240.13        2984.00           1685          18.00        67.13
HS scan finished at 04:00:19
end
