************************************************************
  HS Scan of (1) Internal mercury lamp
************************************************************
Integration time is 0.2294 seconds per sample
dh150317Tamanrasset 22.79-5.529 2.726009pr865
************************************************************
Dead Time -------------------------  2.8E-08 
Number of Cycles Used -------------  4 
Starting Wavelength (Angstroms) ---  2950 
Final Wavelength (Angstoms) -------  2984 
Wavelength Increment (Angstroms) --  .25 
Filter Wheel #1 Position ---------- (1) Ground quartz diffuser (ND=2.32)
Filter Wheel #2 Position ---------- (1) Neutral Density 0.494



************************************************************
HS scan start time = 03:31:28
Dark Count =  2.1 


Time (GMT)  Wavelength (Ang)  Step Number  Raw Counts  Counts/Second

  211.83        2950.00           1233           6.00        17.00
  211.89        2950.25           1236           2.00         2.00
  211.92        2950.50           1239           0.00         2.00
  211.95        2950.75           1242           7.00        21.36
  211.98        2951.00           1246           7.00        21.36
  212.00        2951.25           1249           8.00        25.72
  212.03        2951.50           1252           8.00        25.72
  212.06        2951.75           1256           0.00         2.00
  212.08        2952.00           1259           5.00        12.64
  212.11        2952.25           1262           8.00        25.72
  212.14        2952.50           1266           4.00         8.28
  212.17        2952.75           1269           8.00        25.72
  212.19        2953.00           1272           8.00        25.72
  212.22        2953.25           1276           8.00        25.72
  212.25        2953.50           1279           8.00        25.72
  212.27        2953.75           1282           0.00         2.00
  212.30        2954.00           1286           0.00         2.00
  212.33        2954.25           1289           7.00        21.36
  212.36        2954.50           1292           8.00        25.72
  212.38        2954.75           1295           3.00         3.92
  212.41        2955.00           1299           8.00        25.72
  212.44        2955.25           1302           0.00         2.00
  212.46        2955.50           1305           5.00        12.64
  212.49        2955.75           1309           8.00        25.72
  212.52        2956.00           1312           8.00        25.72
  212.55        2956.25           1315           1.00         2.00
  212.57        2956.50           1319           6.00        17.00
  212.60        2956.75           1322           8.00        25.72
  212.63        2957.00           1325           3.00         3.92
  212.65        2957.25           1329           0.00         2.00
  212.68        2957.50           1332           8.00        25.72
  212.71        2957.75           1335           2.00         2.00
  212.74        2958.00           1339           3.00         3.92
  212.76        2958.25           1342           8.00        25.72
  212.79        2958.50           1345           0.00         2.00
  212.82        2958.75           1348           8.00        25.72
  212.84        2959.00           1352           6.00        17.00
  212.87        2959.25           1355           8.00        25.72
  212.90        2959.50           1358           7.00        21.36
  212.93        2959.75           1362           8.00        25.72
  212.95        2960.00           1365           8.00        25.72
  212.98        2960.25           1368           0.00         2.00
  213.01        2960.50           1372           8.00        25.72
  213.03        2960.75           1375           8.00        25.72
  213.06        2961.00           1378           1.00         2.00
  213.09        2961.25           1382           2.00         2.00
  213.12        2961.50           1385           8.00        25.72
  213.14        2961.75           1388           0.00         2.00
  213.17        2962.00           1392           8.00        25.72
  213.20        2962.25           1395           0.00         2.00
  213.22        2962.50           1398           3.00         3.92
  213.25        2962.75           1402           7.00        21.36
  213.28        2963.00           1405           8.00        25.72
  213.30        2963.25           1408           0.00         2.00
  213.33        2963.50           1412           6.00        17.00
  213.36        2963.75           1415           5.00        12.64
  213.39        2964.00           1418           8.00        25.72
  213.41        2964.25           1422           4.00         8.28
  213.44        2964.50           1425           8.00        25.72
  213.47        2964.75           1428           4.00         8.28
  213.49        2965.00           1431           2.00         2.00
  213.52        2965.25           1435          10.00        34.44
  213.55        2965.50           1438           7.00        21.36
  213.58        2965.75           1441           0.00         2.00
  213.60        2966.00           1445           0.00         2.00
  213.63        2966.25           1448           8.00        25.72
  213.66        2966.50           1451           5.00        12.64
  213.68        2966.75           1455           7.00        21.36
  213.71        2967.00           1458           8.00        25.72
  213.74        2967.25           1461           0.00         2.00
  213.77        2967.50           1465           0.00         2.00
  213.79        2967.75           1468           0.00         2.00
  213.82        2968.00           1471           6.00        17.00
  213.85        2968.25           1475           0.00         2.00
  213.88        2968.50           1478           8.00        25.72
  213.90        2968.75           1481           3.00         3.92
  213.93        2969.00           1485           0.00         2.00
  213.96        2969.25           1488           0.00         2.00
  213.98        2969.50           1491           6.00        17.00
  214.01        2969.75           1495           0.00         2.00
  214.04        2970.00           1498           8.00        25.72
  214.07        2970.25           1501           0.00         2.00
  214.09        2970.50           1505           8.00        25.72
  214.12        2970.75           1508           8.00        25.72
  214.15        2971.00           1511           0.00         2.00
  214.17        2971.25           1515           0.00         2.00
  214.20        2971.50           1518           0.00         2.00
  214.23        2971.75           1521           0.00         2.00
  214.25        2972.00           1525           3.00         3.92
  214.28        2972.25           1528           8.00        25.72
  214.31        2972.50           1531           0.00         2.00
  214.34        2972.75           1535           8.00        25.72
  214.36        2973.00           1538           8.00        25.72
  214.39        2973.25           1541           0.00         2.00
  214.42        2973.50           1545           8.00        25.72
  214.44        2973.75           1548           3.00         3.92
  214.47        2974.00           1551           0.00         2.00
  214.50        2974.25           1555           8.00        25.72
  214.53        2974.50           1558           0.00         2.00
  214.55        2974.75           1561           6.00        17.00
  214.58        2975.00           1565           8.00        25.72
  214.61        2975.25           1568           4.00         8.28
  214.63        2975.50           1571           8.00        25.72
  214.66        2975.75           1575           0.00         2.00
  214.69        2976.00           1578           6.00        17.00
  214.72        2976.25           1581           8.00        25.72
  214.74        2976.50           1585           4.00         8.28
  214.77        2976.75           1588           0.00         2.00
  214.80        2977.00           1591           8.00        25.72
  214.82        2977.25           1595           5.00        12.64
  214.85        2977.50           1598           0.00         2.00
  214.88        2977.75           1601           3.00         3.92
  214.91        2978.00           1605           0.00         2.00
  214.93        2978.25           1608           8.00        25.72
  214.96        2978.50           1611           2.00         2.00
  214.99        2978.75           1615           0.00         2.00
  215.01        2979.00           1618           2.00         2.00
  215.04        2979.25           1621           2.00         2.00
  215.07        2979.50           1625           5.00        12.64
  215.10        2979.75           1628           8.00        25.72
  215.12        2980.00           1631           8.00        25.72
  215.15        2980.25           1635           8.00        25.72
  215.18        2980.50           1638           8.00        25.72
  215.20        2980.75           1641           8.00        25.72
  215.23        2981.00           1645           0.00         2.00
  215.26        2981.25           1648           4.00         8.28
  215.29        2981.50           1651           0.00         2.00
  215.31        2981.75           1655           7.00        21.36
  215.34        2982.00           1658           1.00         2.00
  215.37        2982.25           1661           0.00         2.00
  215.39        2982.50           1665           0.00         2.00
  215.42        2982.75           1668           4.00         8.28
  215.45        2983.00           1671           0.00         2.00
  215.48        2983.25           1675           5.00        12.64
  215.50        2983.50           1678           8.00        25.72
  215.53        2983.75           1681           5.00        12.64
  215.56        2984.00           1685           2.00         2.00
HS scan finished at 03:35:45
end
