************************************************************
  HS Scan of (1) Internal mercury lamp
************************************************************
Integration time is 0.2294 seconds per sample
dh140319Tamanrasset 22.79-5.529 4.974364pr865
************************************************************
Dead Time -------------------------  2.8E-08 
Number of Cycles Used -------------  4 
Starting Wavelength (Angstroms) ---  2950 
Final Wavelength (Angstoms) -------  2984 
Wavelength Increment (Angstroms) --  .25 
Filter Wheel #1 Position ---------- (1) Ground quartz diffuser (ND=2.32)
Filter Wheel #2 Position ---------- (1) Neutral Density 0.494



************************************************************
HS scan start time = 04:00:49
Dark Count =  6 


Time (GMT)  Wavelength (Ang)  Step Number  Raw Counts  Counts/Second

  241.17        2950.00           1233          13.00        30.51
  241.24        2950.25           1236          22.00        69.75
  241.27        2950.50           1239          18.00        52.31
  241.29        2950.75           1242          19.00        56.67
  241.32        2951.00           1246          19.00        56.67
  241.35        2951.25           1249          22.00        69.75
  241.37        2951.50           1252          17.00        47.95
  241.40        2951.75           1256          19.00        56.67
  241.43        2952.00           1259          16.00        43.59
  241.46        2952.25           1262          20.00        61.03
  241.48        2952.50           1266          18.00        52.31
  241.51        2952.75           1269          18.00        52.31
  241.54        2953.00           1272          19.00        56.67
  241.56        2953.25           1276          17.00        47.95
  241.59        2953.50           1279          19.00        56.67
  241.62        2953.75           1282          19.00        56.67
  241.65        2954.00           1286          19.00        56.67
  241.67        2954.25           1289          18.00        52.31
  241.70        2954.50           1292          18.00        52.31
  241.73        2954.75           1295          19.00        56.67
  241.75        2955.00           1299          20.00        61.03
  241.78        2955.25           1302          19.00        56.67
  241.81        2955.50           1305          18.00        52.31
  241.84        2955.75           1309          24.00        78.47
  241.86        2956.00           1312          19.00        56.67
  241.89        2956.25           1315          18.00        52.31
  241.92        2956.50           1319          16.00        43.59
  241.94        2956.75           1322          18.00        52.31
  241.97        2957.00           1325          20.00        61.03
  242.00        2957.25           1329          22.00        69.75
  242.03        2957.50           1332          24.00        78.47
  242.05        2957.75           1335          19.00        56.67
  242.08        2958.00           1339          22.00        69.75
  242.11        2958.25           1342          16.00        43.59
  242.13        2958.50           1345          18.00        52.31
  242.16        2958.75           1348          16.00        43.59
  242.19        2959.00           1352          20.00        61.03
  242.22        2959.25           1355          17.00        47.95
  242.24        2959.50           1358          17.00        47.95
  242.27        2959.75           1362          21.00        65.39
  242.30        2960.00           1365          26.00        87.18
  242.32        2960.25           1368          24.00        78.47
  242.35        2960.50           1372          25.00        82.82
  242.38        2960.75           1375          29.00       100.26
  242.41        2961.00           1378          62.00       244.12
  242.43        2961.25           1382         301.00      1286.01
  242.46        2961.50           1385         795.00      3439.74
  242.49        2961.75           1388        1665.00      7233.37
  242.51        2962.00           1392        3580.00     15586.57
  242.54        2962.25           1395        5398.00     23520.28
  242.57        2962.50           1398        7385.00     32195.53
  242.60        2962.75           1402        9897.00     43168.98
  242.62        2963.00           1405       12082.00     52719.44
  242.65        2963.25           1408       14183.00     61907.58
  242.68        2963.50           1412       16878.00     73700.33
  242.71        2963.75           1415       18827.00     82233.60
  242.73        2964.00           1418       20854.00     91112.71
  242.76        2964.25           1422       23701.00    103591.20
  242.79        2964.50           1425       25894.00    113209.20
  242.82        2964.75           1428       28083.00    122814.80
  242.84        2965.00           1431       30100.00    131670.30
  242.87        2965.25           1435       32897.00    143957.50
  242.90        2965.50           1438       35070.00    153509.30
  242.92        2965.75           1441       37016.00    162067.70
  242.95        2966.00           1445       39845.00    174516.80
  242.98        2966.25           1448       41791.00    183085.30
  243.01        2966.50           1451       43045.00    188609.00
  243.03        2966.75           1455       44379.00    194486.90
  243.06        2967.00           1458       44667.00    195756.20
  243.09        2967.25           1461       44817.00    196417.30
  243.12        2967.50           1465       44756.00    196148.40
  243.14        2967.75           1468       44420.00    194667.60
  243.17        2968.00           1471       43557.00    190864.80
  243.20        2968.25           1475       41819.00    183208.60
  243.23        2968.50           1478       39964.00    175040.60
  243.25        2968.75           1481       37980.00    166308.80
  243.28        2969.00           1485       35218.00    154160.10
  243.31        2969.25           1488       32833.00    143676.20
  243.34        2969.50           1491       30885.00    135117.90
  243.36        2969.75           1495       27858.00    121827.30
  243.39        2970.00           1498       25840.00    112972.30
  243.42        2970.25           1501       23649.00    103363.20
  243.44        2970.50           1505       20928.00     91436.94
  243.47        2970.75           1508       18664.00     81519.78
  243.50        2971.00           1511       16601.00     72487.87
  243.53        2971.25           1515       13776.00     60127.30
  243.55        2971.50           1518       11671.00     50922.60
  243.58        2971.75           1521        9724.00     42413.03
  243.61        2972.00           1525        7097.00     30937.86
  243.64        2972.25           1528        5134.00     22367.97
  243.66        2972.50           1531        3282.00     14286.45
  243.69        2972.75           1535        1492.00      6478.94
  243.72        2973.00           1538         592.00      2554.67
  243.74        2973.25           1541         190.00       802.11
  243.77        2973.50           1545          52.00       200.52
  243.80        2973.75           1548          34.00       122.06
  243.83        2974.00           1551          29.00       100.26
  243.85        2974.25           1555          23.00        74.11
  243.88        2974.50           1558          27.00        91.54
  243.91        2974.75           1561          22.00        69.75
  243.93        2975.00           1565          22.00        69.75
  243.96        2975.25           1568          19.00        56.67
  243.99        2975.50           1571          19.00        56.67
  244.02        2975.75           1575          18.00        52.31
  244.04        2976.00           1578          19.00        56.67
  244.07        2976.25           1581          16.00        43.59
  244.10        2976.50           1585          16.00        43.59
  244.12        2976.75           1588          20.00        61.03
  244.15        2977.00           1591          19.00        56.67
  244.18        2977.25           1595          22.00        69.75
  244.21        2977.50           1598          23.00        74.11
  244.23        2977.75           1601          16.00        43.59
  244.26        2978.00           1605          19.00        56.67
  244.29        2978.25           1608          22.00        69.75
  244.31        2978.50           1611          21.00        65.39
  244.34        2978.75           1615          21.00        65.39
  244.37        2979.00           1618          25.00        82.82
  244.40        2979.25           1621          19.00        56.67
  244.42        2979.50           1625          22.00        69.75
  244.45        2979.75           1628          18.00        52.31
  244.48        2980.00           1631          15.00        39.23
  244.50        2980.25           1635          17.00        47.95
  244.53        2980.50           1638          15.00        39.23
  244.56        2980.75           1641          21.00        65.39
  244.59        2981.00           1645          20.00        61.03
  244.61        2981.25           1648          15.00        39.23
  244.64        2981.50           1651          19.00        56.67
  244.67        2981.75           1655          16.00        43.59
  244.70        2982.00           1658          19.00        56.67
  244.72        2982.25           1661          20.00        61.03
  244.75        2982.50           1665          21.00        65.39
  244.78        2982.75           1668          19.00        56.67
  244.80        2983.00           1671          16.00        43.59
  244.83        2983.25           1675          16.00        43.59
  244.86        2983.50           1678          17.00        47.95
  244.88        2983.75           1681          20.00        61.03
  244.91        2984.00           1685          15.00        39.23
HS scan finished at 04:05:06
end
