************************************************************
  HS Scan of (1) Internal mercury lamp
************************************************************
Integration time is 0.2294 seconds per sample
dh130317Tamanrasset 22.79-5.529 2.731107pr865
************************************************************
Dead Time -------------------------  2.8E-08 
Number of Cycles Used -------------  4 
Starting Wavelength (Angstroms) ---  2950 
Final Wavelength (Angstoms) -------  2984 
Wavelength Increment (Angstroms) --  .25 
Filter Wheel #1 Position ---------- (1) Ground quartz diffuser (ND=2.32)
Filter Wheel #2 Position ---------- (1) Neutral Density 0.494



************************************************************
HS scan start time = 03:32:15
Dark Count =  3.8 


Time (GMT)  Wavelength (Ang)  Step Number  Raw Counts  Counts/Second

  212.60        2950.00           1233           0.00         2.00
  212.67        2950.25           1236           7.00        13.95
  212.70        2950.50           1239           0.00         2.00
  212.72        2950.75           1242           8.00        18.31
  212.75        2951.00           1246           4.00         2.00
  212.78        2951.25           1249           8.00        18.31
  212.80        2951.50           1252           8.00        18.31
  212.83        2951.75           1256           0.00         2.00
  212.86        2952.00           1259           8.00        18.31
  212.88        2952.25           1262           1.00         2.00
  212.91        2952.50           1266           0.00         2.00
  212.94        2952.75           1269           2.00         2.00
  212.97        2953.00           1272           4.00         2.00
  212.99        2953.25           1276           1.00         2.00
  213.02        2953.50           1279           8.00        18.31
  213.05        2953.75           1282           8.00        18.31
  213.07        2954.00           1286           3.00         2.00
  213.10        2954.25           1289           8.00        18.31
  213.13        2954.50           1292           8.00        18.31
  213.16        2954.75           1295           7.00        13.95
  213.18        2955.00           1299           3.00         2.00
  213.21        2955.25           1302           6.00         9.59
  213.24        2955.50           1305           6.00         9.59
  213.26        2955.75           1309           8.00        18.31
  213.29        2956.00           1312           8.00        18.31
  213.32        2956.25           1315           3.00         2.00
  213.35        2956.50           1319           0.00         2.00
  213.37        2956.75           1322           8.00        18.31
  213.40        2957.00           1325           4.00         2.00
  213.43        2957.25           1329           0.00         2.00
  213.45        2957.50           1332           8.00        18.31
  213.48        2957.75           1335           6.00         9.59
  213.51        2958.00           1339           2.00         2.00
  213.54        2958.25           1342           0.00         2.00
  213.56        2958.50           1345           3.00         2.00
  213.59        2958.75           1348           8.00        18.31
  213.62        2959.00           1352           8.00        18.31
  213.64        2959.25           1355           2.00         2.00
  213.67        2959.50           1358           8.00        18.31
  213.70        2959.75           1362           0.00         2.00
  213.73        2960.00           1365           8.00        18.31
  213.75        2960.25           1368           7.00        13.95
  213.78        2960.50           1372           8.00        18.31
  213.81        2960.75           1375           0.00         2.00
  213.83        2961.00           1378           4.00         2.00
  213.86        2961.25           1382           7.00        13.95
  213.89        2961.50           1385           8.00        18.31
  213.92        2961.75           1388           4.00         2.00
  213.94        2962.00           1392           0.00         2.00
  213.97        2962.25           1395           5.00         5.23
  214.00        2962.50           1398           8.00        18.31
  214.02        2962.75           1402           5.00         5.23
  214.05        2963.00           1405           8.00        18.31
  214.08        2963.25           1408           3.00         2.00
  214.10        2963.50           1412           8.00        18.31
  214.13        2963.75           1415           8.00        18.31
  214.16        2964.00           1418           8.00        18.31
  214.19        2964.25           1422           4.00         2.00
  214.21        2964.50           1425           0.00         2.00
  214.24        2964.75           1428           5.00         5.23
  214.27        2965.00           1431           0.00         2.00
  214.29        2965.25           1435           3.00         2.00
  214.32        2965.50           1438           1.00         2.00
  214.35        2965.75           1441           6.00         9.59
  214.38        2966.00           1445           0.00         2.00
  214.40        2966.25           1448           8.00        18.31
  214.43        2966.50           1451           8.00        18.31
  214.46        2966.75           1455           8.00        18.31
  214.48        2967.00           1458           4.00         2.00
  214.51        2967.25           1461           8.00        18.31
  214.54        2967.50           1465           8.00        18.31
  214.57        2967.75           1468           2.00         2.00
  214.59        2968.00           1471           2.00         2.00
  214.62        2968.25           1475           8.00        18.31
  214.65        2968.50           1478           6.00         9.59
  214.67        2968.75           1481           8.00        18.31
  214.70        2969.00           1485           7.00        13.95
  214.73        2969.25           1488           8.00        18.31
  214.76        2969.50           1491           8.00        18.31
  214.78        2969.75           1495           0.00         2.00
  214.81        2970.00           1498           7.00        13.95
  214.84        2970.25           1501           2.00         2.00
  214.86        2970.50           1505           8.00        18.31
  214.89        2970.75           1508           8.00        18.31
  214.92        2971.00           1511           6.00         9.59
  214.95        2971.25           1515           8.00        18.31
  214.97        2971.50           1518           2.00         2.00
  215.00        2971.75           1521           5.00         5.23
  215.03        2972.00           1525           8.00        18.31
  215.05        2972.25           1528           8.00        18.31
  215.08        2972.50           1531           1.00         2.00
  215.11        2972.75           1535           6.00         9.59
  215.13        2973.00           1538           1.00         2.00
  215.16        2973.25           1541           0.00         2.00
  215.19        2973.50           1545           3.00         2.00
  215.22        2973.75           1548           6.00         9.59
  215.24        2974.00           1551           8.00        18.31
  215.27        2974.25           1555           5.00         5.23
  215.30        2974.50           1558           0.00         2.00
  215.32        2974.75           1561           7.00        13.95
  215.35        2975.00           1565           0.00         2.00
  215.38        2975.25           1568           1.00         2.00
  215.41        2975.50           1571           7.00        13.95
  215.43        2975.75           1575           5.00         5.23
  215.46        2976.00           1578           8.00        18.31
  215.49        2976.25           1581           7.00        13.95
  215.51        2976.50           1585           5.00         5.23
  215.54        2976.75           1588           7.00        13.95
  215.57        2977.00           1591           4.00         2.00
  215.60        2977.25           1595           0.00         2.00
  215.62        2977.50           1598           7.00        13.95
  215.65        2977.75           1601           4.00         2.00
  215.68        2978.00           1605           8.00        18.31
  215.70        2978.25           1608           8.00        18.31
  215.73        2978.50           1611           8.00        18.31
  215.76        2978.75           1615           5.00         5.23
  215.79        2979.00           1618           3.00         2.00
  215.81        2979.25           1621           0.00         2.00
  215.84        2979.50           1625           0.00         2.00
  215.87        2979.75           1628           0.00         2.00
  215.89        2980.00           1631           2.00         2.00
  215.92        2980.25           1635           0.00         2.00
  215.95        2980.50           1638           1.00         2.00
  215.97        2980.75           1641           8.00        18.31
  216.00        2981.00           1645           8.00        18.31
  216.03        2981.25           1648           0.00         2.00
  216.06        2981.50           1651           4.00         2.00
  216.08        2981.75           1655           0.00         2.00
  216.11        2982.00           1658           8.00        18.31
  216.14        2982.25           1661           6.00         9.59
  216.16        2982.50           1665           8.00        18.31
  216.19        2982.75           1668           2.00         2.00
  216.22        2983.00           1671           7.00        13.95
  216.25        2983.25           1675           6.00         9.59
  216.27        2983.50           1678           5.00         5.23
  216.30        2983.75           1681           8.00        18.31
  216.33        2984.00           1685           0.00         2.00
HS scan finished at 03:36:31
end
