************************************************************
  HS Scan of (1) Internal mercury lamp
************************************************************
Integration time is 0.2294 seconds per sample
dh130319Tamanrasset 22.79-5.529 4.974364pr865
************************************************************
Dead Time -------------------------  2.8E-08 
Number of Cycles Used -------------  4 
Starting Wavelength (Angstroms) ---  2950 
Final Wavelength (Angstoms) -------  2984 
Wavelength Increment (Angstroms) --  .25 
Filter Wheel #1 Position ---------- (1) Ground quartz diffuser (ND=2.32)
Filter Wheel #2 Position ---------- (1) Neutral Density 0.494



************************************************************
HS scan start time = 04:01:16
Dark Count =  4.7 


Time (GMT)  Wavelength (Ang)  Step Number  Raw Counts  Counts/Second

  241.62        2950.00           1233          21.00        71.06
  241.68        2950.25           1236          18.00        57.98
  241.71        2950.50           1239          22.00        75.41
  241.73        2950.75           1242          21.00        71.06
  241.76        2951.00           1246          16.00        49.26
  241.79        2951.25           1249          17.00        53.62
  241.82        2951.50           1252          17.00        53.62
  241.84        2951.75           1256          19.00        62.34
  241.87        2952.00           1259          18.00        57.98
  241.90        2952.25           1262          16.00        49.26
  241.92        2952.50           1266          17.00        53.62
  241.95        2952.75           1269          22.00        75.41
  241.98        2953.00           1272          18.00        57.98
  242.01        2953.25           1276          16.00        49.26
  242.03        2953.50           1279          17.00        53.62
  242.06        2953.75           1282          25.00        88.49
  242.09        2954.00           1286          16.00        49.26
  242.11        2954.25           1289          17.00        53.62
  242.14        2954.50           1292          21.00        71.06
  242.17        2954.75           1295          19.00        62.34
  242.20        2955.00           1299          16.00        49.26
  242.22        2955.25           1302          22.00        75.41
  242.25        2955.50           1305          21.00        71.06
  242.28        2955.75           1309          14.00        40.54
  242.30        2956.00           1312          20.00        66.70
  242.33        2956.25           1315          17.00        53.62
  242.36        2956.50           1319          18.00        57.98
  242.39        2956.75           1322          18.00        57.98
  242.41        2957.00           1325          16.00        49.26
  242.44        2957.25           1329          18.00        57.98
  242.47        2957.50           1332          22.00        75.41
  242.49        2957.75           1335          16.00        49.26
  242.52        2958.00           1339          22.00        75.41
  242.55        2958.25           1342          16.00        49.26
  242.58        2958.50           1345          19.00        62.34
  242.60        2958.75           1348          19.00        62.34
  242.63        2959.00           1352          17.00        53.62
  242.66        2959.25           1355          19.00        62.34
  242.68        2959.50           1358          21.00        71.06
  242.71        2959.75           1362          19.00        62.34
  242.74        2960.00           1365          26.00        92.85
  242.77        2960.25           1368          24.00        84.13
  242.79        2960.50           1372          33.00       123.37
  242.82        2960.75           1375          33.00       123.37
  242.85        2961.00           1378          72.00       293.38
  242.87        2961.25           1382         351.00      1509.65
  242.90        2961.50           1385         912.00      3955.54
  242.93        2961.75           1388        1856.00      8072.01
  242.96        2962.00           1392        3857.00     16800.84
  242.98        2962.25           1395        5771.00     25154.15
  243.01        2962.50           1398        7831.00     34149.03
  243.04        2962.75           1402       10477.00     45709.30
  243.06        2963.00           1405       12522.00     54648.95
  243.09        2963.25           1408       14665.00     64021.82
  243.12        2963.50           1412       17365.00     75837.86
  243.15        2963.75           1415       19357.00     84560.49
  243.17        2964.00           1418       21493.00     93918.41
  243.20        2964.25           1422       24164.00    105627.10
  243.23        2964.50           1425       26246.00    114759.20
  243.26        2964.75           1428       28394.00    124185.70
  243.28        2965.00           1431       30480.00    133344.80
  243.31        2965.25           1435       33164.00    145136.60
  243.34        2965.50           1438       35495.00    155383.80
  243.37        2965.75           1441       37632.00    164783.40
  243.39        2966.00           1445       40477.00    177304.80
  243.42        2966.25           1448       42089.00    184403.50
  243.45        2966.50           1451       43426.00    190293.30
  243.48        2966.75           1455       44579.00    195374.10
  243.50        2967.00           1458       45226.00    198225.80
  243.53        2967.25           1461       45315.00    198618.10
  243.56        2967.50           1465       45189.00    198062.70
  243.58        2967.75           1468       44785.00    196282.00
  243.61        2968.00           1471       44065.00    193108.90
  243.64        2968.25           1475       42379.00    185680.80
  243.67        2968.50           1478       40455.00    177208.00
  243.69        2968.75           1481       38456.00    168409.10
  243.72        2969.00           1485       35728.00    156408.40
  243.75        2969.25           1488       33524.00    146718.80
  243.78        2969.50           1491       31211.00    136555.60
  243.80        2969.75           1495       28272.00    123650.10
  243.83        2970.00           1498       26106.00    114145.00
  243.86        2970.25           1501       24025.00    105017.60
  243.89        2970.50           1505       21239.00     92805.38
  243.91        2970.75           1508       19049.00     83211.53
  243.94        2971.00           1511       16961.00     74069.34
  243.97        2971.25           1515       14183.00     61913.26
  243.99        2971.50           1518       12057.00     52615.83
  244.02        2971.75           1521       10048.00     43834.50
  244.05        2972.00           1525        7194.00     31367.12
  244.08        2972.25           1528        5061.00     22055.03
  244.10        2972.50           1531        3345.00     14566.97
  244.13        2972.75           1535        1389.00      6035.46
  244.16        2973.00           1538         528.00      2281.31
  244.19        2973.25           1541         176.00       746.75
  244.21        2973.50           1545          47.00       184.40
  244.24        2973.75           1548          36.00       136.44
  244.27        2974.00           1551          29.00       105.93
  244.29        2974.25           1555          27.00        97.21
  244.32        2974.50           1558          23.00        79.77
  244.35        2974.75           1561          25.00        88.49
  244.37        2975.00           1565          16.00        49.26
  244.40        2975.25           1568          18.00        57.98
  244.43        2975.50           1571          22.00        75.41
  244.46        2975.75           1575          24.00        84.13
  244.48        2976.00           1578          18.00        57.98
  244.51        2976.25           1581          19.00        62.34
  244.54        2976.50           1585          20.00        66.70
  244.57        2976.75           1588          19.00        62.34
  244.59        2977.00           1591          22.00        75.41
  244.62        2977.25           1595          22.00        75.41
  244.65        2977.50           1598          20.00        66.70
  244.67        2977.75           1601          19.00        62.34
  244.70        2978.00           1605          21.00        71.06
  244.73        2978.25           1608          21.00        71.06
  244.76        2978.50           1611          19.00        62.34
  244.78        2978.75           1615          17.00        53.62
  244.81        2979.00           1618          17.00        53.62
  244.84        2979.25           1621          20.00        66.70
  244.86        2979.50           1625          24.00        84.13
  244.89        2979.75           1628          20.00        66.70
  244.92        2980.00           1631          20.00        66.70
  244.95        2980.25           1635          20.00        66.70
  244.97        2980.50           1638          21.00        71.06
  245.00        2980.75           1641          20.00        66.70
  245.03        2981.00           1645          15.00        44.90
  245.05        2981.25           1648          22.00        75.41
  245.08        2981.50           1651          19.00        62.34
  245.11        2981.75           1655          17.00        53.62
  245.14        2982.00           1658          18.00        57.98
  245.16        2982.25           1661          19.00        62.34
  245.19        2982.50           1665          20.00        66.70
  245.22        2982.75           1668          19.00        62.34
  245.24        2983.00           1671          18.00        57.98
  245.27        2983.25           1675          21.00        71.06
  245.30        2983.50           1678          17.00        53.62
  245.33        2983.75           1681          19.00        62.34
  245.35        2984.00           1685          17.00        53.62
HS scan finished at 04:05:32
end
