************************************************************
  HS Scan of (1) Internal mercury lamp
************************************************************
Integration time is 0.2294 seconds per sample
dh120317Tamanrasset 22.79-5.529 2.731107pr865
************************************************************
Dead Time -------------------------  2.8E-08 
Number of Cycles Used -------------  4 
Starting Wavelength (Angstroms) ---  2950 
Final Wavelength (Angstoms) -------  2984 
Wavelength Increment (Angstroms) --  .25 
Filter Wheel #1 Position ---------- (1) Ground quartz diffuser (ND=2.32)
Filter Wheel #2 Position ---------- (1) Neutral Density 0.494



************************************************************
HS scan start time = 03:33:18
Dark Count =  5 


Time (GMT)  Wavelength (Ang)  Step Number  Raw Counts  Counts/Second

  213.66        2950.00           1233           8.00        13.08
  213.72        2950.25           1236           8.00        13.08
  213.75        2950.50           1239           8.00        13.08
  213.77        2950.75           1242           8.00        13.08
  213.80        2951.00           1246           8.00        13.08
  213.83        2951.25           1249           6.00         4.36
  213.85        2951.50           1252           8.00        13.08
  213.88        2951.75           1256           0.00         2.00
  213.91        2952.00           1259           8.00        13.08
  213.94        2952.25           1262           7.00         8.72
  213.96        2952.50           1266           0.00         2.00
  213.99        2952.75           1269           8.00        13.08
  214.02        2953.00           1272           0.00         2.00
  214.04        2953.25           1276           8.00        13.08
  214.07        2953.50           1279           5.00         2.00
  214.10        2953.75           1282           8.00        13.08
  214.13        2954.00           1286           6.00         4.36
  214.15        2954.25           1289           8.00        13.08
  214.18        2954.50           1292           0.00         2.00
  214.21        2954.75           1295           0.00         2.00
  214.23        2955.00           1299           6.00         4.36
  214.26        2955.25           1302           7.00         8.72
  214.29        2955.50           1305           8.00        13.08
  214.32        2955.75           1309           0.00         2.00
  214.34        2956.00           1312           3.00         2.00
  214.37        2956.25           1315           0.00         2.00
  214.40        2956.50           1319           4.00         2.00
  214.42        2956.75           1322           8.00        13.08
  214.45        2957.00           1325           0.00         2.00
  214.48        2957.25           1329           8.00        13.08
  214.51        2957.50           1332           0.00         2.00
  214.53        2957.75           1335           8.00        13.08
  214.56        2958.00           1339           5.00         2.00
  214.59        2958.25           1342           4.00         2.00
  214.61        2958.50           1345           5.00         2.00
  214.64        2958.75           1348           0.00         2.00
  214.67        2959.00           1352           6.00         4.36
  214.69        2959.25           1355           8.00        13.08
  214.72        2959.50           1358           0.00         2.00
  214.75        2959.75           1362           8.00        13.08
  214.78        2960.00           1365           3.00         2.00
  214.80        2960.25           1368           5.00         2.00
  214.83        2960.50           1372           0.00         2.00
  214.86        2960.75           1375           8.00        13.08
  214.89        2961.00           1378           5.00         2.00
  214.91        2961.25           1382           0.00         2.00
  214.94        2961.50           1385           8.00        13.08
  214.97        2961.75           1388           0.00         2.00
  214.99        2962.00           1392           0.00         2.00
  215.02        2962.25           1395           6.00         4.36
  215.05        2962.50           1398           8.00        13.08
  215.08        2962.75           1402           0.00         2.00
  215.10        2963.00           1405           0.00         2.00
  215.13        2963.25           1408           0.00         2.00
  215.16        2963.50           1412           0.00         2.00
  215.18        2963.75           1415           0.00         2.00
  215.21        2964.00           1418           8.00        13.08
  215.24        2964.25           1422           5.00         2.00
  215.27        2964.50           1425           8.00        13.08
  215.29        2964.75           1428           0.00         2.00
  215.32        2965.00           1431           8.00        13.08
  215.35        2965.25           1435           1.00         2.00
  215.37        2965.50           1438           7.00         8.72
  215.40        2965.75           1441           0.00         2.00
  215.43        2966.00           1445           8.00        13.08
  215.46        2966.25           1448           8.00        13.08
  215.48        2966.50           1451           6.00         4.36
  215.51        2966.75           1455           8.00        13.08
  215.54        2967.00           1458           8.00        13.08
  215.56        2967.25           1461           0.00         2.00
  215.59        2967.50           1465           2.00         2.00
  215.62        2967.75           1468           8.00        13.08
  215.65        2968.00           1471           5.00         2.00
  215.67        2968.25           1475           0.00         2.00
  215.70        2968.50           1478           3.00         2.00
  215.73        2968.75           1481           0.00         2.00
  215.75        2969.00           1485           0.00         2.00
  215.78        2969.25           1488           8.00        13.08
  215.81        2969.50           1491           8.00        13.08
  215.83        2969.75           1495           0.00         2.00
  215.86        2970.00           1498           2.00         2.00
  215.89        2970.25           1501           8.00        13.08
  215.92        2970.50           1505           8.00        13.08
  215.94        2970.75           1508           7.00         8.72
  215.97        2971.00           1511           2.00         2.00
  216.00        2971.25           1515           8.00        13.08
  216.02        2971.50           1518           8.00        13.08
  216.05        2971.75           1521           4.00         2.00
  216.08        2972.00           1525           1.00         2.00
  216.11        2972.25           1528           4.00         2.00
  216.13        2972.50           1531           7.00         8.72
  216.16        2972.75           1535           0.00         2.00
  216.19        2973.00           1538           2.00         2.00
  216.21        2973.25           1541           0.00         2.00
  216.24        2973.50           1545           1.00         2.00
  216.27        2973.75           1548           4.00         2.00
  216.30        2974.00           1551           8.00        13.08
  216.32        2974.25           1555           0.00         2.00
  216.35        2974.50           1558           1.00         2.00
  216.38        2974.75           1561           4.00         2.00
  216.40        2975.00           1565           8.00        13.08
  216.43        2975.25           1568           0.00         2.00
  216.46        2975.50           1571           8.00        13.08
  216.49        2975.75           1575           7.00         8.72
  216.51        2976.00           1578           5.00         2.00
  216.54        2976.25           1581           8.00        13.08
  216.57        2976.50           1585           8.00        13.08
  216.59        2976.75           1588           6.00         4.36
  216.62        2977.00           1591           3.00         2.00
  216.65        2977.25           1595           8.00        13.08
  216.68        2977.50           1598           0.00         2.00
  216.70        2977.75           1601           2.00         2.00
  216.73        2978.00           1605           7.00         8.72
  216.76        2978.25           1608           0.00         2.00
  216.78        2978.50           1611           1.00         2.00
  216.81        2978.75           1615           8.00        13.08
  216.84        2979.00           1618           3.00         2.00
  216.86        2979.25           1621           0.00         2.00
  216.89        2979.50           1625           0.00         2.00
  216.92        2979.75           1628           8.00        13.08
  216.95        2980.00           1631           6.00         4.36
  216.97        2980.25           1635           8.00        13.08
  217.00        2980.50           1638           1.00         2.00
  217.03        2980.75           1641           8.00        13.08
  217.05        2981.00           1645           8.00        13.08
  217.08        2981.25           1648           8.00        13.08
  217.11        2981.50           1651           0.00         2.00
  217.14        2981.75           1655           0.00         2.00
  217.16        2982.00           1658           8.00        13.08
  217.19        2982.25           1661           7.00         8.72
  217.22        2982.50           1665           4.00         2.00
  217.24        2982.75           1668           7.00         8.72
  217.27        2983.00           1671           8.00        13.08
  217.30        2983.25           1675           4.00         2.00
  217.33        2983.50           1678           3.00         2.00
  217.35        2983.75           1681           1.00         2.00
  217.38        2984.00           1685           0.00         2.00
HS scan finished at 03:37:34
end
