************************************************************
  HS Scan of (1) Internal mercury lamp
************************************************************
Integration time is 0.2294 seconds per sample
dh190319Tamanrasset 22.79-5.529 4.974364pr865
************************************************************
Dead Time -------------------------  2.8E-08 
Number of Cycles Used -------------  4 
Starting Wavelength (Angstroms) ---  2950 
Final Wavelength (Angstoms) -------  2984 
Wavelength Increment (Angstroms) --  .25 
Filter Wheel #1 Position ---------- (1) Ground quartz diffuser (ND=2.32)
Filter Wheel #2 Position ---------- (1) Neutral Density 0.494



************************************************************
HS scan start time = 03:55:50
Dark Count =  5 


Time (GMT)  Wavelength (Ang)  Step Number  Raw Counts  Counts/Second

  236.19        2950.00           1233          19.00        61.03
  236.25        2950.25           1236          21.00        69.75
  236.28        2950.50           1239          19.00        61.03
  236.31        2950.75           1242          18.00        56.67
  236.33        2951.00           1246          22.00        74.11
  236.36        2951.25           1249          22.00        74.11
  236.39        2951.50           1252          19.00        61.03
  236.42        2951.75           1256          22.00        74.11
  236.44        2952.00           1259          18.00        56.67
  236.47        2952.25           1262          17.00        52.31
  236.50        2952.50           1266          17.00        52.31
  236.53        2952.75           1269          18.00        56.67
  236.55        2953.00           1272          17.00        52.31
  236.58        2953.25           1276          19.00        61.03
  236.61        2953.50           1279          19.00        61.03
  236.63        2953.75           1282          23.00        78.47
  236.66        2954.00           1286          15.00        43.59
  236.69        2954.25           1289          17.00        52.31
  236.72        2954.50           1292          13.00        34.87
  236.74        2954.75           1295          17.00        52.31
  236.77        2955.00           1299          19.00        61.03
  236.80        2955.25           1302          19.00        61.03
  236.82        2955.50           1305          17.00        52.31
  236.85        2955.75           1309          17.00        52.31
  236.88        2956.00           1312          18.00        56.67
  236.91        2956.25           1315          20.00        65.39
  236.93        2956.50           1319          21.00        69.75
  236.96        2956.75           1322          18.00        56.67
  236.99        2957.00           1325          18.00        56.67
  237.01        2957.25           1329          24.00        82.82
  237.04        2957.50           1332          19.00        61.03
  237.07        2957.75           1335          17.00        52.31
  237.10        2958.00           1339          16.00        47.95
  237.12        2958.25           1342          18.00        56.67
  237.15        2958.50           1345          19.00        61.03
  237.18        2958.75           1348          18.00        56.67
  237.20        2959.00           1352          19.00        61.03
  237.23        2959.25           1355          16.00        47.95
  237.26        2959.50           1358          26.00        91.54
  237.28        2959.75           1362          23.00        78.47
  237.31        2960.00           1365          17.00        52.31
  237.34        2960.25           1368          23.00        78.47
  237.37        2960.50           1372          29.00       104.62
  237.39        2960.75           1375          36.00       135.14
  237.42        2961.00           1378          78.00       318.22
  237.45        2961.25           1382         417.00      1796.08
  237.48        2961.50           1385        1033.00      4481.82
  237.50        2961.75           1388        2120.00      9222.09
  237.53        2962.00           1392        4477.00     19504.99
  237.56        2962.25           1395        6710.00     29252.37
  237.58        2962.50           1398        9084.00     39621.09
  237.61        2962.75           1402       12128.00     52924.93
  237.64        2963.00           1405       14518.00     63377.40
  237.67        2963.25           1408       16940.00     73976.09
  237.69        2963.50           1412       20136.00     87971.44
  237.72        2963.75           1415       22531.00     98466.41
  237.75        2964.00           1418       25282.00    110529.00
  237.78        2964.25           1422       28125.00    123003.60
  237.80        2964.50           1425       30611.00    133918.80
  237.83        2964.75           1428       32924.00    144080.50
  237.86        2965.00           1431       35642.00    156028.90
  237.89        2965.25           1435       38534.00    168751.00
  237.91        2965.50           1438       41181.00    180403.30
  237.94        2965.75           1441       43390.00    190133.40
  237.97        2966.00           1445       46731.00    204859.60
  237.99        2966.25           1448       48925.00    214536.80
  238.02        2966.50           1451       50479.00    221394.40
  238.05        2966.75           1455       51775.00    227115.40
  238.08        2967.00           1458       52382.00    229795.60
  238.10        2967.25           1461       52467.00    230170.90
  238.13        2967.50           1465       52138.00    228718.20
  238.16        2967.75           1468       51849.00    227442.10
  238.19        2968.00           1471       50789.00    222762.60
  238.21        2968.25           1475       48397.00    212207.50
  238.24        2968.50           1478       46466.00    203691.10
  238.27        2968.75           1481       43770.00    191807.70
  238.30        2969.00           1485       40660.00    178109.20
  238.32        2969.25           1488       38037.00    166564.00
  238.35        2969.50           1491       35534.00    155554.00
  238.38        2969.75           1495       32049.00    140235.70
  238.40        2970.00           1498       29730.00    130049.90
  238.43        2970.25           1501       27203.00    118957.00
  238.46        2970.50           1505       24040.00    105082.10
  238.49        2970.75           1508       21424.00     93614.72
  238.51        2971.00           1511       19077.00     83332.84
  238.54        2971.25           1515       15810.00     69030.43
  238.57        2971.50           1518       13533.00     59068.85
  238.60        2971.75           1521       11159.00     48688.83
  238.62        2972.00           1525        7987.00     34829.07
  238.65        2972.25           1528        5738.00     25008.79
  238.68        2972.50           1531        3687.00     16057.79
  238.70        2972.75           1535        1568.00      6814.73
  238.73        2973.00           1538         579.00      2502.36
  238.76        2973.25           1541         184.00       780.31
  238.79        2973.50           1545          50.00       196.16
  238.81        2973.75           1548          42.00       161.29
  238.84        2974.00           1551          30.00       108.98
  238.87        2974.25           1555          27.00        95.90
  238.89        2974.50           1558          27.00        95.90
  238.92        2974.75           1561          25.00        87.18
  238.95        2975.00           1565          20.00        65.39
  238.98        2975.25           1568          21.00        69.75
  239.00        2975.50           1571          21.00        69.75
  239.03        2975.75           1575          26.00        91.54
  239.06        2976.00           1578          23.00        78.47
  239.09        2976.25           1581          22.00        74.11
  239.11        2976.50           1585          21.00        69.75
  239.14        2976.75           1588          21.00        69.75
  239.17        2977.00           1591          19.00        61.03
  239.19        2977.25           1595          23.00        78.47
  239.22        2977.50           1598          18.00        56.67
  239.25        2977.75           1601          16.00        47.95
  239.28        2978.00           1605          23.00        78.47
  239.30        2978.25           1608          19.00        61.03
  239.33        2978.50           1611          22.00        74.11
  239.36        2978.75           1615          23.00        78.47
  239.38        2979.00           1618          23.00        78.47
  239.41        2979.25           1621          17.00        52.31
  239.44        2979.50           1625          21.00        69.75
  239.47        2979.75           1628          16.00        47.95
  239.49        2980.00           1631          20.00        65.39
  239.52        2980.25           1635          23.00        78.47
  239.55        2980.50           1638          19.00        61.03
  239.57        2980.75           1641          16.00        47.95
  239.60        2981.00           1645          17.00        52.31
  239.63        2981.25           1648          19.00        61.03
  239.66        2981.50           1651          17.00        52.31
  239.68        2981.75           1655          20.00        65.39
  239.71        2982.00           1658          18.00        56.67
  239.74        2982.25           1661          18.00        56.67
  239.76        2982.50           1665          23.00        78.47
  239.79        2982.75           1668          18.00        56.67
  239.82        2983.00           1671          18.00        56.67
  239.84        2983.25           1675          15.00        43.59
  239.87        2983.50           1678          18.00        56.67
  239.90        2983.75           1681          19.00        61.03
  239.93        2984.00           1685          21.00        69.75
HS scan finished at 04:00:07
end
