************************************************************
  HS Scan of (1) Internal mercury lamp
************************************************************
Integration time is 0.2294 seconds per sample
dh170319Tamanrasset 22.79-5.529 4.974364pr865
************************************************************
Dead Time -------------------------  2.8E-08 
Number of Cycles Used -------------  4 
Starting Wavelength (Angstroms) ---  2950 
Final Wavelength (Angstoms) -------  2984 
Wavelength Increment (Angstroms) --  .25 
Filter Wheel #1 Position ---------- (1) Ground quartz diffuser (ND=2.32)
Filter Wheel #2 Position ---------- (1) Neutral Density 0.494



************************************************************
HS scan start time = 03:57:49
Dark Count =  4.1 


Time (GMT)  Wavelength (Ang)  Step Number  Raw Counts  Counts/Second

  238.17        2950.00           1233          19.00        64.95
  238.24        2950.25           1236          21.00        73.67
  238.27        2950.50           1239          19.00        64.95
  238.29        2950.75           1242          21.00        73.67
  238.32        2951.00           1246          18.00        60.59
  238.35        2951.25           1249          23.00        82.39
  238.37        2951.50           1252          21.00        73.67
  238.40        2951.75           1256          23.00        82.39
  238.43        2952.00           1259          18.00        60.59
  238.45        2952.25           1262          23.00        82.39
  238.48        2952.50           1266          18.00        60.59
  238.51        2952.75           1269          19.00        64.95
  238.54        2953.00           1272          18.00        60.59
  238.56        2953.25           1276          19.00        64.95
  238.59        2953.50           1279          17.00        56.23
  238.62        2953.75           1282          16.00        51.87
  238.65        2954.00           1286          17.00        56.23
  238.67        2954.25           1289          19.00        64.95
  238.70        2954.50           1292          19.00        64.95
  238.73        2954.75           1295          23.00        82.39
  238.75        2955.00           1299          16.00        51.87
  238.78        2955.25           1302          16.00        51.87
  238.81        2955.50           1305          21.00        73.67
  238.83        2955.75           1309          16.00        51.87
  238.86        2956.00           1312          19.00        64.95
  238.89        2956.25           1315          20.00        69.31
  238.92        2956.50           1319          20.00        69.31
  238.94        2956.75           1322          22.00        78.03
  238.97        2957.00           1325          23.00        82.39
  239.00        2957.25           1329          24.00        86.75
  239.03        2957.50           1332          20.00        69.31
  239.05        2957.75           1335          20.00        69.31
  239.08        2958.00           1339          17.00        56.23
  239.11        2958.25           1342          22.00        78.03
  239.13        2958.50           1345          16.00        51.87
  239.16        2958.75           1348          18.00        60.59
  239.19        2959.00           1352          17.00        56.23
  239.22        2959.25           1355          17.00        56.23
  239.24        2959.50           1358          21.00        73.67
  239.27        2959.75           1362          21.00        73.67
  239.30        2960.00           1365          23.00        82.39
  239.32        2960.25           1368          21.00        73.67
  239.35        2960.50           1372          26.00        95.47
  239.38        2960.75           1375          32.00       121.62
  239.41        2961.00           1378          65.00       265.48
  239.43        2961.25           1382         337.00      1451.24
  239.46        2961.50           1385         848.00      3679.11
  239.49        2961.75           1388        1720.00      7481.51
  239.51        2962.00           1392        3754.00     16354.04
  239.54        2962.25           1395        5738.00     25012.72
  239.57        2962.50           1398        7698.00     33570.78
  239.60        2962.75           1402       10411.00     45423.48
  239.62        2963.00           1405       12455.00     54358.62
  239.65        2963.25           1408       14706.00     64203.82
  239.68        2963.50           1412       17121.00     74772.35
  239.71        2963.75           1415       19118.00     83516.35
  239.73        2964.00           1418       21456.00     93758.89
  239.76        2964.25           1422       23904.00    104489.70
  239.79        2964.50           1425       25994.00    113656.20
  239.82        2964.75           1428       28323.00    123876.60
  239.84        2965.00           1431       30467.00    133290.40
  239.87        2965.25           1435       33388.00    146123.70
  239.90        2965.50           1438       35663.00    156125.20
  239.92        2965.75           1441       37576.00    164539.60
  239.95        2966.00           1445       40561.00    177677.30
  239.98        2966.25           1448       42487.00    186159.20
  240.01        2966.50           1451       43895.00    192362.40
  240.03        2966.75           1455       45321.00    198647.20
  240.06        2967.00           1458       45716.00    200388.40
  240.09        2967.25           1461       45904.00    201217.20
  240.12        2967.50           1465       45538.00    199603.70
  240.14        2967.75           1468       45397.00    198982.20
  240.17        2968.00           1471       44595.00    195447.20
  240.20        2968.25           1475       42939.00    188150.40
  240.23        2968.50           1478       41118.00    180129.90
  240.25        2968.75           1481       38796.00    169908.00
  240.28        2969.00           1485       35998.00    157598.50
  240.31        2969.25           1488       33651.00    147279.60
  240.33        2969.50           1491       31518.00    137906.80
  240.36        2969.75           1495       28529.00    124780.90
  240.39        2970.00           1498       26511.00    115924.50
  240.42        2970.25           1501       24409.00    106704.10
  240.44        2970.50           1505       21399.00     93509.12
  240.47        2970.75           1508       19076.00     83332.40
  240.50        2971.00           1511       16946.00     74006.30
  240.53        2971.25           1515       14312.00     62480.18
  240.55        2971.50           1518       12174.00     53129.99
  240.58        2971.75           1521        9965.00     43474.43
  240.61        2972.00           1525        7302.00     31841.37
  240.63        2972.25           1528        5165.00     22511.57
  240.66        2972.50           1531        3368.00     14669.93
  240.69        2972.75           1535        1485.00      6456.70
  240.72        2973.00           1538         624.00      2702.47
  240.74        2973.25           1541         197.00       840.91
  240.77        2973.50           1545          48.00       191.37
  240.80        2973.75           1548          30.00       112.90
  240.83        2974.00           1551          31.00       117.26
  240.85        2974.25           1555          28.00       104.19
  240.88        2974.50           1558          22.00        78.03
  240.91        2974.75           1561          21.00        73.67
  240.93        2975.00           1565          15.00        47.52
  240.96        2975.25           1568          18.00        60.59
  240.99        2975.50           1571          18.00        60.59
  241.02        2975.75           1575          24.00        86.75
  241.04        2976.00           1578          19.00        64.95
  241.07        2976.25           1581          18.00        60.59
  241.10        2976.50           1585          26.00        95.47
  241.12        2976.75           1588          22.00        78.03
  241.15        2977.00           1591          17.00        56.23
  241.18        2977.25           1595          21.00        73.67
  241.21        2977.50           1598          15.00        47.52
  241.23        2977.75           1601          17.00        56.23
  241.26        2978.00           1605          25.00        91.11
  241.29        2978.25           1608          20.00        69.31
  241.31        2978.50           1611          19.00        64.95
  241.34        2978.75           1615          14.00        43.16
  241.37        2979.00           1618          25.00        91.11
  241.40        2979.25           1621          17.00        56.23
  241.42        2979.50           1625          24.00        86.75
  241.45        2979.75           1628          19.00        64.95
  241.48        2980.00           1631          18.00        60.59
  241.51        2980.25           1635          21.00        73.67
  241.53        2980.50           1638          17.00        56.23
  241.56        2980.75           1641          21.00        73.67
  241.59        2981.00           1645          18.00        60.59
  241.61        2981.25           1648          17.00        56.23
  241.64        2981.50           1651          20.00        69.31
  241.67        2981.75           1655          17.00        56.23
  241.70        2982.00           1658          19.00        64.95
  241.72        2982.25           1661          22.00        78.03
  241.75        2982.50           1665          18.00        60.59
  241.78        2982.75           1668          16.00        51.87
  241.80        2983.00           1671          20.00        69.31
  241.83        2983.25           1675          13.00        38.80
  241.86        2983.50           1678          18.00        60.59
  241.89        2983.75           1681          22.00        78.03
  241.91        2984.00           1685          18.00        60.59
HS scan finished at 04:02:06
end
