************************************************************
  HS Scan of (1) Internal mercury lamp
************************************************************
Integration time is 0.2294 seconds per sample
dh220319Tamanrasset 22.79-5.529 4.974364pr865
************************************************************
Dead Time -------------------------  2.8E-08 
Number of Cycles Used -------------  4 
Starting Wavelength (Angstroms) ---  2950 
Final Wavelength (Angstoms) -------  2984 
Wavelength Increment (Angstroms) --  .25 
Filter Wheel #1 Position ---------- (1) Ground quartz diffuser (ND=2.32)
Filter Wheel #2 Position ---------- (1) Neutral Density 0.494



************************************************************
HS scan start time = 03:52:52
Dark Count =  4.3 


Time (GMT)  Wavelength (Ang)  Step Number  Raw Counts  Counts/Second

  233.23        2950.00           1233          17.00        55.36
  233.29        2950.25           1236          19.00        64.08
  233.32        2950.50           1239          17.00        55.36
  233.34        2950.75           1242          21.00        72.80
  233.37        2951.00           1246          22.00        77.16
  233.40        2951.25           1249          19.00        64.08
  233.43        2951.50           1252          17.00        55.36
  233.45        2951.75           1256          22.00        77.16
  233.48        2952.00           1259          18.00        59.72
  233.51        2952.25           1262          20.00        68.44
  233.54        2952.50           1266          20.00        68.44
  233.56        2952.75           1269          20.00        68.44
  233.59        2953.00           1272          21.00        72.80
  233.62        2953.25           1276          18.00        59.72
  233.64        2953.50           1279          19.00        64.08
  233.67        2953.75           1282          18.00        59.72
  233.70        2954.00           1286          22.00        77.16
  233.73        2954.25           1289          19.00        64.08
  233.75        2954.50           1292          19.00        64.08
  233.78        2954.75           1295          20.00        68.44
  233.81        2955.00           1299          20.00        68.44
  233.84        2955.25           1302          19.00        64.08
  233.86        2955.50           1305          19.00        64.08
  233.89        2955.75           1309          22.00        77.16
  233.92        2956.00           1312          17.00        55.36
  233.94        2956.25           1315          24.00        85.88
  233.97        2956.50           1319          18.00        59.72
  234.00        2956.75           1322          19.00        64.08
  234.03        2957.00           1325          16.00        51.00
  234.05        2957.25           1329          16.00        51.00
  234.08        2957.50           1332          18.00        59.72
  234.11        2957.75           1335          18.00        59.72
  234.14        2958.00           1339          19.00        64.08
  234.16        2958.25           1342          22.00        77.16
  234.19        2958.50           1345          19.00        64.08
  234.22        2958.75           1348          18.00        59.72
  234.25        2959.00           1352          17.00        55.36
  234.27        2959.25           1355          19.00        64.08
  234.30        2959.50           1358          14.00        42.28
  234.33        2959.75           1362          28.00       103.31
  234.35        2960.00           1365          22.00        77.16
  234.38        2960.25           1368          25.00        90.24
  234.41        2960.50           1372          29.00       107.67
  234.44        2960.75           1375          29.00       107.67
  234.46        2961.00           1378          86.00       356.15
  234.49        2961.25           1382         419.00      1807.85
  234.52        2961.50           1385         974.00      4227.61
  234.55        2961.75           1388        2069.00      9002.71
  234.57        2962.00           1392        4079.00     17771.26
  234.60        2962.25           1395        6109.00     26631.45
  234.63        2962.50           1398        8110.00     35369.36
  234.65        2962.75           1402       10759.00     46943.53
  234.68        2963.00           1405       12877.00     56203.03
  234.71        2963.25           1408       14905.00     65073.56
  234.74        2963.50           1412       17501.00     76434.99
  234.76        2963.75           1415       19710.00     86108.41
  234.79        2964.00           1418       21684.00     94757.18
  234.82        2964.25           1422       24492.00    107067.20
  234.85        2964.50           1425       26487.00    115818.30
  234.87        2964.75           1428       28689.00    125482.40
  234.90        2965.00           1431       30805.00    134774.00
  234.93        2965.25           1435       33528.00    146738.10
  234.96        2965.50           1438       35801.00    156731.20
  234.98        2965.75           1441       37762.00    165357.10
  235.01        2966.00           1445       40499.00    177403.40
  235.04        2966.25           1448       42102.00    184462.50
  235.07        2966.50           1451       43676.00    191396.60
  235.09        2966.75           1455       44887.00    196733.30
  235.12        2967.00           1458       45177.00    198011.50
  235.15        2967.25           1461       45606.00    199902.60
  235.18        2967.50           1465       45117.00    197747.10
  235.20        2967.75           1468       44761.00    196178.00
  235.23        2968.00           1471       44069.00    193128.30
  235.26        2968.25           1475       42095.00    184431.70
  235.29        2968.50           1478       40494.00    177381.40
  235.31        2968.75           1481       38459.00    168424.10
  235.34        2969.00           1485       35491.00    155368.00
  235.37        2969.25           1488       33286.00    145674.50
  235.40        2969.50           1491       31000.00    135630.50
  235.42        2969.75           1495       28212.00    123388.50
  235.45        2970.00           1498       25921.00    113335.10
  235.48        2970.25           1501       23771.00    103905.60
  235.51        2970.50           1505       20970.00     91628.41
  235.53        2970.75           1508       18813.00     82179.73
  235.56        2971.00           1511       16543.00     72241.45
  235.59        2971.25           1515       13856.00     60484.66
  235.62        2971.50           1518       11804.00     51511.48
  235.64        2971.75           1521        9692.00     42280.64
  235.67        2972.00           1525        6941.00     30264.08
  235.70        2972.25           1528        4775.00     20808.55
  235.73        2972.50           1531        3045.00     13259.94
  235.75        2972.75           1535        1253.00      5444.16
  235.78        2973.00           1538         518.00      2239.46
  235.81        2973.25           1541         159.00       674.38
  235.84        2973.50           1545          46.00       181.78
  235.86        2973.75           1548          32.00       120.75
  235.89        2974.00           1551          27.00        98.95
  235.92        2974.25           1555          25.00        90.24
  235.94        2974.50           1558          23.00        81.52
  235.97        2974.75           1561          21.00        72.80
  236.00        2975.00           1565          26.00        94.59
  236.03        2975.25           1568          22.00        77.16
  236.05        2975.50           1571          22.00        77.16
  236.08        2975.75           1575          19.00        64.08
  236.11        2976.00           1578          22.00        77.16
  236.14        2976.25           1581          21.00        72.80
  236.16        2976.50           1585          18.00        59.72
  236.19        2976.75           1588          20.00        68.44
  236.22        2977.00           1591          19.00        64.08
  236.25        2977.25           1595          22.00        77.16
  236.27        2977.50           1598          20.00        68.44
  236.30        2977.75           1601          21.00        72.80
  236.33        2978.00           1605          15.00        46.64
  236.35        2978.25           1608          26.00        94.59
  236.38        2978.50           1611          20.00        68.44
  236.41        2978.75           1615          20.00        68.44
  236.44        2979.00           1618          23.00        81.52
  236.46        2979.25           1621          23.00        81.52
  236.49        2979.50           1625          20.00        68.44
  236.52        2979.75           1628          20.00        68.44
  236.54        2980.00           1631          15.00        46.64
  236.57        2980.25           1635          24.00        85.88
  236.60        2980.50           1638          23.00        81.52
  236.63        2980.75           1641          19.00        64.08
  236.65        2981.00           1645          20.00        68.44
  236.68        2981.25           1648          22.00        77.16
  236.71        2981.50           1651          18.00        59.72
  236.74        2981.75           1655          23.00        81.52
  236.76        2982.00           1658          21.00        72.80
  236.79        2982.25           1661          17.00        55.36
  236.82        2982.50           1665          18.00        59.72
  236.84        2982.75           1668          20.00        68.44
  236.87        2983.00           1671          18.00        59.72
  236.90        2983.25           1675          20.00        68.44
  236.93        2983.50           1678          20.00        68.44
  236.95        2983.75           1681          19.00        64.08
  236.98        2984.00           1685          15.00        46.64
HS scan finished at 03:57:10
end
