************************************************************
  HS Scan of (1) Internal mercury lamp
************************************************************
Integration time is 0.2294 seconds per sample
dh240319Tamanrasset 22.79-5.529 4.974364pr865
************************************************************
Dead Time -------------------------  2.8E-08 
Number of Cycles Used -------------  4 
Starting Wavelength (Angstroms) ---  2950 
Final Wavelength (Angstoms) -------  2984 
Wavelength Increment (Angstroms) --  .25 
Filter Wheel #1 Position ---------- (1) Ground quartz diffuser (ND=2.32)
Filter Wheel #2 Position ---------- (1) Neutral Density 0.494



************************************************************
HS scan start time = 03:51:21
Dark Count =  4.2 


Time (GMT)  Wavelength (Ang)  Step Number  Raw Counts  Counts/Second

  231.71        2950.00           1233          20.00        68.88
  231.77        2950.25           1236          22.00        77.59
  231.80        2950.50           1239          17.00        55.80
  231.83        2950.75           1242          18.00        60.16
  231.85        2951.00           1246          17.00        55.80
  231.88        2951.25           1249          21.00        73.23
  231.91        2951.50           1252          19.00        64.52
  231.94        2951.75           1256          19.00        64.52
  231.96        2952.00           1259          19.00        64.52
  231.99        2952.25           1262          23.00        81.95
  232.02        2952.50           1266          19.00        64.52
  232.04        2952.75           1269          25.00        90.67
  232.07        2953.00           1272          14.00        42.72
  232.10        2953.25           1276          20.00        68.88
  232.13        2953.50           1279          19.00        64.52
  232.15        2953.75           1282          16.00        51.44
  232.18        2954.00           1286          19.00        64.52
  232.21        2954.25           1289          15.00        47.08
  232.24        2954.50           1292          15.00        47.08
  232.26        2954.75           1295          18.00        60.16
  232.29        2955.00           1299          18.00        60.16
  232.32        2955.25           1302          19.00        64.52
  232.34        2955.50           1305          20.00        68.88
  232.37        2955.75           1309          20.00        68.88
  232.40        2956.00           1312          16.00        51.44
  232.43        2956.25           1315          20.00        68.88
  232.45        2956.50           1319          17.00        55.80
  232.48        2956.75           1322          20.00        68.88
  232.51        2957.00           1325          20.00        68.88
  232.53        2957.25           1329          15.00        47.08
  232.56        2957.50           1332          18.00        60.16
  232.59        2957.75           1335          20.00        68.88
  232.62        2958.00           1339          17.00        55.80
  232.64        2958.25           1342          18.00        60.16
  232.67        2958.50           1345          15.00        47.08
  232.70        2958.75           1348          17.00        55.80
  232.73        2959.00           1352          18.00        60.16
  232.75        2959.25           1355          19.00        64.52
  232.78        2959.50           1358          19.00        64.52
  232.81        2959.75           1362          19.00        64.52
  232.84        2960.00           1365          27.00        99.39
  232.86        2960.25           1368          21.00        73.23
  232.89        2960.50           1372          24.00        86.31
  232.92        2960.75           1375          31.00       116.83
  232.94        2961.00           1378          70.00       286.84
  232.97        2961.25           1382         376.00      1620.82
  233.00        2961.50           1385         901.00      3909.76
  233.03        2961.75           1388        1937.00      8427.45
  233.05        2962.00           1392        4163.00     18138.24
  233.08        2962.25           1395        6148.00     26802.15
  233.11        2962.50           1398        8303.00     36212.81
  233.14        2962.75           1402       11075.00     48325.15
  233.16        2963.00           1405       13246.00     57817.15
  233.19        2963.25           1408       15642.00     68298.75
  233.22        2963.50           1412       18520.00     80897.08
  233.25        2963.75           1415       20640.00     90182.98
  233.27        2964.00           1418       22881.00    100004.10
  233.30        2964.25           1422       25844.00    112997.80
  233.33        2964.50           1425       27888.00    121966.80
  233.36        2964.75           1428       30446.00    133197.70
  233.38        2965.00           1431       32794.00    143512.80
  233.41        2965.25           1435       35878.00    157070.30
  233.44        2965.50           1438       38044.00    166598.40
  233.46        2965.75           1441       40177.00    175986.30
  233.49        2966.00           1445       43501.00    190625.90
  233.52        2966.25           1448       45201.00    198117.80
  233.55        2966.50           1451       46527.00    203963.60
  233.57        2966.75           1455       48137.00    211064.10
  233.60        2967.00           1458       48367.00    212078.70
  233.63        2967.25           1461       48558.00    212921.30
  233.66        2967.50           1465       48562.00    212938.90
  233.68        2967.75           1468       48153.00    211134.70
  233.71        2968.00           1471       47298.00    207363.50
  233.74        2968.25           1475       45236.00    198272.10
  233.77        2968.50           1478       43273.00    189621.40
  233.79        2968.75           1481       41042.00    179794.80
  233.82        2969.00           1485       38250.00    167504.80
  233.85        2969.25           1488       35559.00    155667.50
  233.88        2969.50           1491       33426.00    146290.30
  233.90        2969.75           1495       30417.00    133070.30
  233.93        2970.00           1498       27832.00    121721.00
  233.96        2970.25           1501       25896.00    113225.90
  233.99        2970.50           1505       22948.00    100297.80
  234.02        2970.75           1508       20565.00     89854.39
  234.04        2971.00           1511       18236.00     79653.49
  234.07        2971.25           1515       15321.00     66894.15
  234.10        2971.50           1518       13065.00     57025.60
  234.12        2971.75           1521       10752.00     46913.37
  234.15        2972.00           1525        7843.00     34203.62
  234.18        2972.25           1528        5711.00     24894.42
  234.21        2972.50           1531        3594.00     15655.51
  234.23        2972.75           1535        1678.00      7297.92
  234.26        2973.00           1538         670.00      2902.59
  234.29        2973.25           1541         227.00       971.26
  234.32        2973.50           1545          55.00       221.45
  234.34        2973.75           1548          35.00       134.26
  234.37        2974.00           1551          29.00       108.11
  234.40        2974.25           1555          21.00        73.23
  234.43        2974.50           1558          18.00        60.16
  234.45        2974.75           1561          21.00        73.23
  234.48        2975.00           1565          23.00        81.95
  234.51        2975.25           1568          23.00        81.95
  234.53        2975.50           1571          22.00        77.59
  234.56        2975.75           1575          14.00        42.72
  234.59        2976.00           1578          21.00        73.23
  234.62        2976.25           1581          18.00        60.16
  234.64        2976.50           1585          19.00        64.52
  234.67        2976.75           1588          21.00        73.23
  234.70        2977.00           1591          20.00        68.88
  234.72        2977.25           1595          19.00        64.52
  234.75        2977.50           1598          20.00        68.88
  234.78        2977.75           1601          19.00        64.52
  234.81        2978.00           1605          15.00        47.08
  234.83        2978.25           1608          25.00        90.67
  234.86        2978.50           1611          20.00        68.88
  234.89        2978.75           1615          16.00        51.44
  234.92        2979.00           1618          16.00        51.44
  234.94        2979.25           1621          23.00        81.95
  234.97        2979.50           1625          20.00        68.88
  235.00        2979.75           1628          22.00        77.59
  235.02        2980.00           1631          19.00        64.52
  235.05        2980.25           1635          22.00        77.59
  235.08        2980.50           1638          19.00        64.52
  235.11        2980.75           1641          19.00        64.52
  235.13        2981.00           1645          16.00        51.44
  235.16        2981.25           1648          20.00        68.88
  235.19        2981.50           1651          19.00        64.52
  235.22        2981.75           1655          20.00        68.88
  235.24        2982.00           1658          19.00        64.52
  235.27        2982.25           1661          16.00        51.44
  235.30        2982.50           1665          18.00        60.16
  235.33        2982.75           1668          22.00        77.59
  235.35        2983.00           1671          16.00        51.44
  235.38        2983.25           1675          18.00        60.16
  235.41        2983.50           1678          18.00        60.16
  235.43        2983.75           1681          19.00        64.52
  235.46        2984.00           1685          21.00        73.23
HS scan finished at 03:55:39
end
