************************************************************
  HS Scan of (1) Internal mercury lamp
************************************************************
Integration time is 0.2294 seconds per sample
dh260319Tamanrasset 22.79-5.529 4.974364pr865
************************************************************
Dead Time -------------------------  2.8E-08 
Number of Cycles Used -------------  4 
Starting Wavelength (Angstroms) ---  2950 
Final Wavelength (Angstoms) -------  2984 
Wavelength Increment (Angstroms) --  .25 
Filter Wheel #1 Position ---------- (1) Ground quartz diffuser (ND=2.32)
Filter Wheel #2 Position ---------- (1) Neutral Density 0.494



************************************************************
HS scan start time = 03:49:21
Dark Count =  4.7 


Time (GMT)  Wavelength (Ang)  Step Number  Raw Counts  Counts/Second

  229.71        2950.00           1233          21.00        71.06
  229.78        2950.25           1236          18.00        57.98
  229.81        2950.50           1239          19.00        62.34
  229.83        2950.75           1242          20.00        66.70
  229.86        2951.00           1246          20.00        66.70
  229.89        2951.25           1249          19.00        62.34
  229.91        2951.50           1252          19.00        62.34
  229.94        2951.75           1256          16.00        49.26
  229.97        2952.00           1259          15.00        44.90
  230.00        2952.25           1262          19.00        62.34
  230.02        2952.50           1266          16.00        49.26
  230.05        2952.75           1269          18.00        57.98
  230.08        2953.00           1272          17.00        53.62
  230.11        2953.25           1276          18.00        57.98
  230.13        2953.50           1279          18.00        57.98
  230.16        2953.75           1282          22.00        75.41
  230.19        2954.00           1286          15.00        44.90
  230.22        2954.25           1289          16.00        49.26
  230.24        2954.50           1292          19.00        62.34
  230.27        2954.75           1295          20.00        66.70
  230.30        2955.00           1299          22.00        75.41
  230.32        2955.25           1302          22.00        75.41
  230.35        2955.50           1305          21.00        71.06
  230.38        2955.75           1309          17.00        53.62
  230.41        2956.00           1312          18.00        57.98
  230.43        2956.25           1315          16.00        49.26
  230.46        2956.50           1319          20.00        66.70
  230.49        2956.75           1322          20.00        66.70
  230.52        2957.00           1325          17.00        53.62
  230.54        2957.25           1329          22.00        75.41
  230.57        2957.50           1332          16.00        49.26
  230.60        2957.75           1335          17.00        53.62
  230.63        2958.00           1339          18.00        57.98
  230.65        2958.25           1342          17.00        53.62
  230.68        2958.50           1345          21.00        71.06
  230.71        2958.75           1348          21.00        71.06
  230.73        2959.00           1352          17.00        53.62
  230.76        2959.25           1355          21.00        71.06
  230.79        2959.50           1358          23.00        79.77
  230.82        2959.75           1362          19.00        62.34
  230.84        2960.00           1365          20.00        66.70
  230.87        2960.25           1368          25.00        88.49
  230.90        2960.50           1372          26.00        92.85
  230.93        2960.75           1375          35.00       132.08
  230.95        2961.00           1378          70.00       284.66
  230.98        2961.25           1382         402.00      1731.99
  231.01        2961.50           1385        1040.00      4513.65
  231.03        2961.75           1388        2160.00      9397.85
  231.06        2962.00           1392        4422.00     19266.28
  231.09        2962.25           1395        6523.00     28437.20
  231.12        2962.50           1398        8937.00     38980.19
  231.14        2962.75           1402       11796.00     51474.75
  231.17        2963.00           1405       14214.00     62048.87
  231.20        2963.25           1408       16749.00     73141.36
  231.23        2963.50           1412       19709.00     86102.28
  231.26        2963.75           1415       21717.00     94900.06
  231.28        2964.00           1418       24219.00    105868.30
  231.31        2964.25           1422       27343.00    119572.70
  231.34        2964.50           1425       29698.00    129910.70
  231.36        2964.75           1428       32032.00    140162.40
  231.39        2965.00           1431       34517.00    151083.70
  231.42        2965.25           1435       37839.00    165694.20
  231.45        2965.50           1438       40372.00    176842.60
  231.47        2965.75           1441       42834.00    187685.10
  231.50        2966.00           1445       45682.00    200235.90
  231.53        2966.25           1448       47787.00    209518.10
  231.56        2966.50           1451       49369.00    216497.20
  231.58        2966.75           1455       50442.00    221232.40
  231.61        2967.00           1458       50824.00    222918.50
  231.64        2967.25           1461       51277.00    224918.20
  231.67        2967.50           1465       50722.00    222468.20
  231.69        2967.75           1468       50497.00    221475.10
  231.72        2968.00           1471       49705.00    217979.80
  231.75        2968.25           1475       47434.00    207961.20
  231.78        2968.50           1478       45091.00    197630.70
  231.80        2968.75           1481       43213.00    189354.90
  231.83        2969.00           1485       40003.00    175218.10
  231.86        2969.25           1488       37159.00    162702.50
  231.89        2969.50           1491       34835.00    152481.80
  231.91        2969.75           1495       31572.00    138141.40
  231.94        2970.00           1498       29028.00    126968.90
  231.97        2970.25           1501       26909.00    117668.20
  232.00        2970.50           1505       23594.00    103127.80
  232.02        2970.75           1508       21214.00     92695.82
  232.05        2971.00           1511       18857.00     82370.68
  232.08        2971.25           1515       15531.00     67810.85
  232.11        2971.50           1518       13255.00     57854.33
  232.13        2971.75           1521       11141.00     48611.46
  232.16        2972.00           1525        7914.00     34511.54
  232.19        2972.25           1528        5786.00     25219.63
  232.22        2972.50           1531        3651.00     15902.02
  232.24        2972.75           1535        1553.00      6750.62
  232.27        2973.00           1538         608.00      2630.10
  232.30        2973.25           1541         189.00       803.42
  232.32        2973.50           1545          45.00       175.68
  232.35        2973.75           1548          32.00       119.01
  232.38        2974.00           1551          31.00       114.65
  232.41        2974.25           1555          29.00       105.93
  232.43        2974.50           1558          28.00       101.57
  232.46        2974.75           1561          25.00        88.49
  232.49        2975.00           1565          23.00        79.77
  232.52        2975.25           1568          20.00        66.70
  232.54        2975.50           1571          22.00        75.41
  232.57        2975.75           1575          20.00        66.70
  232.60        2976.00           1578          24.00        84.13
  232.62        2976.25           1581          17.00        53.62
  232.65        2976.50           1585          22.00        75.41
  232.68        2976.75           1588          19.00        62.34
  232.71        2977.00           1591          23.00        79.77
  232.73        2977.25           1595          26.00        92.85
  232.76        2977.50           1598          21.00        71.06
  232.79        2977.75           1601          16.00        49.26
  232.82        2978.00           1605          22.00        75.41
  232.84        2978.25           1608          20.00        66.70
  232.87        2978.50           1611          22.00        75.41
  232.90        2978.75           1615          24.00        84.13
  232.92        2979.00           1618          22.00        75.41
  232.95        2979.25           1621          26.00        92.85
  232.98        2979.50           1625          18.00        57.98
  233.01        2979.75           1628          22.00        75.41
  233.03        2980.00           1631          21.00        71.06
  233.06        2980.25           1635          20.00        66.70
  233.09        2980.50           1638          22.00        75.41
  233.12        2980.75           1641          18.00        57.98
  233.14        2981.00           1645          19.00        62.34
  233.17        2981.25           1648          23.00        79.77
  233.20        2981.50           1651          16.00        49.26
  233.23        2981.75           1655          17.00        53.62
  233.25        2982.00           1658          17.00        53.62
  233.28        2982.25           1661          18.00        57.98
  233.31        2982.50           1665          15.00        44.90
  233.33        2982.75           1668          20.00        66.70
  233.36        2983.00           1671          23.00        79.77
  233.39        2983.25           1675          18.00        57.98
  233.42        2983.50           1678          21.00        71.06
  233.44        2983.75           1681          17.00        53.62
  233.47        2984.00           1685          18.00        57.98
HS scan finished at 03:53:39
end
