************************************************************
  HS Scan of (1) Internal mercury lamp
************************************************************
Integration time is 0.2294 seconds per sample
dh300319Tamanrasset 22.79-5.529 4.974364pr865
************************************************************
Dead Time -------------------------  2.8E-08 
Number of Cycles Used -------------  4 
Starting Wavelength (Angstroms) ---  2950 
Final Wavelength (Angstoms) -------  2984 
Wavelength Increment (Angstroms) --  .25 
Filter Wheel #1 Position ---------- (1) Ground quartz diffuser (ND=2.32)
Filter Wheel #2 Position ---------- (1) Neutral Density 0.494



************************************************************
HS scan start time = 03:45:23
Dark Count =  3.5 


Time (GMT)  Wavelength (Ang)  Step Number  Raw Counts  Counts/Second

  225.73        2950.00           1233          12.00        37.05
  225.80        2950.25           1236          16.00        54.49
  225.82        2950.50           1239          16.00        54.49
  225.85        2950.75           1242          14.00        45.77
  225.88        2951.00           1246          24.00        89.36
  225.91        2951.25           1249          20.00        71.93
  225.93        2951.50           1252          17.00        58.85
  225.96        2951.75           1256          21.00        76.29
  225.99        2952.00           1259          16.00        54.49
  226.01        2952.25           1262          21.00        76.29
  226.04        2952.50           1266          17.00        58.85
  226.07        2952.75           1269          16.00        54.49
  226.10        2953.00           1272          22.00        80.65
  226.12        2953.25           1276          23.00        85.00
  226.15        2953.50           1279          22.00        80.65
  226.18        2953.75           1282          18.00        63.21
  226.20        2954.00           1286          16.00        54.49
  226.23        2954.25           1289          17.00        58.85
  226.26        2954.50           1292          17.00        58.85
  226.29        2954.75           1295          19.00        67.57
  226.31        2955.00           1299          20.00        71.93
  226.34        2955.25           1302          20.00        71.93
  226.37        2955.50           1305          25.00        93.72
  226.39        2955.75           1309          23.00        85.00
  226.42        2956.00           1312          19.00        67.57
  226.45        2956.25           1315          19.00        67.57
  226.48        2956.50           1319          18.00        63.21
  226.50        2956.75           1322          18.00        63.21
  226.53        2957.00           1325          21.00        76.29
  226.56        2957.25           1329          18.00        63.21
  226.58        2957.50           1332          18.00        63.21
  226.61        2957.75           1335          20.00        71.93
  226.64        2958.00           1339          19.00        67.57
  226.67        2958.25           1342          17.00        58.85
  226.69        2958.50           1345          22.00        80.65
  226.72        2958.75           1348          16.00        54.49
  226.75        2959.00           1352          18.00        63.21
  226.77        2959.25           1355          22.00        80.65
  226.80        2959.50           1358          21.00        76.29
  226.83        2959.75           1362          21.00        76.29
  226.86        2960.00           1365          21.00        76.29
  226.88        2960.25           1368          25.00        93.72
  226.91        2960.50           1372          36.00       141.67
  226.94        2960.75           1375          41.00       163.47
  226.96        2961.00           1378         118.00       499.14
  226.99        2961.25           1382         495.00      2142.67
  227.02        2961.50           1385        1230.00      5347.36
  227.05        2961.75           1388        2558.00     11139.05
  227.07        2962.00           1392        5088.00     22178.11
  227.10        2962.25           1395        7491.00     32669.37
  227.13        2962.50           1398        9969.00     43494.53
  227.16        2962.75           1402       13349.00     58270.67
  227.18        2963.00           1405       15881.00     69347.69
  227.21        2963.25           1408       18384.00     80304.60
  227.24        2963.50           1412       21618.00     94471.46
  227.26        2963.75           1415       23846.00    104238.00
  227.29        2964.00           1418       26806.00    117221.50
  227.32        2964.25           1422       30008.00    131277.20
  227.35        2964.50           1425       32428.00    141907.60
  227.37        2964.75           1428       35046.00    153414.80
  227.40        2965.00           1431       37861.00    165796.20
  227.43        2965.25           1435       41536.00    181973.20
  227.46        2965.50           1438       44203.00    193722.30
  227.48        2965.75           1441       46445.00    203605.10
  227.51        2966.00           1445       49998.00    219278.10
  227.54        2966.25           1448       52000.00    228115.40
  227.57        2966.50           1451       53558.00    234995.90
  227.59        2966.75           1455       55094.00    241781.70
  227.62        2967.00           1458       55841.00    245082.80
  227.65        2967.25           1461       55806.00    244928.10
  227.68        2967.50           1465       55805.00    244923.70
  227.70        2967.75           1468       55178.00    242152.90
  227.73        2968.00           1471       54143.00    237580.00
  227.76        2968.25           1475       51977.00    228013.90
  227.79        2968.50           1478       49711.00    218011.60
  227.81        2968.75           1481       47066.00    206343.50
  227.84        2969.00           1485       43489.00    190576.10
  227.87        2969.25           1488       40614.00    177913.30
  227.89        2969.50           1491       37792.00    165492.60
  227.92        2969.75           1495       34301.00    150139.40
  227.95        2970.00           1498       31539.00    138001.70
  227.98        2970.25           1501       28967.00    126706.40
  228.00        2970.50           1505       25538.00    111658.50
  228.03        2970.75           1508       22820.00     99739.80
  228.06        2971.00           1511       20227.00     88376.66
  228.09        2971.25           1515       16880.00     73720.02
  228.11        2971.50           1518       14346.00     62631.54
  228.14        2971.75           1521       11730.00     51191.46
  228.17        2972.00           1525        8252.00     35993.10
  228.19        2972.25           1528        5839.00     25456.24
  228.22        2972.50           1531        3706.00     16147.23
  228.25        2972.75           1535        1512.00      6577.06
  228.28        2973.00           1538         589.00      2552.49
  228.30        2973.25           1541         171.00       730.18
  228.33        2973.50           1545          43.00       172.19
  228.36        2973.75           1548          36.00       141.67
  228.39        2974.00           1551          32.00       124.24
  228.41        2974.25           1555          27.00       102.44
  228.44        2974.50           1558          26.00        98.08
  228.47        2974.75           1561          24.00        89.36
  228.49        2975.00           1565          22.00        80.65
  228.52        2975.25           1568          21.00        76.29
  228.55        2975.50           1571          24.00        89.36
  228.58        2975.75           1575          22.00        80.65
  228.60        2976.00           1578          24.00        89.36
  228.63        2976.25           1581          22.00        80.65
  228.66        2976.50           1585          18.00        63.21
  228.68        2976.75           1588          21.00        76.29
  228.71        2977.00           1591          19.00        67.57
  228.74        2977.25           1595          18.00        63.21
  228.77        2977.50           1598          21.00        76.29
  228.79        2977.75           1601          18.00        63.21
  228.82        2978.00           1605          19.00        67.57
  228.85        2978.25           1608          19.00        67.57
  228.87        2978.50           1611          18.00        63.21
  228.90        2978.75           1615          19.00        67.57
  228.93        2979.00           1618          20.00        71.93
  228.96        2979.25           1621          24.00        89.36
  228.98        2979.50           1625          21.00        76.29
  229.01        2979.75           1628          18.00        63.21
  229.04        2980.00           1631          19.00        67.57
  229.06        2980.25           1635          17.00        58.85
  229.09        2980.50           1638          18.00        63.21
  229.12        2980.75           1641          23.00        85.00
  229.15        2981.00           1645          22.00        80.65
  229.17        2981.25           1648          15.00        50.13
  229.20        2981.50           1651          23.00        85.00
  229.23        2981.75           1655          23.00        85.00
  229.25        2982.00           1658          22.00        80.65
  229.28        2982.25           1661          18.00        63.21
  229.31        2982.50           1665          21.00        76.29
  229.34        2982.75           1668          16.00        54.49
  229.36        2983.00           1671          19.00        67.57
  229.39        2983.25           1675          18.00        63.21
  229.42        2983.50           1678          20.00        71.93
  229.44        2983.75           1681          23.00        85.00
  229.47        2984.00           1685          17.00        58.85
HS scan finished at 03:49:39
end
