************************************************************
  HS Scan of (1) Internal mercury lamp
************************************************************
Integration time is 0.2294 seconds per sample
dh270319Tamanrasset 22.79-5.529 4.974364pr865
************************************************************
Dead Time -------------------------  2.8E-08 
Number of Cycles Used -------------  4 
Starting Wavelength (Angstroms) ---  2950 
Final Wavelength (Angstoms) -------  2984 
Wavelength Increment (Angstroms) --  .25 
Filter Wheel #1 Position ---------- (1) Ground quartz diffuser (ND=2.32)
Filter Wheel #2 Position ---------- (1) Neutral Density 0.494



************************************************************
HS scan start time = 03:48:37
Dark Count =  4.6 


Time (GMT)  Wavelength (Ang)  Step Number  Raw Counts  Counts/Second

  228.98        2950.00           1233          23.00        80.21
  229.04        2950.25           1236          17.00        54.05
  229.07        2950.50           1239          20.00        67.13
  229.09        2950.75           1242          17.00        54.05
  229.12        2951.00           1246          21.00        71.49
  229.15        2951.25           1249          18.00        58.41
  229.18        2951.50           1252          21.00        71.49
  229.20        2951.75           1256          16.00        49.69
  229.23        2952.00           1259          18.00        58.41
  229.26        2952.25           1262          17.00        54.05
  229.29        2952.50           1266          18.00        58.41
  229.31        2952.75           1269          19.00        62.77
  229.34        2953.00           1272          21.00        71.49
  229.37        2953.25           1276          26.00        93.29
  229.39        2953.50           1279          15.00        45.34
  229.42        2953.75           1282          18.00        58.41
  229.45        2954.00           1286          20.00        67.13
  229.48        2954.25           1289          22.00        75.85
  229.50        2954.50           1292          18.00        58.41
  229.53        2954.75           1295          19.00        62.77
  229.56        2955.00           1299          23.00        80.21
  229.59        2955.25           1302          22.00        75.85
  229.61        2955.50           1305          19.00        62.77
  229.64        2955.75           1309          15.00        45.34
  229.67        2956.00           1312          17.00        54.05
  229.69        2956.25           1315          23.00        80.21
  229.72        2956.50           1319          18.00        58.41
  229.75        2956.75           1322          23.00        80.21
  229.78        2957.00           1325          17.00        54.05
  229.80        2957.25           1329          20.00        67.13
  229.83        2957.50           1332          21.00        71.49
  229.86        2957.75           1335          17.00        54.05
  229.89        2958.00           1339          18.00        58.41
  229.91        2958.25           1342          19.00        62.77
  229.94        2958.50           1345          19.00        62.77
  229.97        2958.75           1348          18.00        58.41
  229.99        2959.00           1352          20.00        67.13
  230.02        2959.25           1355          21.00        71.49
  230.05        2959.50           1358          20.00        67.13
  230.08        2959.75           1362          23.00        80.21
  230.10        2960.00           1365          27.00        97.65
  230.13        2960.25           1368          27.00        97.65
  230.16        2960.50           1372          28.00       102.01
  230.19        2960.75           1375          35.00       132.52
  230.21        2961.00           1378          97.00       402.79
  230.24        2961.25           1382         472.00      2037.61
  230.27        2961.50           1385        1132.00      4915.24
  230.29        2961.75           1388        2375.00     10336.03
  230.32        2962.00           1392        4783.00     20842.15
  230.35        2962.25           1395        7042.00     30703.81
  230.38        2962.50           1398        9324.00     40671.40
  230.40        2962.75           1402       12571.00     54863.64
  230.43        2963.00           1405       14901.00     65054.75
  230.46        2963.25           1408       17531.00     76565.02
  230.49        2963.50           1412       20457.00     89379.47
  230.51        2963.75           1415       22946.00    100287.30
  230.54        2964.00           1418       25643.00    112114.30
  230.57        2964.25           1422       28684.00    125459.10
  230.60        2964.50           1425       31252.00    136736.10
  230.62        2964.75           1428       33799.00    147927.90
  230.65        2965.00           1431       36214.00    158546.20
  230.68        2965.25           1435       39424.00    172669.80
  230.71        2965.50           1438       42033.00    184157.30
  230.73        2965.75           1441       44497.00    195013.10
  230.76        2966.00           1445       47820.00    209664.10
  230.79        2966.25           1448       49607.00    217547.80
  230.82        2966.50           1451       51283.00    224945.00
  230.84        2966.75           1455       52479.00    230225.60
  230.87        2967.00           1458       53135.00    233122.70
  230.90        2967.25           1461       53285.00    233785.20
  230.93        2967.50           1465       53057.00    232778.20
  230.95        2967.75           1468       52874.00    231970.00
  230.98        2968.00           1471       51872.00    227545.40
  231.01        2968.25           1475       49647.00    217724.30
  231.04        2968.50           1478       47299.00    207366.20
  231.06        2968.75           1481       44975.00    197119.90
  231.09        2969.00           1485       41880.00    183483.40
  231.12        2969.25           1488       39321.00    172216.40
  231.15        2969.50           1491       36591.00    160204.40
  231.17        2969.75           1495       32997.00    144403.10
  231.20        2970.00           1498       30636.00    134030.40
  231.23        2970.25           1501       27970.00    122325.00
  231.26        2970.50           1505       24357.00    106473.90
  231.28        2970.75           1508       21998.00     96132.00
  231.31        2971.00           1511       19436.00     84906.94
  231.34        2971.25           1515       15993.00     69833.01
  231.37        2971.50           1518       13573.00     59245.55
  231.39        2971.75           1521       11154.00     48668.73
  231.42        2972.00           1525        8056.00     35132.19
  231.45        2972.25           1528        5690.00     24801.00
  231.48        2972.50           1531        3609.00     15719.21
  231.50        2972.75           1535        1482.00      6441.44
  231.53        2973.00           1538         570.00      2464.86
  231.56        2973.25           1541         165.00       699.23
  231.58        2973.50           1545          46.00       180.47
  231.61        2973.75           1548          40.00       154.32
  231.64        2974.00           1551          30.00       110.72
  231.67        2974.25           1555          25.00        88.93
  231.69        2974.50           1558          22.00        75.85
  231.72        2974.75           1561          24.00        84.57
  231.75        2975.00           1565          19.00        62.77
  231.78        2975.25           1568          25.00        88.93
  231.80        2975.50           1571          16.00        49.69
  231.83        2975.75           1575          24.00        84.57
  231.86        2976.00           1578          25.00        88.93
  231.88        2976.25           1581          21.00        71.49
  231.91        2976.50           1585          20.00        67.13
  231.94        2976.75           1588          20.00        67.13
  231.97        2977.00           1591          20.00        67.13
  231.99        2977.25           1595          24.00        84.57
  232.02        2977.50           1598          15.00        45.34
  232.05        2977.75           1601          16.00        49.69
  232.08        2978.00           1605          20.00        67.13
  232.10        2978.25           1608          23.00        80.21
  232.13        2978.50           1611          26.00        93.29
  232.16        2978.75           1615          20.00        67.13
  232.18        2979.00           1618          22.00        75.85
  232.21        2979.25           1621          20.00        67.13
  232.24        2979.50           1625          15.00        45.34
  232.27        2979.75           1628          22.00        75.85
  232.29        2980.00           1631          20.00        67.13
  232.32        2980.25           1635          18.00        58.41
  232.35        2980.50           1638          17.00        54.05
  232.38        2980.75           1641          16.00        49.69
  232.40        2981.00           1645          23.00        80.21
  232.43        2981.25           1648          19.00        62.77
  232.46        2981.50           1651          20.00        67.13
  232.48        2981.75           1655          17.00        54.05
  232.51        2982.00           1658          16.00        49.69
  232.54        2982.25           1661          19.00        62.77
  232.57        2982.50           1665          20.00        67.13
  232.59        2982.75           1668          19.00        62.77
  232.62        2983.00           1671          17.00        54.05
  232.65        2983.25           1675          19.00        62.77
  232.68        2983.50           1678          17.00        54.05
  232.70        2983.75           1681          16.00        49.69
  232.73        2984.00           1685          18.00        58.41
HS scan finished at 03:52:55
end
