************************************************************
  HS Scan of (1) Internal mercury lamp
************************************************************
Integration time is 0.2294 seconds per sample
dh250319Tamanrasset 22.79-5.529 4.974364pr865
************************************************************
Dead Time -------------------------  2.8E-08 
Number of Cycles Used -------------  4 
Starting Wavelength (Angstroms) ---  2950 
Final Wavelength (Angstoms) -------  2984 
Wavelength Increment (Angstroms) --  .25 
Filter Wheel #1 Position ---------- (1) Ground quartz diffuser (ND=2.32)
Filter Wheel #2 Position ---------- (1) Neutral Density 0.494



************************************************************
HS scan start time = 03:50:21
Dark Count =  5 


Time (GMT)  Wavelength (Ang)  Step Number  Raw Counts  Counts/Second

  230.71        2950.00           1233          19.00        61.03
  230.78        2950.25           1236          22.00        74.11
  230.80        2950.50           1239          16.00        47.95
  230.83        2950.75           1242          19.00        61.03
  230.86        2951.00           1246          16.00        47.95
  230.88        2951.25           1249          21.00        69.75
  230.91        2951.50           1252          17.00        52.31
  230.94        2951.75           1256          25.00        87.18
  230.97        2952.00           1259          20.00        65.39
  230.99        2952.25           1262          19.00        61.03
  231.02        2952.50           1266          21.00        69.75
  231.05        2952.75           1269          16.00        47.95
  231.08        2953.00           1272          19.00        61.03
  231.10        2953.25           1276          20.00        65.39
  231.13        2953.50           1279          20.00        65.39
  231.16        2953.75           1282          18.00        56.67
  231.19        2954.00           1286          16.00        47.95
  231.21        2954.25           1289          18.00        56.67
  231.24        2954.50           1292          21.00        69.75
  231.27        2954.75           1295          17.00        52.31
  231.29        2955.00           1299          21.00        69.75
  231.32        2955.25           1302          26.00        91.54
  231.35        2955.50           1305          21.00        69.75
  231.38        2955.75           1309          21.00        69.75
  231.40        2956.00           1312          21.00        69.75
  231.43        2956.25           1315          18.00        56.67
  231.46        2956.50           1319          18.00        56.67
  231.48        2956.75           1322          22.00        74.11
  231.51        2957.00           1325          22.00        74.11
  231.54        2957.25           1329          21.00        69.75
  231.57        2957.50           1332          17.00        52.31
  231.59        2957.75           1335          18.00        56.67
  231.62        2958.00           1339          18.00        56.67
  231.65        2958.25           1342          18.00        56.67
  231.68        2958.50           1345          21.00        69.75
  231.70        2958.75           1348          17.00        52.31
  231.73        2959.00           1352          19.00        61.03
  231.76        2959.25           1355          18.00        56.67
  231.78        2959.50           1358          19.00        61.03
  231.81        2959.75           1362          23.00        78.47
  231.84        2960.00           1365          26.00        91.54
  231.87        2960.25           1368          20.00        65.39
  231.89        2960.50           1372          24.00        82.82
  231.92        2960.75           1375          29.00       104.62
  231.95        2961.00           1378          73.00       296.43
  231.98        2961.25           1382         391.00      1682.73
  232.00        2961.50           1385        1022.00      4433.85
  232.03        2961.75           1388        2091.00      9095.60
  232.06        2962.00           1392        4126.00     17973.30
  232.09        2962.25           1395        6082.00     26510.52
  232.11        2962.50           1398        8382.00     36554.40
  232.14        2962.75           1402       10882.00     47478.07
  232.17        2963.00           1405       13028.00     56860.29
  232.19        2963.25           1408       15056.00     65731.16
  232.22        2963.50           1412       17785.00     77675.29
  232.25        2963.75           1415       19754.00     86298.08
  232.28        2964.00           1418       21936.00     95858.52
  232.31        2964.25           1422       24653.00    107770.20
  232.33        2964.50           1425       26689.00    116701.60
  232.36        2964.75           1428       28976.00    126739.30
  232.39        2965.00           1431       30969.00    135491.30
  232.41        2965.25           1435       33853.00    148163.50
  232.44        2965.50           1438       36088.00    157990.30
  232.47        2965.75           1441       38322.00    167818.10
  232.50        2966.00           1445       41095.00    180024.60
  232.52        2966.25           1448       42773.00    187415.10
  232.55        2966.50           1451       44197.00    193689.30
  232.58        2966.75           1455       45226.00    198224.50
  232.61        2967.00           1458       45856.00    201001.70
  232.63        2967.25           1461       45963.00    201473.40
  232.66        2967.50           1465       45865.00    201041.40
  232.69        2967.75           1468       45660.00    200137.60
  232.72        2968.00           1471       44869.00    196650.90
  232.74        2968.25           1475       42902.00    187983.40
  232.77        2968.50           1478       41310.00    180971.40
  232.80        2968.75           1481       39259.00    171941.80
  232.83        2969.00           1485       36502.00    159811.20
  232.85        2969.25           1488       34051.00    149033.90
  232.88        2969.50           1491       31723.00    138803.50
  232.91        2969.75           1495       29022.00    126941.20
  232.94        2970.00           1498       26701.00    116754.20
  232.96        2970.25           1501       24598.00    107529.00
  232.99        2970.50           1505       21603.00     94399.15
  233.02        2970.75           1508       19503.00     85198.64
  233.05        2971.00           1511       17374.00     75875.95
  233.07        2971.25           1515       14389.00     62813.08
  233.10        2971.50           1518       12316.00     53746.91
  233.13        2971.75           1521       10344.00     45126.74
  233.16        2972.00           1525        7651.00     33361.58
  233.18        2972.25           1528        5567.00     24262.34
  233.21        2972.50           1531        3661.00     15944.35
  233.24        2972.75           1535        1696.00      7372.93
  233.27        2973.00           1538         710.00      3073.50
  233.29        2973.25           1541         248.00      1059.32
  233.32        2973.50           1545          48.00       187.45
  233.35        2973.75           1548          34.00       126.42
  233.37        2974.00           1551          29.00       104.62
  233.40        2974.25           1555          29.00       104.62
  233.43        2974.50           1558          26.00        91.54
  233.46        2974.75           1561          25.00        87.18
  233.48        2975.00           1565          25.00        87.18
  233.51        2975.25           1568          17.00        52.31
  233.54        2975.50           1571          20.00        65.39
  233.57        2975.75           1575          23.00        78.47
  233.59        2976.00           1578          24.00        82.82
  233.62        2976.25           1581          20.00        65.39
  233.65        2976.50           1585          21.00        69.75
  233.67        2976.75           1588          22.00        74.11
  233.70        2977.00           1591          17.00        52.31
  233.73        2977.25           1595          20.00        65.39
  233.76        2977.50           1598          18.00        56.67
  233.78        2977.75           1601          18.00        56.67
  233.81        2978.00           1605          22.00        74.11
  233.84        2978.25           1608          18.00        56.67
  233.87        2978.50           1611          22.00        74.11
  233.89        2978.75           1615          25.00        87.18
  233.92        2979.00           1618          21.00        69.75
  233.95        2979.25           1621          24.00        82.82
  233.97        2979.50           1625          17.00        52.31
  234.00        2979.75           1628          22.00        74.11
  234.03        2980.00           1631          19.00        61.03
  234.06        2980.25           1635          20.00        65.39
  234.08        2980.50           1638          19.00        61.03
  234.11        2980.75           1641          19.00        61.03
  234.14        2981.00           1645          21.00        69.75
  234.17        2981.25           1648          17.00        52.31
  234.19        2981.50           1651          16.00        47.95
  234.22        2981.75           1655          20.00        65.39
  234.25        2982.00           1658          18.00        56.67
  234.27        2982.25           1661          16.00        47.95
  234.30        2982.50           1665          18.00        56.67
  234.33        2982.75           1668          15.00        43.59
  234.36        2983.00           1671          19.00        61.03
  234.38        2983.25           1675          21.00        69.75
  234.41        2983.50           1678          16.00        47.95
  234.44        2983.75           1681          19.00        61.03
  234.47        2984.00           1685          18.00        56.67
HS scan finished at 03:54:39
end
