************************************************************
  HS Scan of (1) Internal mercury lamp
************************************************************
Integration time is 0.2294 seconds per sample
dh290319Tamanrasset 22.79-5.529 4.974364pr865
************************************************************
Dead Time -------------------------  2.8E-08 
Number of Cycles Used -------------  4 
Starting Wavelength (Angstroms) ---  2950 
Final Wavelength (Angstoms) -------  2984 
Wavelength Increment (Angstroms) --  .25 
Filter Wheel #1 Position ---------- (1) Ground quartz diffuser (ND=2.32)
Filter Wheel #2 Position ---------- (1) Neutral Density 0.494



************************************************************
HS scan start time = 03:46:37
Dark Count =  4.5 


Time (GMT)  Wavelength (Ang)  Step Number  Raw Counts  Counts/Second

  226.97        2950.00           1233          18.00        58.85
  227.04        2950.25           1236          17.00        54.49
  227.06        2950.50           1239          18.00        58.85
  227.09        2950.75           1242          19.00        63.21
  227.12        2951.00           1246          23.00        80.65
  227.15        2951.25           1249          17.00        54.49
  227.17        2951.50           1252          19.00        63.21
  227.20        2951.75           1256          20.00        67.57
  227.23        2952.00           1259          20.00        67.57
  227.25        2952.25           1262          23.00        80.65
  227.28        2952.50           1266          25.00        89.36
  227.31        2952.75           1269          21.00        71.93
  227.34        2953.00           1272          21.00        71.93
  227.36        2953.25           1276          20.00        67.57
  227.39        2953.50           1279          21.00        71.93
  227.42        2953.75           1282          15.00        45.77
  227.44        2954.00           1286          18.00        58.85
  227.47        2954.25           1289          22.00        76.29
  227.50        2954.50           1292          22.00        76.29
  227.53        2954.75           1295          18.00        58.85
  227.55        2955.00           1299          18.00        58.85
  227.58        2955.25           1302          18.00        58.85
  227.61        2955.50           1305          22.00        76.29
  227.63        2955.75           1309          20.00        67.57
  227.66        2956.00           1312          19.00        63.21
  227.69        2956.25           1315          22.00        76.29
  227.72        2956.50           1319          18.00        58.85
  227.74        2956.75           1322          17.00        54.49
  227.77        2957.00           1325          18.00        58.85
  227.80        2957.25           1329          16.00        50.13
  227.82        2957.50           1332          21.00        71.93
  227.85        2957.75           1335          19.00        63.21
  227.88        2958.00           1339          20.00        67.57
  227.91        2958.25           1342          23.00        80.65
  227.93        2958.50           1345          18.00        58.85
  227.96        2958.75           1348          17.00        54.49
  227.99        2959.00           1352          21.00        71.93
  228.01        2959.25           1355          21.00        71.93
  228.04        2959.50           1358          19.00        63.21
  228.07        2959.75           1362          24.00        85.00
  228.10        2960.00           1365          23.00        80.65
  228.12        2960.25           1368          28.00       102.44
  228.15        2960.50           1372          29.00       106.80
  228.18        2960.75           1375          35.00       132.96
  228.20        2961.00           1378          98.00       407.59
  228.23        2961.25           1382         533.00      2303.98
  228.26        2961.50           1385        1251.00      5434.57
  228.29        2961.75           1388        2429.00     10572.01
  228.31        2962.00           1392        4912.00     21405.59
  228.34        2962.25           1395        7152.00     31184.59
  228.37        2962.50           1398        9859.00     43009.48
  228.39        2962.75           1402       13010.00     56783.76
  228.42        2963.00           1405       15469.00     67540.43
  228.45        2963.25           1408       17986.00     78557.53
  228.48        2963.50           1412       21264.00     92915.79
  228.50        2963.75           1415       23903.00    104483.50
  228.53        2964.00           1418       26402.00    115444.50
  228.56        2964.25           1422       29663.00    129757.90
  228.59        2964.50           1425       31893.00    139552.50
  228.61        2964.75           1428       34550.00    151229.70
  228.64        2965.00           1431       37269.00    163187.30
  228.67        2965.25           1435       40679.00    178195.10
  228.70        2965.50           1438       42956.00    188223.50
  228.72        2965.75           1441       45739.00    200488.10
  228.75        2966.00           1445       48969.00    214733.20
  228.78        2966.25           1448       50993.00    223665.30
  228.80        2966.50           1451       52753.00    231436.10
  228.83        2966.75           1455       54117.00    237460.70
  228.86        2967.00           1458       54533.00    239298.60
  228.89        2967.25           1461       54400.00    238711.00
  228.91        2967.50           1465       54304.00    238286.80
  228.94        2967.75           1468       53696.00    235601.00
  228.97        2968.00           1471       52895.00    232063.20
  229.00        2968.25           1475       50336.00    220765.40
  229.02        2968.50           1478       47959.00    210277.60
  229.05        2968.75           1481       45738.00    200483.60
  229.08        2969.00           1485       42083.00    184377.90
  229.11        2969.25           1488       39322.00    172221.30
  229.13        2969.50           1491       36706.00    160710.70
  229.16        2969.75           1495       33283.00    145660.50
  229.19        2970.00           1498       30592.00    133837.60
  229.21        2970.25           1501       27937.00    122180.60
  229.24        2970.50           1505       24676.00    107873.30
  229.27        2970.75           1508       22057.00     96391.02
  229.30        2971.00           1511       19790.00     86457.96
  229.32        2971.25           1515       16206.00     70765.63
  229.35        2971.50           1518       13799.00     60234.46
  229.38        2971.75           1521       11284.00     49237.41
  229.41        2972.00           1525        8104.00     35342.28
  229.43        2972.25           1528        5691.00     24805.80
  229.46        2972.50           1531        3540.00     15418.60
  229.49        2972.75           1535        1469.00      6385.19
  229.51        2973.00           1538         560.00      2421.70
  229.54        2973.25           1541         165.00       699.67
  229.57        2973.50           1545          49.00       193.99
  229.60        2973.75           1548          44.00       172.19
  229.62        2974.00           1551          31.00       115.52
  229.65        2974.25           1555          33.00       124.24
  229.68        2974.50           1558          28.00       102.44
  229.71        2974.75           1561          21.00        71.93
  229.73        2975.00           1565          23.00        80.65
  229.76        2975.25           1568          18.00        58.85
  229.79        2975.50           1571          18.00        58.85
  229.81        2975.75           1575          21.00        71.93
  229.84        2976.00           1578          19.00        63.21
  229.87        2976.25           1581          20.00        67.57
  229.89        2976.50           1585          22.00        76.29
  229.92        2976.75           1588          19.00        63.21
  229.95        2977.00           1591          20.00        67.57
  229.98        2977.25           1595          20.00        67.57
  230.00        2977.50           1598          18.00        58.85
  230.03        2977.75           1601          18.00        58.85
  230.06        2978.00           1605          21.00        71.93
  230.08        2978.25           1608          20.00        67.57
  230.11        2978.50           1611          18.00        58.85
  230.14        2978.75           1615          22.00        76.29
  230.17        2979.00           1618          18.00        58.85
  230.19        2979.25           1621          22.00        76.29
  230.22        2979.50           1625          22.00        76.29
  230.25        2979.75           1628          23.00        80.65
  230.28        2980.00           1631          18.00        58.85
  230.30        2980.25           1635          21.00        71.93
  230.33        2980.50           1638          21.00        71.93
  230.36        2980.75           1641          19.00        63.21
  230.38        2981.00           1645          14.00        41.41
  230.41        2981.25           1648          19.00        63.21
  230.44        2981.50           1651          23.00        80.65
  230.47        2981.75           1655          19.00        63.21
  230.49        2982.00           1658          19.00        63.21
  230.52        2982.25           1661          20.00        67.57
  230.55        2982.50           1665          17.00        54.49
  230.57        2982.75           1668          19.00        63.21
  230.60        2983.00           1671          16.00        50.13
  230.63        2983.25           1675          16.00        50.13
  230.66        2983.50           1678          19.00        63.21
  230.68        2983.75           1681          18.00        58.85
  230.71        2984.00           1685          15.00        45.77
HS scan finished at 03:50:54
end
