************************************************************
  HS Scan of (1) Internal mercury lamp
************************************************************
Integration time is 0.2294 seconds per sample
dh280319Tamanrasset 22.79-5.529 4.974364pr865
************************************************************
Dead Time -------------------------  2.8E-08 
Number of Cycles Used -------------  4 
Starting Wavelength (Angstroms) ---  2950 
Final Wavelength (Angstoms) -------  2984 
Wavelength Increment (Angstroms) --  .25 
Filter Wheel #1 Position ---------- (1) Ground quartz diffuser (ND=2.32)
Filter Wheel #2 Position ---------- (1) Neutral Density 0.494



************************************************************
HS scan start time = 03:47:22
Dark Count =  4.7 


Time (GMT)  Wavelength (Ang)  Step Number  Raw Counts  Counts/Second

  227.72        2950.00           1233          15.00        44.90
  227.78        2950.25           1236          18.00        57.98
  227.81        2950.50           1239          15.00        44.90
  227.83        2950.75           1242          21.00        71.06
  227.86        2951.00           1246          18.00        57.98
  227.89        2951.25           1249          21.00        71.06
  227.92        2951.50           1252          18.00        57.98
  227.94        2951.75           1256          22.00        75.41
  227.97        2952.00           1259          19.00        62.34
  228.00        2952.25           1262          19.00        62.34
  228.02        2952.50           1266          19.00        62.34
  228.05        2952.75           1269          15.00        44.90
  228.08        2953.00           1272          17.00        53.62
  228.11        2953.25           1276          20.00        66.70
  228.13        2953.50           1279          16.00        49.26
  228.16        2953.75           1282          18.00        57.98
  228.19        2954.00           1286          19.00        62.34
  228.21        2954.25           1289          21.00        71.06
  228.24        2954.50           1292          18.00        57.98
  228.27        2954.75           1295          19.00        62.34
  228.30        2955.00           1299          17.00        53.62
  228.32        2955.25           1302          18.00        57.98
  228.35        2955.50           1305          16.00        49.26
  228.38        2955.75           1309          14.00        40.54
  228.41        2956.00           1312          18.00        57.98
  228.43        2956.25           1315          20.00        66.70
  228.46        2956.50           1319          23.00        79.77
  228.49        2956.75           1322          18.00        57.98
  228.51        2957.00           1325          16.00        49.26
  228.54        2957.25           1329          17.00        53.62
  228.57        2957.50           1332          16.00        49.26
  228.60        2957.75           1335          19.00        62.34
  228.62        2958.00           1339          16.00        49.26
  228.65        2958.25           1342          18.00        57.98
  228.68        2958.50           1345          17.00        53.62
  228.70        2958.75           1348          21.00        71.06
  228.73        2959.00           1352          19.00        62.34
  228.76        2959.25           1355          21.00        71.06
  228.79        2959.50           1358          19.00        62.34
  228.81        2959.75           1362          20.00        66.70
  228.84        2960.00           1365          23.00        79.77
  228.87        2960.25           1368          21.00        71.06
  228.89        2960.50           1372          34.00       127.72
  228.92        2960.75           1375          35.00       132.08
  228.95        2961.00           1378          77.00       315.17
  228.98        2961.25           1382         412.00      1775.59
  229.00        2961.50           1385        1065.00      4622.66
  229.03        2961.75           1388        2249.00      9786.03
  229.06        2962.00           1392        4559.00     19864.14
  229.08        2962.25           1395        6817.00     29720.89
  229.11        2962.50           1398        9178.00     40033.08
  229.14        2962.75           1402       12343.00     53866.28
  229.17        2963.00           1405       14867.00     64905.56
  229.19        2963.25           1408       17245.00     75312.53
  229.22        2963.50           1412       20472.00     89444.74
  229.25        2963.75           1415       23074.00    100848.00
  229.28        2964.00           1418       25348.00    110819.80
  229.30        2964.25           1422       28656.00    125335.80
  229.33        2964.50           1425       31303.00    136959.70
  229.36        2964.75           1428       33739.00    147663.80
  229.38        2965.00           1431       36155.00    158286.30
  229.41        2965.25           1435       39802.00    174333.20
  229.44        2965.50           1438       41950.00    183791.30
  229.47        2965.75           1441       44323.00    194245.90
  229.49        2966.00           1445       47453.00    208044.90
  229.52        2966.25           1448       49734.00    218107.80
  229.55        2966.50           1451       51776.00    227121.10
  229.58        2966.75           1455       52919.00    232168.30
  229.60        2967.00           1458       53671.00    235489.70
  229.63        2967.25           1461       54071.00    237256.70
  229.66        2967.50           1465       53561.00    235003.80
  229.69        2967.75           1468       53072.00    232844.00
  229.71        2968.00           1471       52206.00    229019.70
  229.74        2968.25           1475       50106.00    219749.50
  229.77        2968.50           1478       48150.00    211119.20
  229.79        2968.75           1481       45792.00    200720.80
  229.82        2969.00           1485       42469.00    186077.30
  229.85        2969.25           1488       39826.00    174438.90
  229.88        2969.50           1491       37283.00    163248.00
  229.90        2969.75           1495       33620.00    147140.70
  229.93        2970.00           1498       31096.00    136050.40
  229.96        2970.25           1501       28521.00    124743.20
  229.99        2970.50           1505       24891.00    108815.40
  230.01        2970.75           1508       22164.00     96859.11
  230.04        2971.00           1511       19857.00     86750.57
  230.07        2971.25           1515       16429.00     71740.75
  230.10        2971.50           1518       13933.00     60819.71
  230.12        2971.75           1521       11562.00     50451.78
  230.15        2972.00           1525        8396.00     36616.86
  230.18        2972.25           1528        6150.00     26808.69
  230.20        2972.50           1531        3960.00     17250.27
  230.23        2972.75           1535        1703.00      7404.76
  230.26        2973.00           1538         708.00      3066.09
  230.29        2973.25           1541         216.00       921.12
  230.31        2973.50           1545          54.00       214.91
  230.34        2973.75           1548          39.00       149.52
  230.37        2974.00           1551          32.00       119.01
  230.39        2974.25           1555          25.00        88.49
  230.42        2974.50           1558          25.00        88.49
  230.45        2974.75           1561          24.00        84.13
  230.48        2975.00           1565          20.00        66.70
  230.50        2975.25           1568          29.00       105.93
  230.53        2975.50           1571          18.00        57.98
  230.56        2975.75           1575          17.00        53.62
  230.59        2976.00           1578          21.00        71.06
  230.61        2976.25           1581          19.00        62.34
  230.64        2976.50           1585          23.00        79.77
  230.67        2976.75           1588          22.00        75.41
  230.69        2977.00           1591          22.00        75.41
  230.72        2977.25           1595          23.00        79.77
  230.75        2977.50           1598          20.00        66.70
  230.78        2977.75           1601          21.00        71.06
  230.80        2978.00           1605          23.00        79.77
  230.83        2978.25           1608          20.00        66.70
  230.86        2978.50           1611          22.00        75.41
  230.89        2978.75           1615          22.00        75.41
  230.91        2979.00           1618          18.00        57.98
  230.94        2979.25           1621          27.00        97.21
  230.97        2979.50           1625          21.00        71.06
  230.99        2979.75           1628          20.00        66.70
  231.02        2980.00           1631          20.00        66.70
  231.05        2980.25           1635          21.00        71.06
  231.07        2980.50           1638          21.00        71.06
  231.10        2980.75           1641          18.00        57.98
  231.13        2981.00           1645          18.00        57.98
  231.16        2981.25           1648          20.00        66.70
  231.18        2981.50           1651          15.00        44.90
  231.21        2981.75           1655          18.00        57.98
  231.24        2982.00           1658          18.00        57.98
  231.26        2982.25           1661          24.00        84.13
  231.29        2982.50           1665          20.00        66.70
  231.32        2982.75           1668          21.00        71.06
  231.35        2983.00           1671          19.00        62.34
  231.37        2983.25           1675          20.00        66.70
  231.40        2983.50           1678          20.00        66.70
  231.43        2983.75           1681          16.00        49.26
  231.45        2984.00           1685          20.00        66.70
HS scan finished at 03:51:39
end
