************************************************************
  HS Scan of (1) Internal mercury lamp
************************************************************
Integration time is 0.2294 seconds per sample
dh090419Tamanrasset 22.79-5.529 4.974364pr865
************************************************************
Dead Time -------------------------  2.8E-08 
Number of Cycles Used -------------  4 
Starting Wavelength (Angstroms) ---  2950 
Final Wavelength (Angstoms) -------  2984 
Wavelength Increment (Angstroms) --  .25 
Filter Wheel #1 Position ---------- (1) Ground quartz diffuser (ND=2.32)
Filter Wheel #2 Position ---------- (1) Neutral Density 0.494



************************************************************
HS scan start time = 03:36:24
Dark Count =  3.2 


Time (GMT)  Wavelength (Ang)  Step Number  Raw Counts  Counts/Second

  216.75        2950.00           1233          15.00        51.44
  216.81        2950.25           1236          17.00        60.16
  216.84        2950.50           1239          17.00        60.16
  216.87        2950.75           1242          19.00        68.88
  216.89        2951.00           1246          21.00        77.59
  216.92        2951.25           1249          16.00        55.80
  216.95        2951.50           1252          19.00        68.88
  216.98        2951.75           1256          16.00        55.80
  217.00        2952.00           1259          18.00        64.52
  217.03        2952.25           1262          20.00        73.23
  217.06        2952.50           1266          21.00        77.59
  217.08        2952.75           1269          17.00        60.16
  217.11        2953.00           1272          21.00        77.59
  217.14        2953.25           1276          18.00        64.52
  217.17        2953.50           1279          21.00        77.59
  217.19        2953.75           1282          22.00        81.95
  217.22        2954.00           1286          19.00        68.88
  217.25        2954.25           1289          18.00        64.52
  217.27        2954.50           1292          20.00        73.23
  217.30        2954.75           1295          25.00        95.03
  217.33        2955.00           1299          17.00        60.16
  217.36        2955.25           1302          18.00        64.52
  217.38        2955.50           1305          18.00        64.52
  217.41        2955.75           1309          17.00        60.16
  217.44        2956.00           1312          18.00        64.52
  217.46        2956.25           1315          17.00        60.16
  217.49        2956.50           1319          20.00        73.23
  217.52        2956.75           1322          18.00        64.52
  217.55        2957.00           1325          20.00        73.23
  217.57        2957.25           1329          19.00        68.88
  217.60        2957.50           1332          20.00        73.23
  217.63        2957.75           1335          20.00        73.23
  217.65        2958.00           1339          17.00        60.16
  217.68        2958.25           1342          18.00        64.52
  217.71        2958.50           1345          23.00        86.31
  217.74        2958.75           1348          21.00        77.59
  217.76        2959.00           1352          19.00        68.88
  217.79        2959.25           1355          16.00        55.80
  217.82        2959.50           1358          19.00        68.88
  217.84        2959.75           1362          20.00        73.23
  217.87        2960.00           1365          24.00        90.67
  217.90        2960.25           1368          26.00        99.39
  217.93        2960.50           1372          27.00       103.75
  217.95        2960.75           1375          29.00       112.47
  217.98        2961.00           1378          67.00       278.12
  218.01        2961.25           1382         351.00      1516.19
  218.03        2961.50           1385         905.00      3931.56
  218.06        2961.75           1388        1917.00      8344.58
  218.09        2962.00           1392        4027.00     17549.16
  218.12        2962.25           1395        6007.00     26190.95
  218.14        2962.50           1398        8131.00     35465.89
  218.17        2962.75           1402       10835.00     47280.52
  218.20        2963.00           1405       12840.00     56046.03
  218.23        2963.25           1408       15161.00     66198.44
  218.25        2963.50           1412       17810.00     77792.63
  218.28        2963.75           1415       20021.00     87475.56
  218.31        2964.00           1418       22086.00     96523.82
  218.33        2964.25           1422       24874.00    108747.40
  218.36        2964.50           1425       27071.00    118385.70
  218.39        2964.75           1428       29433.00    128753.70
  218.42        2965.00           1431       31529.00    137959.10
  218.44        2965.25           1435       34702.00    151903.70
  218.47        2965.50           1438       36759.00    160949.50
  218.50        2965.75           1441       38951.00    170594.10
  218.53        2966.00           1445       41909.00    183617.30
  218.55        2966.25           1448       43610.00    191110.60
  218.58        2966.50           1451       45025.00    197346.40
  218.61        2966.75           1455       46432.00    203549.10
  218.64        2967.00           1458       46866.00    205462.90
  218.66        2967.25           1461       47048.00    206265.50
  218.69        2967.50           1465       46998.00    206044.90
  218.72        2967.75           1468       46604.00    204307.50
  218.74        2968.00           1471       45764.00    200604.00
  218.77        2968.25           1475       44001.00    192833.50
  218.80        2968.50           1478       42308.00    185374.70
  218.83        2968.75           1481       39984.00    175141.00
  218.85        2969.00           1485       37286.00    163267.80
  218.88        2969.25           1488       34695.00    151872.90
  218.91        2969.50           1491       32515.00    142291.20
  218.94        2969.75           1495       29650.00    129706.50
  218.96        2970.00           1498       27475.00    120158.60
  218.99        2970.25           1501       25172.00    110054.40
  219.02        2970.50           1505       22193.00     96992.80
  219.04        2970.75           1508       20108.00     87856.66
  219.07        2971.00           1511       17858.00     78002.78
  219.10        2971.25           1515       14887.00     64999.62
  219.13        2971.50           1518       12552.00     54786.68
  219.15        2971.75           1521       10498.00     45807.63
  219.18        2972.00           1525        7679.00     33491.72
  219.21        2972.25           1528        5414.00     23602.34
  219.24        2972.50           1531        3494.00     15223.58
  219.26        2972.75           1535        1607.00      6992.65
  219.29        2973.00           1538         684.00      2967.99
  219.32        2973.25           1541         238.00      1023.57
  219.34        2973.50           1545          55.00       225.81
  219.37        2973.75           1548          37.00       147.34
  219.40        2974.00           1551          31.00       121.19
  219.43        2974.25           1555          24.00        90.67
  219.45        2974.50           1558          24.00        90.67
  219.48        2974.75           1561          18.00        64.52
  219.51        2975.00           1565          24.00        90.67
  219.53        2975.25           1568          20.00        73.23
  219.56        2975.50           1571          23.00        86.31
  219.59        2975.75           1575          21.00        77.59
  219.62        2976.00           1578          23.00        86.31
  219.64        2976.25           1581          17.00        60.16
  219.67        2976.50           1585          19.00        68.88
  219.70        2976.75           1588          21.00        77.59
  219.72        2977.00           1591          20.00        73.23
  219.75        2977.25           1595          21.00        77.59
  219.78        2977.50           1598          20.00        73.23
  219.81        2977.75           1601          21.00        77.59
  219.83        2978.00           1605          23.00        86.31
  219.86        2978.25           1608          18.00        64.52
  219.89        2978.50           1611          20.00        73.23
  219.91        2978.75           1615          20.00        73.23
  219.94        2979.00           1618          24.00        90.67
  219.97        2979.25           1621          21.00        77.59
  220.00        2979.50           1625          24.00        90.67
  220.02        2979.75           1628          20.00        73.23
  220.05        2980.00           1631          19.00        68.88
  220.08        2980.25           1635          22.00        81.95
  220.10        2980.50           1638          20.00        73.23
  220.13        2980.75           1641          15.00        51.44
  220.16        2981.00           1645          19.00        68.88
  220.19        2981.25           1648          21.00        77.59
  220.21        2981.50           1651          18.00        64.52
  220.24        2981.75           1655          18.00        64.52
  220.27        2982.00           1658          18.00        64.52
  220.29        2982.25           1661          19.00        68.88
  220.32        2982.50           1665          22.00        81.95
  220.35        2982.75           1668          22.00        81.95
  220.38        2983.00           1671          17.00        60.16
  220.40        2983.25           1675          17.00        60.16
  220.43        2983.50           1678          18.00        64.52
  220.46        2983.75           1681          19.00        68.88
  220.48        2984.00           1685          16.00        55.80
HS scan finished at 03:40:40
end
