************************************************************
  HS Scan of (1) Internal mercury lamp
************************************************************
Integration time is 0.2294 seconds per sample
dh070419Tamanrasset 22.79-5.529 4.974364pr865
************************************************************
Dead Time -------------------------  2.8E-08 
Number of Cycles Used -------------  4 
Starting Wavelength (Angstroms) ---  2950 
Final Wavelength (Angstoms) -------  2984 
Wavelength Increment (Angstroms) --  .25 
Filter Wheel #1 Position ---------- (1) Ground quartz diffuser (ND=2.32)
Filter Wheel #2 Position ---------- (1) Neutral Density 0.494



************************************************************
HS scan start time = 03:36:54
Dark Count =  3.4 


Time (GMT)  Wavelength (Ang)  Step Number  Raw Counts  Counts/Second

  217.25        2950.00           1233          21.00        76.72
  217.31        2950.25           1236          18.00        63.64
  217.34        2950.50           1239          20.00        72.36
  217.37        2950.75           1242          18.00        63.64
  217.39        2951.00           1246          17.00        59.29
  217.42        2951.25           1249          19.00        68.00
  217.45        2951.50           1252          18.00        63.64
  217.47        2951.75           1256          14.00        46.21
  217.50        2952.00           1259          19.00        68.00
  217.53        2952.25           1262          22.00        81.08
  217.56        2952.50           1266          18.00        63.64
  217.58        2952.75           1269          16.00        54.93
  217.61        2953.00           1272          18.00        63.64
  217.64        2953.25           1276          19.00        68.00
  217.67        2953.50           1279          21.00        76.72
  217.69        2953.75           1282          15.00        50.57
  217.72        2954.00           1286          18.00        63.64
  217.75        2954.25           1289          15.00        50.57
  217.77        2954.50           1292          19.00        68.00
  217.80        2954.75           1295          17.00        59.29
  217.83        2955.00           1299          18.00        63.64
  217.86        2955.25           1302          17.00        59.29
  217.88        2955.50           1305          17.00        59.29
  217.91        2955.75           1309          15.00        50.57
  217.94        2956.00           1312          24.00        89.80
  217.96        2956.25           1315          21.00        76.72
  217.99        2956.50           1319          17.00        59.29
  218.02        2956.75           1322          20.00        72.36
  218.05        2957.00           1325          15.00        50.57
  218.07        2957.25           1329          22.00        81.08
  218.10        2957.50           1332          19.00        68.00
  218.13        2957.75           1335          19.00        68.00
  218.15        2958.00           1339          16.00        54.93
  218.18        2958.25           1342          19.00        68.00
  218.21        2958.50           1345          18.00        63.64
  218.24        2958.75           1348          16.00        54.93
  218.26        2959.00           1352          21.00        76.72
  218.29        2959.25           1355          18.00        63.64
  218.32        2959.50           1358          20.00        72.36
  218.34        2959.75           1362          21.00        76.72
  218.37        2960.00           1365          23.00        85.44
  218.40        2960.25           1368          32.00       124.67
  218.43        2960.50           1372          32.00       124.67
  218.45        2960.75           1375          31.00       120.31
  218.48        2961.00           1378          76.00       316.48
  218.51        2961.25           1382         360.00      1554.56
  218.54        2961.50           1385         958.00      4161.78
  218.56        2961.75           1388        1975.00      8596.66
  218.59        2962.00           1392        3942.00     17177.40
  218.62        2962.25           1395        5783.00     25212.22
  218.64        2962.50           1398        8020.00     34980.19
  218.67        2962.75           1402       10764.00     46969.32
  218.70        2963.00           1405       12759.00     55690.96
  218.73        2963.25           1408       15134.00     66079.43
  218.75        2963.50           1412       17663.00     77148.16
  218.78        2963.75           1415       19881.00     86861.39
  218.81        2964.00           1418       22049.00     96360.78
  218.84        2964.25           1422       24826.00    108536.00
  218.86        2964.50           1425       26580.00    116230.30
  218.89        2964.75           1428       29184.00    127659.50
  218.92        2965.00           1431       31247.00    136719.40
  218.94        2965.25           1435       34048.00    149027.70
  218.97        2965.50           1438       36342.00    159114.50
  219.00        2965.75           1441       38461.00    168436.80
  219.03        2966.00           1445       41298.00    180925.60
  219.05        2966.25           1448       43190.00    189259.20
  219.08        2966.50           1451       44352.00    194379.40
  219.11        2966.75           1455       45511.00    199487.80
  219.14        2967.00           1458       46016.00    201714.10
  219.16        2967.25           1461       46285.00    202900.10
  219.19        2967.50           1465       46111.00    202133.00
  219.22        2967.75           1468       45882.00    201123.30
  219.25        2968.00           1471       44747.00    196120.30
  219.27        2968.25           1475       42880.00    187893.50
  219.30        2968.50           1478       41313.00    180991.60
  219.33        2968.75           1481       39059.00    171068.50
  219.35        2969.00           1485       36435.00    159523.50
  219.38        2969.25           1488       33885.00    148311.20
  219.41        2969.50           1491       31723.00    138810.50
  219.44        2969.75           1495       28736.00    125692.70
  219.46        2970.00           1498       26588.00    116265.40
  219.49        2970.25           1501       24541.00    107286.10
  219.52        2970.50           1505       21639.00     94563.91
  219.55        2970.75           1508       19324.00     84421.63
  219.57        2971.00           1511       17151.00     74906.73
  219.60        2971.25           1515       14213.00     62050.17
  219.63        2971.50           1518       12054.00     52608.39
  219.65        2971.75           1521       10155.00     44307.77
  219.68        2972.00           1525        7309.00     31874.99
  219.71        2972.25           1528        5179.00     22575.73
  219.74        2972.50           1531        3367.00     14668.62
  219.76        2972.75           1535        1427.00      6206.83
  219.79        2973.00           1538         552.00      2391.62
  219.82        2973.25           1541         187.00       800.37
  219.85        2973.50           1545          46.00       185.70
  219.87        2973.75           1548          29.00       111.60
  219.90        2974.00           1551          29.00       111.60
  219.93        2974.25           1555          27.00       102.88
  219.95        2974.50           1558          29.00       111.60
  219.98        2974.75           1561          18.00        63.64
  220.01        2975.00           1565          23.00        85.44
  220.04        2975.25           1568          20.00        72.36
  220.06        2975.50           1571          19.00        68.00
  220.09        2975.75           1575          18.00        63.64
  220.12        2976.00           1578          16.00        54.93
  220.14        2976.25           1581          23.00        85.44
  220.17        2976.50           1585          19.00        68.00
  220.20        2976.75           1588          20.00        72.36
  220.23        2977.00           1591          24.00        89.80
  220.25        2977.25           1595          18.00        63.64
  220.28        2977.50           1598          20.00        72.36
  220.31        2977.75           1601          21.00        76.72
  220.33        2978.00           1605          24.00        89.80
  220.36        2978.25           1608          18.00        63.64
  220.39        2978.50           1611          21.00        76.72
  220.42        2978.75           1615          21.00        76.72
  220.44        2979.00           1618          20.00        72.36
  220.47        2979.25           1621          14.00        46.21
  220.50        2979.50           1625          21.00        76.72
  220.52        2979.75           1628          17.00        59.29
  220.55        2980.00           1631          26.00        98.52
  220.58        2980.25           1635          20.00        72.36
  220.61        2980.50           1638          16.00        54.93
  220.63        2980.75           1641          21.00        76.72
  220.66        2981.00           1645          21.00        76.72
  220.69        2981.25           1648          21.00        76.72
  220.71        2981.50           1651          22.00        81.08
  220.74        2981.75           1655          20.00        72.36
  220.77        2982.00           1658          24.00        89.80
  220.80        2982.25           1661          22.00        81.08
  220.82        2982.50           1665          19.00        68.00
  220.85        2982.75           1668          15.00        50.57
  220.88        2983.00           1671          15.00        50.57
  220.90        2983.25           1675          22.00        81.08
  220.93        2983.50           1678          18.00        63.64
  220.96        2983.75           1681          20.00        72.36
  220.99        2984.00           1685          20.00        72.36
HS scan finished at 03:41:10
end
