************************************************************
  HS Scan of (1) Internal mercury lamp
************************************************************
Integration time is 0.2294 seconds per sample
dh030419Tamanrasset 22.79-5.529 4.974364pr865
************************************************************
Dead Time -------------------------  2.8E-08 
Number of Cycles Used -------------  4 
Starting Wavelength (Angstroms) ---  2950 
Final Wavelength (Angstoms) -------  2984 
Wavelength Increment (Angstroms) --  .25 
Filter Wheel #1 Position ---------- (1) Ground quartz diffuser (ND=2.32)
Filter Wheel #2 Position ---------- (1) Neutral Density 0.494



************************************************************
HS scan start time = 03:41:22
Dark Count =  5.1 


Time (GMT)  Wavelength (Ang)  Step Number  Raw Counts  Counts/Second

  221.72        2950.00           1233          20.00        64.95
  221.78        2950.25           1236          19.00        60.59
  221.81        2950.50           1239          20.00        64.95
  221.84        2950.75           1242          19.00        60.59
  221.86        2951.00           1246          20.00        64.95
  221.89        2951.25           1249          21.00        69.31
  221.92        2951.50           1252          22.00        73.67
  221.95        2951.75           1256          17.00        51.87
  221.97        2952.00           1259          16.00        47.52
  222.00        2952.25           1262          16.00        47.52
  222.03        2952.50           1266          19.00        60.59
  222.05        2952.75           1269          17.00        51.87
  222.08        2953.00           1272          21.00        69.31
  222.11        2953.25           1276          18.00        56.23
  222.14        2953.50           1279          14.00        38.80
  222.16        2953.75           1282          18.00        56.23
  222.19        2954.00           1286          18.00        56.23
  222.22        2954.25           1289          18.00        56.23
  222.24        2954.50           1292          19.00        60.59
  222.27        2954.75           1295          16.00        47.52
  222.30        2955.00           1299          19.00        60.59
  222.33        2955.25           1302          17.00        51.87
  222.35        2955.50           1305          24.00        82.39
  222.38        2955.75           1309          21.00        69.31
  222.41        2956.00           1312          22.00        73.67
  222.43        2956.25           1315          20.00        64.95
  222.46        2956.50           1319          18.00        56.23
  222.49        2956.75           1322          20.00        64.95
  222.52        2957.00           1325          15.00        43.16
  222.54        2957.25           1329          21.00        69.31
  222.57        2957.50           1332          19.00        60.59
  222.60        2957.75           1335          21.00        69.31
  222.62        2958.00           1339          18.00        56.23
  222.65        2958.25           1342          19.00        60.59
  222.68        2958.50           1345          19.00        60.59
  222.71        2958.75           1348          18.00        56.23
  222.73        2959.00           1352          22.00        73.67
  222.76        2959.25           1355          18.00        56.23
  222.79        2959.50           1358          19.00        60.59
  222.81        2959.75           1362          22.00        73.67
  222.84        2960.00           1365          23.00        78.03
  222.87        2960.25           1368          29.00       104.19
  222.90        2960.50           1372          34.00       125.98
  222.92        2960.75           1375          37.00       139.06
  222.95        2961.00           1378         100.00       413.69
  222.98        2961.25           1382         486.00      2096.46
  223.00        2961.50           1385        1193.00      5179.04
  223.03        2961.75           1388        2481.00     10796.20
  223.06        2962.00           1392        4789.00     20866.15
  223.09        2962.25           1395        6960.00     30343.56
  223.11        2962.50           1398        9466.00     41289.65
  223.14        2962.75           1402       12558.00     54804.61
  223.17        2963.00           1405       14841.00     64790.07
  223.20        2963.25           1408       17399.00     75984.94
  223.22        2963.50           1412       20678.00     90345.52
  223.25        2963.75           1415       23051.00    100745.40
  223.28        2964.00           1418       25373.00    110927.70
  223.30        2964.25           1422       28481.00    124565.80
  223.33        2964.50           1425       30942.00    135372.20
  223.36        2964.75           1428       33450.00    146391.80
  223.39        2965.00           1431       35917.00    157237.80
  223.41        2965.25           1435       39395.00    172539.90
  223.44        2965.50           1438       41991.00    183970.10
  223.47        2965.75           1441       44100.00    193261.40
  223.50        2966.00           1445       47382.00    207730.00
  223.52        2966.25           1448       49457.00    216883.70
  223.55        2966.50           1451       51035.00    223848.10
  223.58        2966.75           1455       52246.00    229194.60
  223.61        2967.00           1458       52788.00    231588.00
  223.63        2967.25           1461       52872.00    231959.00
  223.66        2967.50           1465       52551.00    230541.40
  223.69        2967.75           1468       52303.00    229446.20
  223.71        2968.00           1471       51286.00    224956.10
  223.74        2968.25           1475       49157.00    215560.00
  223.77        2968.50           1478       47252.00    207156.70
  223.80        2968.75           1481       44413.00    194640.70
  223.82        2969.00           1485       41336.00    181085.40
  223.85        2969.25           1488       38689.00    169432.70
  223.88        2969.50           1491       36178.00    158385.70
  223.91        2969.75           1495       32855.00    143776.90
  223.93        2970.00           1498       30496.00    133413.30
  223.96        2970.25           1501       27851.00    121800.50
  223.99        2970.50           1505       24652.00    107765.40
  224.01        2970.75           1508       21954.00     95936.96
  224.04        2971.00           1511       19598.00     85614.32
  224.07        2971.25           1515       16311.00     71222.55
  224.10        2971.50           1518       13842.00     60419.92
  224.12        2971.75           1521       11602.00     50624.89
  224.15        2972.00           1525        8225.00     35868.18
  224.18        2972.25           1528        5843.00     25466.72
  224.21        2972.50           1531        3828.00     16672.56
  224.23        2972.75           1535        1607.00      6984.37
  224.26        2973.00           1538         636.00      2750.43
  224.29        2973.25           1541         196.00       832.19
  224.32        2973.50           1545          53.00       208.81
  224.34        2973.75           1548          38.00       143.42
  224.37        2974.00           1551          30.00       108.54
  224.40        2974.25           1555          25.00        86.75
  224.42        2974.50           1558          27.00        95.47
  224.45        2974.75           1561          20.00        64.95
  224.48        2975.00           1565          20.00        64.95
  224.51        2975.25           1568          21.00        69.31
  224.53        2975.50           1571          19.00        60.59
  224.56        2975.75           1575          26.00        91.11
  224.59        2976.00           1578          20.00        64.95
  224.61        2976.25           1581          22.00        73.67
  224.64        2976.50           1585          21.00        69.31
  224.67        2976.75           1588          20.00        64.95
  224.70        2977.00           1591          19.00        60.59
  224.72        2977.25           1595          18.00        56.23
  224.75        2977.50           1598          22.00        73.67
  224.78        2977.75           1601          18.00        56.23
  224.80        2978.00           1605          23.00        78.03
  224.83        2978.25           1608          22.00        73.67
  224.86        2978.50           1611          24.00        82.39
  224.89        2978.75           1615          24.00        82.39
  224.91        2979.00           1618          25.00        86.75
  224.94        2979.25           1621          23.00        78.03
  224.97        2979.50           1625          21.00        69.31
  224.99        2979.75           1628          18.00        56.23
  225.02        2980.00           1631          14.00        38.80
  225.05        2980.25           1635          22.00        73.67
  225.08        2980.50           1638          18.00        56.23
  225.10        2980.75           1641          22.00        73.67
  225.13        2981.00           1645          19.00        60.59
  225.16        2981.25           1648          24.00        82.39
  225.18        2981.50           1651          22.00        73.67
  225.21        2981.75           1655          18.00        56.23
  225.24        2982.00           1658          20.00        64.95
  225.27        2982.25           1661          18.00        56.23
  225.29        2982.50           1665          20.00        64.95
  225.32        2982.75           1668          21.00        69.31
  225.35        2983.00           1671          16.00        47.52
  225.37        2983.25           1675          19.00        60.59
  225.40        2983.50           1678          22.00        73.67
  225.43        2983.75           1681          20.00        64.95
  225.46        2984.00           1685          18.00        56.23
HS scan finished at 03:45:39
end
