************************************************************
  HS Scan of (1) Internal mercury lamp
************************************************************
Integration time is 0.2294 seconds per sample
dh060419Tamanrasset 22.79-5.529 4.974364pr865
************************************************************
Dead Time -------------------------  2.8E-08 
Number of Cycles Used -------------  4 
Starting Wavelength (Angstroms) ---  2950 
Final Wavelength (Angstoms) -------  2984 
Wavelength Increment (Angstroms) --  .25 
Filter Wheel #1 Position ---------- (1) Ground quartz diffuser (ND=2.32)
Filter Wheel #2 Position ---------- (1) Neutral Density 0.494



************************************************************
HS scan start time = 03:38:25
Dark Count =  5.8 


Time (GMT)  Wavelength (Ang)  Step Number  Raw Counts  Counts/Second

  218.77        2950.00           1233          22.00        70.62
  218.84        2950.25           1236          19.00        57.54
  218.86        2950.50           1239          18.00        53.18
  218.89        2950.75           1242          18.00        53.18
  218.92        2951.00           1246          22.00        70.62
  218.95        2951.25           1249          17.00        48.82
  218.97        2951.50           1252          15.00        40.10
  219.00        2951.75           1256          19.00        57.54
  219.03        2952.00           1259          18.00        53.18
  219.06        2952.25           1262          21.00        66.26
  219.08        2952.50           1266          18.00        53.18
  219.11        2952.75           1269          21.00        66.26
  219.14        2953.00           1272          24.00        79.34
  219.16        2953.25           1276          18.00        53.18
  219.19        2953.50           1279          19.00        57.54
  219.22        2953.75           1282          20.00        61.90
  219.25        2954.00           1286          21.00        66.26
  219.27        2954.25           1289          22.00        70.62
  219.30        2954.50           1292          17.00        48.82
  219.33        2954.75           1295          20.00        61.90
  219.35        2955.00           1299          18.00        53.18
  219.38        2955.25           1302          20.00        61.90
  219.41        2955.50           1305          18.00        53.18
  219.44        2955.75           1309          23.00        74.98
  219.46        2956.00           1312          19.00        57.54
  219.49        2956.25           1315          19.00        57.54
  219.52        2956.50           1319          19.00        57.54
  219.54        2956.75           1322          19.00        57.54
  219.57        2957.00           1325          17.00        48.82
  219.60        2957.25           1329          22.00        70.62
  219.63        2957.50           1332          23.00        74.98
  219.65        2957.75           1335          20.00        61.90
  219.68        2958.00           1339          14.00        35.75
  219.71        2958.25           1342          16.00        44.46
  219.73        2958.50           1345          18.00        53.18
  219.76        2958.75           1348          15.00        40.10
  219.79        2959.00           1352          17.00        48.82
  219.82        2959.25           1355          19.00        57.54
  219.84        2959.50           1358          16.00        44.46
  219.87        2959.75           1362          25.00        83.70
  219.90        2960.00           1365          24.00        79.34
  219.92        2960.25           1368          26.00        88.06
  219.95        2960.50           1372          23.00        74.98
  219.98        2960.75           1375          33.00       118.57
  220.01        2961.00           1378          83.00       336.53
  220.03        2961.25           1382         426.00      1831.83
  220.06        2961.50           1385        1090.00      4726.87
  220.09        2961.75           1388        2292.00      9968.78
  220.11        2962.00           1392        4631.00     20173.56
  220.14        2962.25           1395        6820.00     29729.19
  220.17        2962.50           1398        9195.00     40102.55
  220.20        2962.75           1402       12327.00     53791.51
  220.22        2963.00           1405       14848.00     64817.62
  220.25        2963.25           1408       17375.00     75876.81
  220.28        2963.50           1412       20351.00     88909.81
  220.31        2963.75           1415       22706.00     99229.99
  220.33        2964.00           1418       25436.00    111201.00
  220.36        2964.25           1422       28387.00    124150.10
  220.39        2964.50           1425       30724.00    134411.60
  220.42        2964.75           1428       33469.00    146472.20
  220.44        2965.00           1431       35706.00    156306.80
  220.47        2965.25           1435       39007.00    170829.10
  220.50        2965.50           1438       41599.00    182240.50
  220.52        2965.75           1441       43780.00    191848.20
  220.55        2966.00           1445       47375.00    207696.10
  220.58        2966.25           1448       49307.00    216218.80
  220.61        2966.50           1451       50979.00    223597.80
  220.63        2966.75           1455       52439.00    230043.70
  220.66        2967.00           1458       52923.00    232181.10
  220.69        2967.25           1461       52999.00    232516.70
  220.72        2967.50           1465       52976.00    232415.20
  220.74        2967.75           1468       52564.00    230595.70
  220.77        2968.00           1471       51530.00    226030.20
  220.80        2968.25           1475       49394.00    216602.60
  220.82        2968.50           1478       47408.00    207841.60
  220.85        2968.75           1481       44893.00    196753.10
  220.88        2969.00           1485       41702.00    182694.20
  220.91        2969.25           1488       38951.00    170582.60
  220.93        2969.50           1491       36387.00    159301.90
  220.96        2969.75           1495       33123.00    144951.60
  220.99        2970.00           1498       30424.00    133094.00
  221.02        2970.25           1501       28108.00    122925.40
  221.04        2970.50           1505       24796.00    108393.90
  221.07        2970.75           1508       22211.00     97060.28
  221.10        2971.00           1511       19665.00     85904.72
  221.12        2971.25           1515       16394.00     71582.74
  221.15        2971.50           1518       13721.00     59887.61
  221.18        2971.75           1521       11434.00     49887.43
  221.21        2972.00           1525        8147.00     35524.42
  221.23        2972.25           1528        5726.00     24952.92
  221.26        2972.50           1531        3662.00     15945.22
  221.29        2972.75           1535        1570.00      6819.96
  221.32        2973.00           1538         605.00      2612.22
  221.34        2973.25           1541         199.00       842.22
  221.37        2973.50           1545          54.00       210.11
  221.40        2973.75           1548          37.00       136.01
  221.43        2974.00           1551          33.00       118.57
  221.45        2974.25           1555          32.00       114.21
  221.48        2974.50           1558          26.00        88.06
  221.51        2974.75           1561          19.00        57.54
  221.53        2975.00           1565          25.00        83.70
  221.56        2975.25           1568          25.00        83.70
  221.59        2975.50           1571          22.00        70.62
  221.62        2975.75           1575          19.00        57.54
  221.64        2976.00           1578          20.00        61.90
  221.67        2976.25           1581          24.00        79.34
  221.70        2976.50           1585          20.00        61.90
  221.73        2976.75           1588          20.00        61.90
  221.75        2977.00           1591          20.00        61.90
  221.78        2977.25           1595          22.00        70.62
  221.81        2977.50           1598          23.00        74.98
  221.83        2977.75           1601          20.00        61.90
  221.86        2978.00           1605          19.00        57.54
  221.89        2978.25           1608          18.00        53.18
  221.91        2978.50           1611          21.00        66.26
  221.94        2978.75           1615          22.00        70.62
  221.97        2979.00           1618          19.00        57.54
  222.00        2979.25           1621          22.00        70.62
  222.02        2979.50           1625          22.00        70.62
  222.05        2979.75           1628          19.00        57.54
  222.08        2980.00           1631          18.00        53.18
  222.10        2980.25           1635          16.00        44.46
  222.13        2980.50           1638          19.00        57.54
  222.16        2980.75           1641          24.00        79.34
  222.19        2981.00           1645          24.00        79.34
  222.21        2981.25           1648          19.00        57.54
  222.24        2981.50           1651          20.00        61.90
  222.27        2981.75           1655          15.00        40.10
  222.30        2982.00           1658          18.00        53.18
  222.32        2982.25           1661          21.00        66.26
  222.35        2982.50           1665          18.00        53.18
  222.38        2982.75           1668          18.00        53.18
  222.40        2983.00           1671          21.00        66.26
  222.43        2983.25           1675          20.00        61.90
  222.46        2983.50           1678          18.00        53.18
  222.49        2983.75           1681          16.00        44.46
  222.51        2984.00           1685          23.00        74.98
HS scan finished at 03:42:42
end
