************************************************************
  HS Scan of (1) Internal mercury lamp
************************************************************
Integration time is 0.2294 seconds per sample
dh020419Tamanrasset 22.79-5.529 4.974364pr865
************************************************************
Dead Time -------------------------  2.8E-08 
Number of Cycles Used -------------  4 
Starting Wavelength (Angstroms) ---  2950 
Final Wavelength (Angstoms) -------  2984 
Wavelength Increment (Angstroms) --  .25 
Filter Wheel #1 Position ---------- (1) Ground quartz diffuser (ND=2.32)
Filter Wheel #2 Position ---------- (1) Neutral Density 0.494



************************************************************
HS scan start time = 03:42:23
Dark Count =  4.9 


Time (GMT)  Wavelength (Ang)  Step Number  Raw Counts  Counts/Second

  222.73        2950.00           1233          17.00        52.75
  222.80        2950.25           1236          18.00        57.11
  222.83        2950.50           1239          18.00        57.11
  222.85        2950.75           1242          16.00        48.39
  222.88        2951.00           1246          18.00        57.11
  222.91        2951.25           1249          19.00        61.46
  222.93        2951.50           1252          18.00        57.11
  222.96        2951.75           1256          14.00        39.67
  222.99        2952.00           1259          19.00        61.46
  223.02        2952.25           1262          20.00        65.82
  223.04        2952.50           1266          18.00        57.11
  223.07        2952.75           1269          20.00        65.82
  223.10        2953.00           1272          16.00        48.39
  223.13        2953.25           1276          23.00        78.90
  223.15        2953.50           1279          22.00        74.54
  223.18        2953.75           1282          19.00        61.46
  223.21        2954.00           1286          20.00        65.82
  223.23        2954.25           1289          16.00        48.39
  223.26        2954.50           1292          17.00        52.75
  223.29        2954.75           1295          16.00        48.39
  223.31        2955.00           1299          22.00        74.54
  223.34        2955.25           1302          17.00        52.75
  223.37        2955.50           1305          16.00        48.39
  223.40        2955.75           1309          18.00        57.11
  223.42        2956.00           1312          17.00        52.75
  223.45        2956.25           1315          18.00        57.11
  223.48        2956.50           1319          15.00        44.03
  223.50        2956.75           1322          19.00        61.46
  223.53        2957.00           1325          15.00        44.03
  223.56        2957.25           1329          15.00        44.03
  223.59        2957.50           1332          17.00        52.75
  223.61        2957.75           1335          19.00        61.46
  223.64        2958.00           1339          21.00        70.18
  223.67        2958.25           1342          20.00        65.82
  223.69        2958.50           1345          16.00        48.39
  223.72        2958.75           1348          19.00        61.46
  223.75        2959.00           1352          18.00        57.11
  223.78        2959.25           1355          19.00        61.46
  223.80        2959.50           1358          22.00        74.54
  223.83        2959.75           1362          20.00        65.82
  223.86        2960.00           1365          24.00        83.26
  223.88        2960.25           1368          24.00        83.26
  223.91        2960.50           1372          29.00       105.06
  223.94        2960.75           1375          33.00       122.49
  223.97        2961.00           1378         107.00       445.08
  223.99        2961.25           1382         499.00      2154.01
  224.02        2961.50           1385        1228.00      5332.53
  224.05        2961.75           1388        2500.00     10879.95
  224.08        2962.00           1392        4980.00     21700.63
  224.10        2962.25           1395        7184.00     31322.58
  224.13        2962.50           1398        9557.00     41688.12
  224.16        2962.75           1402       12285.00     53611.81
  224.19        2963.00           1405       14744.00     64366.55
  224.21        2963.25           1408       17116.00     74746.95
  224.24        2963.50           1412       20326.00     88804.22
  224.27        2963.75           1415       22318.00     97533.21
  224.29        2964.00           1418       24814.00    108476.80
  224.32        2964.25           1422       28049.00    122670.40
  224.35        2964.50           1425       30155.00    131916.60
  224.38        2964.75           1428       32731.00    143232.80
  224.40        2965.00           1431       35212.00    154138.50
  224.43        2965.25           1435       38244.00    167475.30
  224.46        2965.50           1438       40696.00    178268.20
  224.49        2965.75           1441       42878.00    187878.10
  224.51        2966.00           1445       45922.00    201293.10
  224.54        2966.25           1448       48071.00    210769.90
  224.57        2966.50           1451       49531.00    217211.10
  224.59        2966.75           1455       50475.00    221377.20
  224.62        2967.00           1458       50987.00    223637.10
  224.65        2967.25           1461       51073.00    224016.70
  224.68        2967.50           1465       50921.00    223345.80
  224.70        2967.75           1468       50505.00    221509.60
  224.73        2968.00           1471       49448.00    216844.90
  224.76        2968.25           1475       47656.00    208939.40
  224.79        2968.50           1478       45197.00    198097.10
  224.81        2968.75           1481       42720.00    187182.10
  224.84        2969.00           1485       39646.00    173645.60
  224.87        2969.25           1488       36977.00    161901.00
  224.90        2969.50           1491       34726.00    152001.70
  224.92        2969.75           1495       31551.00    138048.30
  224.95        2970.00           1498       29045.00    127042.70
  224.98        2970.25           1501       26574.00    116197.40
  225.00        2970.50           1505       23407.00    102307.00
  225.03        2970.75           1508       20821.00     90972.94
  225.06        2971.00           1511       18507.00     80837.08
  225.09        2971.25           1515       15437.00     67398.66
  225.11        2971.50           1518       13230.00     57744.12
  225.14        2971.75           1521       10883.00     47482.88
  225.17        2972.00           1525        7768.00     33873.01
  225.20        2972.25           1528        5497.00     23957.22
  225.22        2972.50           1531        3513.00     15299.06
  225.25        2972.75           1535        1426.00      6195.93
  225.28        2973.00           1538         561.00      2424.31
  225.30        2973.25           1541         169.00       715.36
  225.33        2973.50           1545          50.00       196.60
  225.36        2973.75           1548          33.00       122.49
  225.39        2974.00           1551          25.00        87.62
  225.41        2974.25           1555          28.00       100.70
  225.44        2974.50           1558          23.00        78.90
  225.47        2974.75           1561          18.00        57.11
  225.50        2975.00           1565          27.00        96.34
  225.52        2975.25           1568          21.00        70.18
  225.55        2975.50           1571          21.00        70.18
  225.58        2975.75           1575          22.00        74.54
  225.60        2976.00           1578          27.00        96.34
  225.63        2976.25           1581          22.00        74.54
  225.66        2976.50           1585          22.00        74.54
  225.69        2976.75           1588          21.00        70.18
  225.71        2977.00           1591          21.00        70.18
  225.74        2977.25           1595          22.00        74.54
  225.77        2977.50           1598          20.00        65.82
  225.79        2977.75           1601          23.00        78.90
  225.82        2978.00           1605          24.00        83.26
  225.85        2978.25           1608          20.00        65.82
  225.88        2978.50           1611          20.00        65.82
  225.90        2978.75           1615          18.00        57.11
  225.93        2979.00           1618          17.00        52.75
  225.96        2979.25           1621          23.00        78.90
  225.98        2979.50           1625          19.00        61.46
  226.01        2979.75           1628          24.00        83.26
  226.04        2980.00           1631          21.00        70.18
  226.07        2980.25           1635          22.00        74.54
  226.09        2980.50           1638          20.00        65.82
  226.12        2980.75           1641          20.00        65.82
  226.15        2981.00           1645          26.00        91.98
  226.17        2981.25           1648          19.00        61.46
  226.20        2981.50           1651          16.00        48.39
  226.23        2981.75           1655          22.00        74.54
  226.26        2982.00           1658          20.00        65.82
  226.28        2982.25           1661          17.00        52.75
  226.31        2982.50           1665          19.00        61.46
  226.34        2982.75           1668          20.00        65.82
  226.36        2983.00           1671          19.00        61.46
  226.39        2983.25           1675          18.00        57.11
  226.42        2983.50           1678          18.00        57.11
  226.45        2983.75           1681          17.00        52.75
  226.47        2984.00           1685          20.00        65.82
HS scan finished at 03:46:40
end
