************************************************************
  HS Scan of (1) Internal mercury lamp
************************************************************
Integration time is 0.2294 seconds per sample
dh010419Tamanrasset 22.79-5.529 4.974364pr865
************************************************************
Dead Time -------------------------  2.8E-08 
Number of Cycles Used -------------  4 
Starting Wavelength (Angstroms) ---  2950 
Final Wavelength (Angstoms) -------  2984 
Wavelength Increment (Angstroms) --  .25 
Filter Wheel #1 Position ---------- (1) Ground quartz diffuser (ND=2.32)
Filter Wheel #2 Position ---------- (1) Neutral Density 0.494



************************************************************
HS scan start time = 03:43:21
Dark Count =  4.8 


Time (GMT)  Wavelength (Ang)  Step Number  Raw Counts  Counts/Second

  223.71        2950.00           1233          16.00        48.82
  223.77        2950.25           1236          21.00        70.62
  223.80        2950.50           1239          17.00        53.18
  223.83        2950.75           1242          20.00        66.26
  223.85        2951.00           1246          24.00        83.70
  223.88        2951.25           1249          18.00        57.54
  223.91        2951.50           1252          21.00        70.62
  223.94        2951.75           1256          20.00        66.26
  223.96        2952.00           1259          12.00        31.39
  223.99        2952.25           1262          21.00        70.62
  224.02        2952.50           1266          18.00        57.54
  224.05        2952.75           1269          21.00        70.62
  224.07        2953.00           1272          17.00        53.18
  224.10        2953.25           1276          21.00        70.62
  224.13        2953.50           1279          18.00        57.54
  224.15        2953.75           1282          19.00        61.90
  224.18        2954.00           1286          15.00        44.46
  224.21        2954.25           1289          16.00        48.82
  224.23        2954.50           1292          21.00        70.62
  224.26        2954.75           1295          22.00        74.98
  224.29        2955.00           1299          20.00        66.26
  224.32        2955.25           1302          22.00        74.98
  224.34        2955.50           1305          21.00        70.62
  224.37        2955.75           1309          22.00        74.98
  224.40        2956.00           1312          21.00        70.62
  224.43        2956.25           1315          18.00        57.54
  224.45        2956.50           1319          17.00        53.18
  224.48        2956.75           1322          19.00        61.90
  224.51        2957.00           1325          19.00        61.90
  224.53        2957.25           1329          17.00        53.18
  224.56        2957.50           1332          15.00        44.46
  224.59        2957.75           1335          19.00        61.90
  224.61        2958.00           1339          21.00        70.62
  224.64        2958.25           1342          16.00        48.82
  224.67        2958.50           1345          19.00        61.90
  224.70        2958.75           1348          22.00        74.98
  224.72        2959.00           1352          24.00        83.70
  224.75        2959.25           1355          20.00        66.26
  224.78        2959.50           1358          21.00        70.62
  224.80        2959.75           1362          23.00        79.34
  224.83        2960.00           1365          25.00        88.06
  224.86        2960.25           1368          22.00        74.98
  224.89        2960.50           1372          29.00       105.49
  224.91        2960.75           1375          35.00       131.65
  224.94        2961.00           1378          90.00       371.41
  224.97        2961.25           1382         467.00      2014.94
  224.99        2961.50           1385        1095.00      4753.03
  225.02        2961.75           1388        2354.00     10243.57
  225.05        2962.00           1392        4609.00     20081.91
  225.08        2962.25           1395        6883.00     30008.64
  225.10        2962.50           1398        9215.00     40194.30
  225.13        2962.75           1402       12216.00     53310.56
  225.16        2963.00           1405       14937.00     65211.38
  225.19        2963.25           1408       17228.00     75237.68
  225.21        2963.50           1412       20454.00     89365.44
  225.24        2963.75           1415       22613.00     98826.71
  225.27        2964.00           1418       25234.00    110319.30
  225.30        2964.25           1422       28702.00    125537.30
  225.32        2964.50           1425       31131.00    136203.70
  225.35        2964.75           1428       33607.00    147083.10
  225.38        2965.00           1431       35917.00    157239.10
  225.40        2965.25           1435       39057.00    171053.60
  225.43        2965.50           1438       41754.00    182927.60
  225.46        2965.75           1441       43993.00    192791.20
  225.49        2966.00           1445       47524.00    208357.60
  225.51        2966.25           1448       49384.00    216562.90
  225.54        2966.50           1451       51060.00    223959.80
  225.57        2966.75           1455       52236.00    229151.70
  225.60        2967.00           1458       52910.00    232128.10
  225.62        2967.25           1461       53040.00    232702.20
  225.65        2967.50           1465       52778.00    231545.10
  225.68        2967.75           1468       52218.00    229072.30
  225.70        2968.00           1471       51177.00    224476.20
  225.73        2968.25           1475       49066.00    215159.80
  225.76        2968.50           1478       46980.00    205958.50
  225.79        2968.75           1481       44580.00    195378.00
  225.81        2969.00           1485       41422.00    181465.50
  225.84        2969.25           1488       38740.00    169658.40
  225.87        2969.50           1491       35897.00    157151.20
  225.90        2969.75           1495       32490.00    142174.30
  225.92        2970.00           1498       30005.00    131258.30
  225.95        2970.25           1501       27554.00    120498.30
  225.98        2970.50           1505       24065.00    105192.60
  226.01        2970.75           1508       21756.00     95070.52
  226.03        2971.00           1511       19325.00     84419.88
  226.06        2971.25           1515       16042.00     70046.58
  226.09        2971.50           1518       13595.00     59340.90
  226.11        2971.75           1521       11149.00     48645.99
  226.14        2972.00           1525        8037.00     35048.33
  226.17        2972.25           1528        5740.00     25018.39
  226.20        2972.50           1531        3640.00     15853.59
  226.22        2972.75           1535        1545.00      6715.30
  226.25        2973.00           1538         605.00      2616.58
  226.28        2973.25           1541         182.00       772.47
  226.31        2973.50           1545          55.00       218.83
  226.33        2973.75           1548          36.00       136.01
  226.36        2974.00           1551          35.00       131.65
  226.39        2974.25           1555          28.00       101.13
  226.42        2974.50           1558          22.00        74.98
  226.44        2974.75           1561          24.00        83.70
  226.47        2975.00           1565          19.00        61.90
  226.50        2975.25           1568          26.00        92.42
  226.52        2975.50           1571          19.00        61.90
  226.55        2975.75           1575          23.00        79.34
  226.58        2976.00           1578          24.00        83.70
  226.60        2976.25           1581          24.00        83.70
  226.63        2976.50           1585          19.00        61.90
  226.66        2976.75           1588          21.00        70.62
  226.69        2977.00           1591          20.00        66.26
  226.71        2977.25           1595          24.00        83.70
  226.74        2977.50           1598          18.00        57.54
  226.77        2977.75           1601          20.00        66.26
  226.80        2978.00           1605          24.00        83.70
  226.82        2978.25           1608          17.00        53.18
  226.85        2978.50           1611          18.00        57.54
  226.88        2978.75           1615          17.00        53.18
  226.90        2979.00           1618          20.00        66.26
  226.93        2979.25           1621          18.00        57.54
  226.96        2979.50           1625          25.00        88.06
  226.99        2979.75           1628          18.00        57.54
  227.01        2980.00           1631          22.00        74.98
  227.04        2980.25           1635          19.00        61.90
  227.07        2980.50           1638          18.00        57.54
  227.09        2980.75           1641          17.00        53.18
  227.12        2981.00           1645          18.00        57.54
  227.15        2981.25           1648          20.00        66.26
  227.18        2981.50           1651          20.00        66.26
  227.20        2981.75           1655          18.00        57.54
  227.23        2982.00           1658          19.00        61.90
  227.26        2982.25           1661          21.00        70.62
  227.28        2982.50           1665          19.00        61.90
  227.31        2982.75           1668          21.00        70.62
  227.34        2983.00           1671          17.00        53.18
  227.37        2983.25           1675          19.00        61.90
  227.39        2983.50           1678          18.00        57.54
  227.42        2983.75           1681          21.00        70.62
  227.45        2984.00           1685          15.00        44.46
HS scan finished at 03:47:38
end
