************************************************************
  HS Scan of (1) Internal mercury lamp
************************************************************
Integration time is 0.2294 seconds per sample
dh040419Tamanrasset 22.79-5.529 4.974364pr865
************************************************************
Dead Time -------------------------  2.8E-08 
Number of Cycles Used -------------  4 
Starting Wavelength (Angstroms) ---  2950 
Final Wavelength (Angstoms) -------  2984 
Wavelength Increment (Angstroms) --  .25 
Filter Wheel #1 Position ---------- (1) Ground quartz diffuser (ND=2.32)
Filter Wheel #2 Position ---------- (1) Neutral Density 0.494



************************************************************
HS scan start time = 03:39:54
Dark Count =  2.8 


Time (GMT)  Wavelength (Ang)  Step Number  Raw Counts  Counts/Second

  220.25        2950.00           1233          21.00        79.34
  220.32        2950.25           1236          20.00        74.98
  220.34        2950.50           1239          19.00        70.62
  220.37        2950.75           1242          22.00        83.70
  220.40        2951.00           1246          18.00        66.26
  220.43        2951.25           1249          21.00        79.34
  220.45        2951.50           1252          20.00        74.98
  220.48        2951.75           1256          20.00        74.98
  220.51        2952.00           1259          22.00        83.70
  220.53        2952.25           1262          25.00        96.77
  220.56        2952.50           1266          19.00        70.62
  220.59        2952.75           1269          18.00        66.26
  220.62        2953.00           1272          18.00        66.26
  220.64        2953.25           1276          21.00        79.34
  220.67        2953.50           1279          17.00        61.90
  220.70        2953.75           1282          21.00        79.34
  220.72        2954.00           1286          19.00        70.62
  220.75        2954.25           1289          20.00        74.98
  220.78        2954.50           1292          21.00        79.34
  220.80        2954.75           1295          18.00        66.26
  220.83        2955.00           1299          17.00        61.90
  220.86        2955.25           1302          19.00        70.62
  220.89        2955.50           1305          18.00        66.26
  220.91        2955.75           1309          17.00        61.90
  220.94        2956.00           1312          16.00        57.54
  220.97        2956.25           1315          15.00        53.18
  220.99        2956.50           1319          17.00        61.90
  221.02        2956.75           1322          17.00        61.90
  221.05        2957.00           1325          16.00        57.54
  221.08        2957.25           1329          21.00        79.34
  221.10        2957.50           1332          18.00        66.26
  221.13        2957.75           1335          20.00        74.98
  221.16        2958.00           1339          17.00        61.90
  221.19        2958.25           1342          17.00        61.90
  221.21        2958.50           1345          19.00        70.62
  221.24        2958.75           1348          23.00        88.06
  221.27        2959.00           1352          22.00        83.70
  221.29        2959.25           1355          19.00        70.62
  221.32        2959.50           1358          18.00        66.26
  221.35        2959.75           1362          21.00        79.34
  221.37        2960.00           1365          21.00        79.34
  221.40        2960.25           1368          27.00       105.49
  221.43        2960.50           1372          28.00       109.85
  221.46        2960.75           1375          38.00       153.44
  221.48        2961.00           1378         103.00       436.80
  221.51        2961.25           1382         487.00      2110.85
  221.54        2961.50           1385        1245.00      5415.82
  221.57        2961.75           1388        2433.00     10596.87
  221.59        2962.00           1392        5002.00     21805.81
  221.62        2962.25           1395        7209.00     31440.92
  221.65        2962.50           1398        9484.00     41378.35
  221.67        2962.75           1402       12370.00     53992.64
  221.70        2963.00           1405       14837.00     64782.62
  221.73        2963.25           1408       17233.00     75268.31
  221.76        2963.50           1412       20195.00     88239.54
  221.78        2963.75           1415       22656.00     99023.96
  221.81        2964.00           1418       25188.00    110126.30
  221.84        2964.25           1422       28308.00    123816.50
  221.87        2964.50           1425       30750.00    134539.00
  221.89        2964.75           1428       33445.00    146379.90
  221.92        2965.00           1431       35597.00    155840.70
  221.95        2965.25           1435       38669.00    169354.80
  221.98        2965.50           1438       41325.00    181047.10
  222.00        2965.75           1441       43871.00    192262.40
  222.03        2966.00           1445       46986.00    205993.80
  222.06        2966.25           1448       49268.00    216059.90
  222.08        2966.50           1451       50594.00    221911.70
  222.11        2966.75           1455       51889.00    227628.40
  222.14        2967.00           1458       52430.00    230017.20
  222.17        2967.25           1461       52322.00    229540.30
  222.19        2967.50           1465       52487.00    230268.90
  222.22        2967.75           1468       51824.00    227341.50
  222.25        2968.00           1471       50978.00    223606.60
  222.28        2968.25           1475       48788.00    213942.10
  222.30        2968.50           1478       46731.00    204869.30
  222.33        2968.75           1481       44192.00    193676.90
  222.36        2969.00           1485       41022.00    179712.90
  222.39        2969.25           1488       38308.00    167766.20
  222.41        2969.50           1491       35709.00    156333.20
  222.44        2969.75           1495       32398.00    141778.80
  222.47        2970.00           1498       29942.00    130990.50
  222.50        2970.25           1501       27354.00    119629.40
  222.52        2970.50           1505       23729.00    103728.00
  222.55        2970.75           1508       21427.00     93637.52
  222.58        2971.00           1511       19033.00     83149.77
  222.60        2971.25           1515       15877.00     69333.25
  222.63        2971.50           1518       13381.00     58413.68
  222.66        2971.75           1521       10955.00     47806.76
  222.69        2972.00           1525        7780.00     33934.58
  222.71        2972.25           1528        5507.00     24010.03
  222.74        2972.50           1531        3416.00     14885.02
  222.77        2972.75           1535        1360.00      5917.28
  222.80        2973.00           1538         467.00      2023.65
  222.82        2973.25           1541         130.00       554.50
  222.85        2973.50           1545          45.00       183.96
  222.88        2973.75           1548          34.00       136.01
  222.90        2974.00           1551          29.00       114.21
  222.93        2974.25           1555          23.00        88.06
  222.96        2974.50           1558          26.00       101.13
  222.99        2974.75           1561          23.00        88.06
  223.01        2975.00           1565          23.00        88.06
  223.04        2975.25           1568          22.00        83.70
  223.07        2975.50           1571          19.00        70.62
  223.09        2975.75           1575          16.00        57.54
  223.12        2976.00           1578          22.00        83.70
  223.15        2976.25           1581          25.00        96.77
  223.18        2976.50           1585          21.00        79.34
  223.20        2976.75           1588          20.00        74.98
  223.23        2977.00           1591          19.00        70.62
  223.26        2977.25           1595          21.00        79.34
  223.28        2977.50           1598          22.00        83.70
  223.31        2977.75           1601          22.00        83.70
  223.34        2978.00           1605          26.00       101.13
  223.37        2978.25           1608          22.00        83.70
  223.39        2978.50           1611          19.00        70.62
  223.42        2978.75           1615          23.00        88.06
  223.45        2979.00           1618          20.00        74.98
  223.47        2979.25           1621          17.00        61.90
  223.50        2979.50           1625          19.00        70.62
  223.53        2979.75           1628          17.00        61.90
  223.56        2980.00           1631          14.00        48.82
  223.58        2980.25           1635          19.00        70.62
  223.61        2980.50           1638          19.00        70.62
  223.64        2980.75           1641          20.00        74.98
  223.66        2981.00           1645          18.00        66.26
  223.69        2981.25           1648          16.00        57.54
  223.72        2981.50           1651          20.00        74.98
  223.75        2981.75           1655          16.00        57.54
  223.77        2982.00           1658          20.00        74.98
  223.80        2982.25           1661          22.00        83.70
  223.83        2982.50           1665          19.00        70.62
  223.85        2982.75           1668          18.00        66.26
  223.88        2983.00           1671          19.00        70.62
  223.91        2983.25           1675          21.00        79.34
  223.94        2983.50           1678          17.00        61.90
  223.96        2983.75           1681          22.00        83.70
  223.99        2984.00           1685          15.00        53.18
HS scan finished at 03:44:11
end
