************************************************************
  HS Scan of (1) Internal mercury lamp
************************************************************
Integration time is 0.2294 seconds per sample
dh050419Tamanrasset 22.79-5.529 4.974364pr865
************************************************************
Dead Time -------------------------  2.8E-08 
Number of Cycles Used -------------  4 
Starting Wavelength (Angstroms) ---  2950 
Final Wavelength (Angstoms) -------  2984 
Wavelength Increment (Angstroms) --  .25 
Filter Wheel #1 Position ---------- (1) Ground quartz diffuser (ND=2.32)
Filter Wheel #2 Position ---------- (1) Neutral Density 0.494



************************************************************
HS scan start time = 03:39:24
Dark Count =  4.2 


Time (GMT)  Wavelength (Ang)  Step Number  Raw Counts  Counts/Second

  219.76        2950.00           1233          18.00        60.16
  219.82        2950.25           1236          20.00        68.88
  219.85        2950.50           1239          23.00        81.95
  219.87        2950.75           1242          19.00        64.52
  219.90        2951.00           1246          12.00        34.00
  219.93        2951.25           1249          14.00        42.72
  219.96        2951.50           1252          18.00        60.16
  219.98        2951.75           1256          19.00        64.52
  220.01        2952.00           1259          17.00        55.80
  220.04        2952.25           1262          20.00        68.88
  220.06        2952.50           1266          18.00        60.16
  220.09        2952.75           1269          19.00        64.52
  220.12        2953.00           1272          17.00        55.80
  220.15        2953.25           1276          19.00        64.52
  220.17        2953.50           1279          19.00        64.52
  220.20        2953.75           1282          16.00        51.44
  220.23        2954.00           1286          19.00        64.52
  220.25        2954.25           1289          17.00        55.80
  220.28        2954.50           1292          20.00        68.88
  220.31        2954.75           1295          19.00        64.52
  220.34        2955.00           1299          19.00        64.52
  220.36        2955.25           1302          19.00        64.52
  220.39        2955.50           1305          13.00        38.36
  220.42        2955.75           1309          19.00        64.52
  220.45        2956.00           1312          19.00        64.52
  220.47        2956.25           1315          21.00        73.23
  220.50        2956.50           1319          20.00        68.88
  220.53        2956.75           1322          17.00        55.80
  220.55        2957.00           1325          20.00        68.88
  220.58        2957.25           1329          25.00        90.67
  220.61        2957.50           1332          21.00        73.23
  220.64        2957.75           1335          21.00        73.23
  220.66        2958.00           1339          21.00        73.23
  220.69        2958.25           1342          18.00        60.16
  220.72        2958.50           1345          22.00        77.59
  220.74        2958.75           1348          19.00        64.52
  220.77        2959.00           1352          21.00        73.23
  220.80        2959.25           1355          23.00        81.95
  220.83        2959.50           1358          21.00        73.23
  220.85        2959.75           1362          19.00        64.52
  220.88        2960.00           1365          24.00        86.31
  220.91        2960.25           1368          32.00       121.19
  220.93        2960.50           1372          29.00       108.11
  220.96        2960.75           1375          33.00       125.55
  220.99        2961.00           1378          78.00       321.71
  221.02        2961.25           1382         380.00      1638.26
  221.04        2961.50           1385        1003.00      4354.50
  221.07        2961.75           1388        2125.00      9247.38
  221.10        2962.00           1392        4590.00     20001.61
  221.13        2962.25           1395        6856.00     29893.36
  221.15        2962.50           1398        9533.00     41586.33
  221.18        2962.75           1402       12937.00     56465.84
  221.21        2963.00           1405       15643.00     68303.13
  221.23        2963.25           1408       18226.00     79609.70
  221.26        2963.50           1412       21646.00     94591.09
  221.29        2963.75           1415       24134.00    105497.80
  221.32        2964.00           1418       26808.00    117227.20
  221.34        2964.25           1422       30208.00    132152.40
  221.37        2964.50           1425       32846.00    143741.30
  221.40        2964.75           1428       35572.00    155724.60
  221.43        2965.00           1431       38374.00    168050.50
  221.45        2965.25           1435       41911.00    183621.70
  221.48        2965.50           1438       44818.00    196429.60
  221.51        2965.75           1441       47622.00    208792.50
  221.54        2966.00           1445       50828.00    222938.30
  221.56        2966.25           1448       53210.00    233455.70
  221.59        2966.50           1451       55057.00    241615.10
  221.62        2966.75           1455       56834.00    249468.90
  221.64        2967.00           1458       57464.00    252254.10
  221.67        2967.25           1461       57508.00    252448.60
  221.70        2967.50           1465       57603.00    252868.70
  221.73        2967.75           1468       57118.00    250724.40
  221.75        2968.00           1471       56220.00    246754.80
  221.78        2968.25           1475       53835.00    236216.30
  221.81        2968.50           1478       51397.00    225450.10
  221.84        2968.75           1481       48839.00    214160.90
  221.86        2969.00           1485       45177.00    198012.00
  221.89        2969.25           1488       42379.00    185683.00
  221.92        2969.50           1491       39406.00    172592.30
  221.95        2969.75           1495       35686.00    156225.90
  221.97        2970.00           1498       32746.00    143301.80
  222.00        2970.25           1501       30206.00    132143.70
  222.03        2970.50           1505       26561.00    116143.40
  222.05        2970.75           1508       23864.00    104313.80
  222.08        2971.00           1511       21119.00     92281.74
  222.11        2971.25           1515       17775.00     77635.02
  222.14        2971.50           1518       15140.00     66102.18
  222.16        2971.75           1521       12344.00     53872.83
  222.19        2972.00           1525        8761.00     38213.49
  222.22        2972.25           1528        6361.00     27732.08
  222.25        2972.50           1531        4037.00     17588.43
  222.27        2972.75           1535        1661.00      7223.78
  222.30        2973.00           1538         655.00      2837.19
  222.33        2973.25           1541         193.00       823.04
  222.35        2973.50           1545          58.00       234.53
  222.38        2973.75           1548          44.00       173.50
  222.41        2974.00           1551          39.00       151.70
  222.44        2974.25           1555          29.00       108.11
  222.46        2974.50           1558          24.00        86.31
  222.49        2974.75           1561          23.00        81.95
  222.52        2975.00           1565          22.00        77.59
  222.55        2975.25           1568          22.00        77.59
  222.57        2975.50           1571          16.00        51.44
  222.60        2975.75           1575          21.00        73.23
  222.63        2976.00           1578          20.00        68.88
  222.65        2976.25           1581          21.00        73.23
  222.68        2976.50           1585          27.00        99.39
  222.71        2976.75           1588          23.00        81.95
  222.74        2977.00           1591          22.00        77.59
  222.76        2977.25           1595          23.00        81.95
  222.79        2977.50           1598          23.00        81.95
  222.82        2977.75           1601          18.00        60.16
  222.84        2978.00           1605          27.00        99.39
  222.87        2978.25           1608          18.00        60.16
  222.90        2978.50           1611          18.00        60.16
  222.93        2978.75           1615          21.00        73.23
  222.95        2979.00           1618          20.00        68.88
  222.98        2979.25           1621          24.00        86.31
  223.01        2979.50           1625          24.00        86.31
  223.04        2979.75           1628          17.00        55.80
  223.06        2980.00           1631          20.00        68.88
  223.09        2980.25           1635          20.00        68.88
  223.12        2980.50           1638          20.00        68.88
  223.14        2980.75           1641          23.00        81.95
  223.17        2981.00           1645          21.00        73.23
  223.20        2981.25           1648          17.00        55.80
  223.23        2981.50           1651          22.00        77.59
  223.25        2981.75           1655          18.00        60.16
  223.28        2982.00           1658          22.00        77.59
  223.31        2982.25           1661          23.00        81.95
  223.33        2982.50           1665          19.00        64.52
  223.36        2982.75           1668          16.00        51.44
  223.39        2983.00           1671          19.00        64.52
  223.42        2983.25           1675          17.00        55.80
  223.44        2983.50           1678          22.00        77.59
  223.47        2983.75           1681          16.00        51.44
  223.50        2984.00           1685          18.00        60.16
HS scan finished at 03:43:41
end
