************************************************************
  HS Scan of (1) Internal mercury lamp
************************************************************
Integration time is 0.2294 seconds per sample
dh310319Tamanrasset 22.79-5.529 4.974364pr865
************************************************************
Dead Time -------------------------  2.8E-08 
Number of Cycles Used -------------  4 
Starting Wavelength (Angstroms) ---  2950 
Final Wavelength (Angstoms) -------  2984 
Wavelength Increment (Angstroms) --  .25 
Filter Wheel #1 Position ---------- (1) Ground quartz diffuser (ND=2.32)
Filter Wheel #2 Position ---------- (1) Neutral Density 0.494



************************************************************
HS scan start time = 03:43:54
Dark Count =  3.5 


Time (GMT)  Wavelength (Ang)  Step Number  Raw Counts  Counts/Second

  224.25        2950.00           1233          19.00        67.57
  224.31        2950.25           1236          16.00        54.49
  224.34        2950.50           1239          20.00        71.93
  224.37        2950.75           1242          17.00        58.85
  224.39        2951.00           1246          22.00        80.65
  224.42        2951.25           1249          21.00        76.29
  224.45        2951.50           1252          20.00        71.93
  224.48        2951.75           1256          18.00        63.21
  224.50        2952.00           1259          18.00        63.21
  224.53        2952.25           1262          26.00        98.08
  224.56        2952.50           1266          21.00        76.29
  224.58        2952.75           1269          18.00        63.21
  224.61        2953.00           1272          19.00        67.57
  224.64        2953.25           1276          15.00        50.13
  224.66        2953.50           1279          18.00        63.21
  224.69        2953.75           1282          18.00        63.21
  224.72        2954.00           1286          19.00        67.57
  224.75        2954.25           1289          18.00        63.21
  224.77        2954.50           1292          23.00        85.00
  224.80        2954.75           1295          22.00        80.65
  224.83        2955.00           1299          19.00        67.57
  224.85        2955.25           1302          20.00        71.93
  224.88        2955.50           1305          17.00        58.85
  224.91        2955.75           1309          19.00        67.57
  224.94        2956.00           1312          16.00        54.49
  224.96        2956.25           1315          19.00        67.57
  224.99        2956.50           1319          21.00        76.29
  225.02        2956.75           1322          24.00        89.36
  225.05        2957.00           1325          18.00        63.21
  225.07        2957.25           1329          20.00        71.93
  225.10        2957.50           1332          23.00        85.00
  225.13        2957.75           1335          19.00        67.57
  225.15        2958.00           1339          18.00        63.21
  225.18        2958.25           1342          18.00        63.21
  225.21        2958.50           1345          15.00        50.13
  225.24        2958.75           1348          22.00        80.65
  225.26        2959.00           1352          20.00        71.93
  225.29        2959.25           1355          20.00        71.93
  225.32        2959.50           1358          20.00        71.93
  225.34        2959.75           1362          23.00        85.00
  225.37        2960.00           1365          21.00        76.29
  225.40        2960.25           1368          26.00        98.08
  225.43        2960.50           1372          26.00        98.08
  225.45        2960.75           1375          32.00       124.24
  225.48        2961.00           1378          98.00       411.95
  225.51        2961.25           1382         463.00      2003.16
  225.54        2961.50           1385        1123.00      4880.79
  225.56        2961.75           1388        2364.00     10292.85
  225.59        2962.00           1392        4645.00     20244.69
  225.62        2962.25           1395        6879.00     29996.85
  225.64        2962.50           1398        9353.00     40802.91
  225.67        2962.75           1402       12078.00     52712.88
  225.70        2963.00           1405       14646.00     63943.95
  225.73        2963.25           1408       17073.00     74564.85
  225.75        2963.50           1412       20377.00     89033.79
  225.78        2963.75           1415       22750.00     99432.94
  225.81        2964.00           1418       25209.00    110215.40
  225.84        2964.25           1422       28206.00    123365.70
  225.86        2964.50           1425       30640.00    134052.80
  225.89        2964.75           1428       32833.00    143687.20
  225.92        2965.00           1431       35446.00    155173.60
  225.95        2965.25           1435       38659.00    169307.70
  225.97        2965.50           1438       41196.00    180476.00
  226.00        2965.75           1441       43531.00    190761.20
  226.03        2966.00           1445       46518.00    203927.00
  226.05        2966.25           1448       48701.00    213555.20
  226.08        2966.50           1451       49997.00    219273.70
  226.11        2966.75           1455       51466.00    225757.80
  226.14        2967.00           1458       52071.00    228428.90
  226.16        2967.25           1461       52407.00    229912.60
  226.19        2967.50           1465       51879.00    227581.20
  226.22        2967.75           1468       51521.00    226000.60
  226.25        2968.00           1471       50811.00    222866.40
  226.27        2968.25           1475       48892.00    214397.90
  226.30        2968.50           1478       46880.00    205523.30
  226.33        2968.75           1481       44252.00    193938.30
  226.36        2969.00           1485       41245.00    180691.80
  226.38        2969.25           1488       38350.00    167947.90
  226.41        2969.50           1491       35892.00    157134.90
  226.44        2969.75           1495       32712.00    143155.50
  226.46        2970.00           1498       30071.00    131553.90
  226.49        2970.25           1501       27746.00    121346.70
  226.52        2970.50           1505       24354.00    106465.60
  226.55        2970.75           1508       22059.00     96404.16
  226.57        2971.00           1511       19635.00     85783.39
  226.60        2971.25           1515       16355.00     71422.11
  226.63        2971.50           1518       13990.00     61074.27
  226.66        2971.75           1521       11661.00     50889.82
  226.68        2972.00           1525        8376.00     36534.74
  226.71        2972.25           1528        5971.00     26032.48
  226.74        2972.50           1531        3925.00     17102.78
  226.76        2972.75           1535        1677.00      7296.61
  226.79        2973.00           1538         690.00      2992.84
  226.82        2973.25           1541         224.00       961.23
  226.85        2973.50           1545          53.00       215.78
  226.87        2973.75           1548          39.00       154.75
  226.90        2974.00           1551          37.00       146.03
  226.93        2974.25           1555          24.00        89.36
  226.95        2974.50           1558          23.00        85.00
  226.98        2974.75           1561          21.00        76.29
  227.01        2975.00           1565          25.00        93.72
  227.04        2975.25           1568          23.00        85.00
  227.06        2975.50           1571          20.00        71.93
  227.09        2975.75           1575          22.00        80.65
  227.12        2976.00           1578          14.00        45.77
  227.14        2976.25           1581          18.00        63.21
  227.17        2976.50           1585          23.00        85.00
  227.20        2976.75           1588          21.00        76.29
  227.23        2977.00           1591          19.00        67.57
  227.25        2977.25           1595          24.00        89.36
  227.28        2977.50           1598          23.00        85.00
  227.31        2977.75           1601          22.00        80.65
  227.33        2978.00           1605          18.00        63.21
  227.36        2978.25           1608          17.00        58.85
  227.39        2978.50           1611          23.00        85.00
  227.42        2978.75           1615          15.00        50.13
  227.44        2979.00           1618          19.00        67.57
  227.47        2979.25           1621          16.00        54.49
  227.50        2979.50           1625          20.00        71.93
  227.53        2979.75           1628          24.00        89.36
  227.55        2980.00           1631          22.00        80.65
  227.58        2980.25           1635          20.00        71.93
  227.61        2980.50           1638          17.00        58.85
  227.63        2980.75           1641          21.00        76.29
  227.66        2981.00           1645          23.00        85.00
  227.69        2981.25           1648          20.00        71.93
  227.72        2981.50           1651          16.00        54.49
  227.74        2981.75           1655          17.00        58.85
  227.77        2982.00           1658          15.00        50.13
  227.80        2982.25           1661          19.00        67.57
  227.82        2982.50           1665          15.00        50.13
  227.85        2982.75           1668          19.00        67.57
  227.88        2983.00           1671          21.00        76.29
  227.91        2983.25           1675          17.00        58.85
  227.93        2983.50           1678          15.00        50.13
  227.96        2983.75           1681          18.00        63.21
  227.99        2984.00           1685          21.00        76.29
HS scan finished at 03:48:10
end
