************************************************************
  HS Scan of (1) Internal mercury lamp
************************************************************
Integration time is 0.2294 seconds per sample
dh080419Tamanrasset 22.79-5.529 4.974364pr865
************************************************************
Dead Time -------------------------  2.8E-08 
Number of Cycles Used -------------  4 
Starting Wavelength (Angstroms) ---  2950 
Final Wavelength (Angstoms) -------  2984 
Wavelength Increment (Angstroms) --  .25 
Filter Wheel #1 Position ---------- (1) Ground quartz diffuser (ND=2.32)
Filter Wheel #2 Position ---------- (1) Neutral Density 0.494



************************************************************
HS scan start time = 03:36:54
Dark Count =  2.8 


Time (GMT)  Wavelength (Ang)  Step Number  Raw Counts  Counts/Second

  217.26        2950.00           1233          16.00        57.54
  217.33        2950.25           1236          20.00        74.98
  217.35        2950.50           1239          20.00        74.98
  217.38        2950.75           1242          21.00        79.34
  217.41        2951.00           1246          24.00        92.42
  217.44        2951.25           1249          19.00        70.62
  217.46        2951.50           1252          17.00        61.90
  217.49        2951.75           1256          19.00        70.62
  217.52        2952.00           1259          20.00        74.98
  217.55        2952.25           1262          17.00        61.90
  217.57        2952.50           1266          17.00        61.90
  217.60        2952.75           1269          21.00        79.34
  217.63        2953.00           1272          15.00        53.18
  217.65        2953.25           1276          18.00        66.26
  217.68        2953.50           1279          21.00        79.34
  217.71        2953.75           1282          20.00        74.98
  217.74        2954.00           1286          22.00        83.70
  217.76        2954.25           1289          16.00        57.54
  217.79        2954.50           1292          13.00        44.46
  217.82        2954.75           1295          17.00        61.90
  217.84        2955.00           1299          19.00        70.62
  217.87        2955.25           1302          13.00        44.46
  217.90        2955.50           1305          16.00        57.54
  217.93        2955.75           1309          13.00        44.46
  217.95        2956.00           1312          21.00        79.34
  217.98        2956.25           1315          18.00        66.26
  218.01        2956.50           1319          18.00        66.26
  218.03        2956.75           1322          17.00        61.90
  218.06        2957.00           1325          15.00        53.18
  218.09        2957.25           1329          19.00        70.62
  218.12        2957.50           1332          24.00        92.42
  218.14        2957.75           1335          18.00        66.26
  218.17        2958.00           1339          21.00        79.34
  218.20        2958.25           1342          15.00        53.18
  218.22        2958.50           1345          22.00        83.70
  218.25        2958.75           1348          19.00        70.62
  218.28        2959.00           1352          18.00        66.26
  218.31        2959.25           1355          22.00        83.70
  218.33        2959.50           1358          21.00        79.34
  218.36        2959.75           1362          20.00        74.98
  218.39        2960.00           1365          19.00        70.62
  218.41        2960.25           1368          19.00        70.62
  218.44        2960.50           1372          27.00       105.49
  218.47        2960.75           1375          33.00       131.65
  218.50        2961.00           1378          59.00       244.99
  218.52        2961.25           1382         306.00      1321.76
  218.55        2961.50           1385         773.00      3357.77
  218.58        2961.75           1388        1687.00      7343.27
  218.60        2962.00           1392        3618.00     15766.33
  218.63        2962.25           1395        5601.00     24420.36
  218.66        2962.50           1398        7511.00     32759.77
  218.69        2962.75           1402       10008.00     43668.01
  218.71        2963.00           1405       12100.00     52812.13
  218.74        2963.25           1408       14052.00     61348.54
  218.77        2963.50           1412       16556.00     72304.91
  218.80        2963.75           1415       18758.00     81945.44
  218.82        2964.00           1418       20730.00     90583.42
  218.85        2964.25           1422       23110.00    101014.20
  218.88        2964.50           1425       25299.00    110613.20
  218.91        2964.75           1428       27411.00    119879.50
  218.93        2965.00           1431       29281.00    128088.00
  218.96        2965.25           1435       32052.00    140258.60
  218.99        2965.50           1438       34216.00    149768.90
  219.01        2965.75           1441       36204.00    158510.20
  219.04        2966.00           1445       39276.00    172026.30
  219.07        2966.25           1448       40850.00    178955.50
  219.10        2966.50           1451       42246.00    185103.40
  219.12        2966.75           1455       43362.00    190019.70
  219.15        2967.00           1458       44165.00    193557.90
  219.18        2967.25           1461       44060.00    193095.20
  219.21        2967.50           1465       44103.00    193284.70
  219.23        2967.75           1468       43925.00    192500.40
  219.26        2968.00           1471       42995.00    188402.80
  219.29        2968.25           1475       41453.00    181610.80
  219.32        2968.50           1478       40067.00    175508.20
  219.34        2968.75           1481       37913.00    166028.10
  219.37        2969.00           1485       35123.00    153756.40
  219.40        2969.25           1488       32840.00    143721.10
  219.42        2969.50           1491       30799.00    134754.20
  219.45        2969.75           1495       28137.00    123065.90
  219.48        2970.00           1498       25930.00    113381.20
  219.51        2970.25           1501       23839.00    104210.30
  219.53        2970.50           1505       21019.00     91849.69
  219.56        2970.75           1508       18856.00     82374.61
  219.59        2971.00           1511       16799.00     73368.53
  219.62        2971.25           1515       14358.00     62687.10
  219.64        2971.50           1518       12151.00     53035.11
  219.67        2971.75           1521       10159.00     44327.87
  219.70        2972.00           1525        7485.00     32646.22
  219.72        2972.25           1528        5497.00     23966.38
  219.75        2972.50           1531        3736.00     16281.18
  219.78        2972.75           1535        1741.00      7578.77
  219.81        2973.00           1538         760.00      3301.09
  219.83        2973.25           1541         245.00      1055.83
  219.86        2973.50           1545          58.00       240.63
  219.89        2973.75           1548          35.00       140.37
  219.92        2974.00           1551          26.00       101.13
  219.94        2974.25           1555          24.00        92.42
  219.97        2974.50           1558          20.00        74.98
  220.00        2974.75           1561          19.00        70.62
  220.02        2975.00           1565          22.00        83.70
  220.05        2975.25           1568          25.00        96.77
  220.08        2975.50           1571          20.00        74.98
  220.11        2975.75           1575          17.00        61.90
  220.13        2976.00           1578          16.00        57.54
  220.16        2976.25           1581          23.00        88.06
  220.19        2976.50           1585          17.00        61.90
  220.21        2976.75           1588          21.00        79.34
  220.24        2977.00           1591          23.00        88.06
  220.27        2977.25           1595          19.00        70.62
  220.30        2977.50           1598          21.00        79.34
  220.32        2977.75           1601          20.00        74.98
  220.35        2978.00           1605          23.00        88.06
  220.38        2978.25           1608          21.00        79.34
  220.40        2978.50           1611          17.00        61.90
  220.43        2978.75           1615          17.00        61.90
  220.46        2979.00           1618          20.00        74.98
  220.49        2979.25           1621          17.00        61.90
  220.51        2979.50           1625          17.00        61.90
  220.54        2979.75           1628          16.00        57.54
  220.57        2980.00           1631          20.00        74.98
  220.59        2980.25           1635          22.00        83.70
  220.62        2980.50           1638          19.00        70.62
  220.65        2980.75           1641          20.00        74.98
  220.68        2981.00           1645          18.00        66.26
  220.70        2981.25           1648          22.00        83.70
  220.73        2981.50           1651          15.00        53.18
  220.76        2981.75           1655          18.00        66.26
  220.79        2982.00           1658          18.00        66.26
  220.81        2982.25           1661          18.00        66.26
  220.84        2982.50           1665          18.00        66.26
  220.87        2982.75           1668          20.00        74.98
  220.89        2983.00           1671          19.00        70.62
  220.92        2983.25           1675          20.00        74.98
  220.95        2983.50           1678          19.00        70.62
  220.98        2983.75           1681          16.00        57.54
  221.00        2984.00           1685          21.00        79.34
HS scan finished at 03:41:11
end
