************************************************************
  HS Scan of (1) Internal mercury lamp
************************************************************
Integration time is 0.2294 seconds per sample
dh160419Tamanrasset 22.79-5.529 4.974364pr865
************************************************************
Dead Time -------------------------  2.8E-08 
Number of Cycles Used -------------  4 
Starting Wavelength (Angstroms) ---  2950 
Final Wavelength (Angstoms) -------  2984 
Wavelength Increment (Angstroms) --  .25 
Filter Wheel #1 Position ---------- (1) Ground quartz diffuser (ND=2.32)
Filter Wheel #2 Position ---------- (1) Neutral Density 0.494



************************************************************
HS scan start time = 03:29:40
Dark Count =  4.2 


Time (GMT)  Wavelength (Ang)  Step Number  Raw Counts  Counts/Second

  210.02        2950.00           1233          21.00        73.23
  210.08        2950.25           1236          21.00        73.23
  210.11        2950.50           1239          13.00        38.36
  210.14        2950.75           1242          20.00        68.88
  210.17        2951.00           1246          21.00        73.23
  210.19        2951.25           1249          18.00        60.16
  210.22        2951.50           1252          17.00        55.80
  210.25        2951.75           1256          21.00        73.23
  210.28        2952.00           1259          17.00        55.80
  210.30        2952.25           1262          25.00        90.67
  210.33        2952.50           1266          17.00        55.80
  210.36        2952.75           1269          18.00        60.16
  210.39        2953.00           1272          16.00        51.44
  210.41        2953.25           1276          23.00        81.95
  210.44        2953.50           1279          21.00        73.23
  210.47        2953.75           1282          20.00        68.88
  210.49        2954.00           1286          17.00        55.80
  210.52        2954.25           1289          21.00        73.23
  210.55        2954.50           1292          19.00        64.52
  210.58        2954.75           1295          17.00        55.80
  210.60        2955.00           1299          18.00        60.16
  210.63        2955.25           1302          18.00        60.16
  210.66        2955.50           1305          19.00        64.52
  210.68        2955.75           1309          20.00        68.88
  210.71        2956.00           1312          18.00        60.16
  210.74        2956.25           1315          20.00        68.88
  210.77        2956.50           1319          20.00        68.88
  210.79        2956.75           1322          15.00        47.08
  210.82        2957.00           1325          22.00        77.59
  210.85        2957.25           1329          22.00        77.59
  210.88        2957.50           1332          20.00        68.88
  210.90        2957.75           1335          17.00        55.80
  210.93        2958.00           1339          19.00        64.52
  210.96        2958.25           1342          17.00        55.80
  210.99        2958.50           1345          23.00        81.95
  211.01        2958.75           1348          22.00        77.59
  211.04        2959.00           1352          20.00        68.88
  211.07        2959.25           1355          22.00        77.59
  211.09        2959.50           1358          21.00        73.23
  211.12        2959.75           1362          25.00        90.67
  211.15        2960.00           1365          21.00        73.23
  211.18        2960.25           1368          24.00        86.31
  211.20        2960.50           1372          29.00       108.11
  211.23        2960.75           1375          28.00       103.75
  211.26        2961.00           1378          63.00       256.32
  211.29        2961.25           1382         343.00      1476.96
  211.31        2961.50           1385         833.00      3613.27
  211.34        2961.75           1388        1786.00      7768.91
  211.37        2962.00           1392        3629.00     15808.22
  211.39        2962.25           1395        5453.00     23768.21
  211.42        2962.50           1398        7470.00     32574.60
  211.45        2962.75           1402       10023.00     43727.44
  211.48        2963.00           1405       12137.00     52967.78
  211.50        2963.25           1408       14106.00     61578.62
  211.53        2963.50           1412       16693.00     72898.44
  211.56        2963.75           1415       18777.00     82022.53
  211.59        2964.00           1418       20721.00     90537.88
  211.61        2964.25           1422       23450.00    102498.60
  211.64        2964.50           1425       25378.00    110953.60
  211.67        2964.75           1428       27550.00    120483.40
  211.70        2965.00           1431       29702.00    129930.40
  211.72        2965.25           1435       32253.00    141135.60
  211.75        2965.50           1438       34451.00    150795.80
  211.78        2965.75           1441       36423.00    159467.20
  211.81        2966.00           1445       39191.00    171646.00
  211.83        2966.25           1448       40826.00    178843.60
  211.86        2966.50           1451       42379.00    185683.00
  211.89        2966.75           1455       43389.00    190132.50
  211.92        2967.00           1458       43832.00    192084.40
  211.94        2967.25           1461       44122.00    193362.30
  211.97        2967.50           1465       43952.00    192613.20
  212.00        2967.75           1468       43404.00    190198.60
  212.03        2968.00           1471       43051.00    188643.30
  212.05        2968.25           1475       41197.00    180477.30
  212.08        2968.50           1478       39566.00    173296.60
  212.11        2968.75           1481       37337.00    163487.80
  212.14        2969.00           1485       34784.00    152259.80
  212.16        2969.25           1488       32641.00    142840.40
  212.19        2969.50           1491       30609.00    133913.60
  212.22        2969.75           1495       27766.00    121431.40
  212.25        2970.00           1498       25494.00    111462.40
  212.27        2970.25           1501       23354.00    102077.70
  212.30        2970.50           1505       20450.00     89350.56
  212.33        2970.75           1508       18474.00     80695.65
  212.36        2971.00           1511       16465.00     71900.50
  212.38        2971.25           1515       13928.00     60800.02
  212.41        2971.50           1518       11686.00     50996.05
  212.44        2971.75           1521        9732.00     42455.85
  212.47        2972.00           1525        7210.00     31439.17
  212.49        2972.25           1528        5259.00     22921.42
  212.52        2972.50           1531        3350.00     14590.97
  212.55        2972.75           1535        1486.00      6460.63
  212.57        2973.00           1538         601.00      2601.76
  212.60        2973.25           1541         168.00       714.05
  212.63        2973.50           1545          50.00       199.65
  212.66        2973.75           1548          35.00       134.26
  212.68        2974.00           1551          31.00       116.83
  212.71        2974.25           1555          23.00        81.95
  212.74        2974.50           1558          25.00        90.67
  212.77        2974.75           1561          20.00        68.88
  212.79        2975.00           1565          22.00        77.59
  212.82        2975.25           1568          20.00        68.88
  212.85        2975.50           1571          25.00        90.67
  212.88        2975.75           1575          19.00        64.52
  212.90        2976.00           1578          21.00        73.23
  212.93        2976.25           1581          21.00        73.23
  212.96        2976.50           1585          19.00        64.52
  212.98        2976.75           1588          19.00        64.52
  213.01        2977.00           1591          21.00        73.23
  213.04        2977.25           1595          14.00        42.72
  213.07        2977.50           1598          21.00        73.23
  213.09        2977.75           1601          21.00        73.23
  213.12        2978.00           1605          17.00        55.80
  213.15        2978.25           1608          19.00        64.52
  213.18        2978.50           1611          22.00        77.59
  213.20        2978.75           1615          28.00       103.75
  213.23        2979.00           1618          20.00        68.88
  213.26        2979.25           1621          23.00        81.95
  213.29        2979.50           1625          18.00        60.16
  213.31        2979.75           1628          18.00        60.16
  213.34        2980.00           1631          17.00        55.80
  213.37        2980.25           1635          18.00        60.16
  213.40        2980.50           1638          21.00        73.23
  213.42        2980.75           1641          20.00        68.88
  213.45        2981.00           1645          20.00        68.88
  213.48        2981.25           1648          18.00        60.16
  213.50        2981.50           1651          16.00        51.44
  213.53        2981.75           1655          22.00        77.59
  213.56        2982.00           1658          22.00        77.59
  213.59        2982.25           1661          19.00        64.52
  213.61        2982.50           1665          17.00        55.80
  213.64        2982.75           1668          18.00        60.16
  213.67        2983.00           1671          22.00        77.59
  213.70        2983.25           1675          17.00        55.80
  213.72        2983.50           1678          20.00        68.88
  213.75        2983.75           1681          18.00        60.16
  213.78        2984.00           1685          17.00        55.80
HS scan finished at 03:33:58
end
