************************************************************
  HS Scan of (1) Internal mercury lamp
************************************************************
Integration time is 0.2294 seconds per sample
dh140419Tamanrasset 22.79-5.529 4.974364pr865
************************************************************
Dead Time -------------------------  2.8E-08 
Number of Cycles Used -------------  4 
Starting Wavelength (Angstroms) ---  2950 
Final Wavelength (Angstoms) -------  2984 
Wavelength Increment (Angstroms) --  .25 
Filter Wheel #1 Position ---------- (1) Ground quartz diffuser (ND=2.32)
Filter Wheel #2 Position ---------- (1) Neutral Density 0.494



************************************************************
HS scan start time = 03:30:56
Dark Count =  4.5 


Time (GMT)  Wavelength (Ang)  Step Number  Raw Counts  Counts/Second

  211.30        2950.00           1233          23.00        80.65
  211.36        2950.25           1236          21.00        71.93
  211.39        2950.50           1239          18.00        58.85
  211.42        2950.75           1242          19.00        63.21
  211.45        2951.00           1246          17.00        54.49
  211.47        2951.25           1249          18.00        58.85
  211.50        2951.50           1252          22.00        76.29
  211.53        2951.75           1256          24.00        85.00
  211.56        2952.00           1259          19.00        63.21
  211.58        2952.25           1262          17.00        54.49
  211.61        2952.50           1266          24.00        85.00
  211.64        2952.75           1269          18.00        58.85
  211.66        2953.00           1272          16.00        50.13
  211.69        2953.25           1276          18.00        58.85
  211.72        2953.50           1279          16.00        50.13
  211.75        2953.75           1282          15.00        45.77
  211.77        2954.00           1286          15.00        45.77
  211.80        2954.25           1289          15.00        45.77
  211.83        2954.50           1292          18.00        58.85
  211.85        2954.75           1295          24.00        85.00
  211.88        2955.00           1299          19.00        63.21
  211.91        2955.25           1302          18.00        58.85
  211.94        2955.50           1305          17.00        54.49
  211.96        2955.75           1309          19.00        63.21
  211.99        2956.00           1312          18.00        58.85
  212.02        2956.25           1315          17.00        54.49
  212.05        2956.50           1319          15.00        45.77
  212.07        2956.75           1322          20.00        67.57
  212.10        2957.00           1325          16.00        50.13
  212.13        2957.25           1329          19.00        63.21
  212.16        2957.50           1332          17.00        54.49
  212.18        2957.75           1335          17.00        54.49
  212.21        2958.00           1339          25.00        89.36
  212.24        2958.25           1342          19.00        63.21
  212.27        2958.50           1345          25.00        89.36
  212.29        2958.75           1348          20.00        67.57
  212.32        2959.00           1352          22.00        76.29
  212.35        2959.25           1355          18.00        58.85
  212.37        2959.50           1358          22.00        76.29
  212.40        2959.75           1362          17.00        54.49
  212.43        2960.00           1365          21.00        71.93
  212.46        2960.25           1368          30.00       111.16
  212.48        2960.50           1372          29.00       106.80
  212.51        2960.75           1375          39.00       150.39
  212.54        2961.00           1378          88.00       364.00
  212.57        2961.25           1382         449.00      1937.77
  212.59        2961.50           1385        1103.00      4789.22
  212.62        2961.75           1388        2180.00      9485.95
  212.65        2962.00           1392        4486.00     19546.44
  212.68        2962.25           1395        6445.00     28097.51
  212.70        2962.50           1398        8667.00     37801.55
  212.73        2962.75           1402       11464.00     50024.25
  212.76        2963.00           1405       13759.00     60059.51
  212.78        2963.25           1408       15915.00     69492.11
  212.81        2963.50           1412       18582.00     81167.25
  212.84        2963.75           1415       20582.00     89927.55
  212.87        2964.00           1418       22966.00    100375.40
  212.89        2964.25           1422       25635.00    112079.60
  212.92        2964.50           1425       27736.00    121298.40
  212.95        2964.75           1428       30245.00    132313.60
  212.98        2965.00           1431       32488.00    142166.80
  213.00        2965.25           1435       35381.00    154883.40
  213.03        2965.50           1438       37483.00    164128.70
  213.06        2965.75           1441       39960.00    175029.60
  213.09        2966.00           1445       42563.00    186492.20
  213.11        2966.25           1448       44359.00    194405.40
  213.14        2966.50           1451       45732.00    200457.20
  213.17        2966.75           1455       46673.00    204606.10
  213.20        2967.00           1458       46788.00    205113.20
  213.22        2967.25           1461       46984.00    205977.50
  213.25        2967.50           1465       46831.00    205302.80
  213.28        2967.75           1468       46170.00    202388.20
  213.31        2968.00           1471       45200.00    198112.10
  213.33        2968.25           1475       43010.00    188461.40
  213.36        2968.50           1478       41004.00    179626.10
  213.39        2968.75           1481       38921.00    170456.40
  213.42        2969.00           1485       35860.00    156989.80
  213.44        2969.25           1488       33855.00    148174.50
  213.47        2969.50           1491       31413.00    137443.80
  213.50        2969.75           1495       28398.00    124204.10
  213.53        2970.00           1498       26261.00    114825.90
  213.55        2970.25           1501       23832.00    104172.20
  213.58        2970.50           1505       21079.00     92105.16
  213.61        2970.75           1508       18936.00     82717.52
  213.63        2971.00           1511       16754.00     73164.12
  213.66        2971.25           1515       13852.00     60466.28
  213.69        2971.50           1518       11685.00     50990.36
  213.72        2971.75           1521        9632.00     42017.59
  213.75        2972.00           1525        6772.00     29525.27
  213.77        2972.25           1528        4679.00     20388.71
  213.80        2972.50           1531        2912.00     12678.87
  213.83        2972.75           1535        1123.00      4876.43
  213.86        2973.00           1538         420.00      1811.34
  213.88        2973.25           1541         133.00       560.17
  213.91        2973.50           1545          43.00       167.83
  213.94        2973.75           1548          31.00       115.52
  213.96        2974.00           1551          30.00       111.16
  213.99        2974.25           1555          27.00        98.08
  214.02        2974.50           1558          21.00        71.93
  214.05        2974.75           1561          22.00        76.29
  214.07        2975.00           1565          20.00        67.57
  214.10        2975.25           1568          22.00        76.29
  214.13        2975.50           1571          19.00        63.21
  214.15        2975.75           1575          21.00        71.93
  214.18        2976.00           1578          22.00        76.29
  214.21        2976.25           1581          24.00        85.00
  214.24        2976.50           1585          18.00        58.85
  214.26        2976.75           1588          25.00        89.36
  214.29        2977.00           1591          17.00        54.49
  214.32        2977.25           1595          20.00        67.57
  214.35        2977.50           1598          19.00        63.21
  214.37        2977.75           1601          20.00        67.57
  214.40        2978.00           1605          20.00        67.57
  214.43        2978.25           1608          18.00        58.85
  214.46        2978.50           1611          21.00        71.93
  214.48        2978.75           1615          21.00        71.93
  214.51        2979.00           1618          22.00        76.29
  214.54        2979.25           1621          18.00        58.85
  214.57        2979.50           1625          21.00        71.93
  214.59        2979.75           1628          16.00        50.13
  214.62        2980.00           1631          23.00        80.65
  214.65        2980.25           1635          18.00        58.85
  214.67        2980.50           1638          23.00        80.65
  214.70        2980.75           1641          22.00        76.29
  214.73        2981.00           1645          19.00        63.21
  214.76        2981.25           1648          20.00        67.57
  214.78        2981.50           1651          17.00        54.49
  214.81        2981.75           1655          21.00        71.93
  214.84        2982.00           1658          22.00        76.29
  214.86        2982.25           1661          17.00        54.49
  214.89        2982.50           1665          18.00        58.85
  214.92        2982.75           1668          19.00        63.21
  214.95        2983.00           1671          19.00        63.21
  214.97        2983.25           1675          19.00        63.21
  215.00        2983.50           1678          17.00        54.49
  215.03        2983.75           1681          19.00        63.21
  215.06        2984.00           1685          18.00        58.85
HS scan finished at 03:35:15
end
