************************************************************
  HS Scan of (1) Internal mercury lamp
************************************************************
Integration time is 0.2294 seconds per sample
dh130419Tamanrasset 22.79-5.529 4.974364pr865
************************************************************
Dead Time -------------------------  2.8E-08 
Number of Cycles Used -------------  4 
Starting Wavelength (Angstroms) ---  2950 
Final Wavelength (Angstoms) -------  2984 
Wavelength Increment (Angstroms) --  .25 
Filter Wheel #1 Position ---------- (1) Ground quartz diffuser (ND=2.32)
Filter Wheel #2 Position ---------- (1) Neutral Density 0.494



************************************************************
HS scan start time = 03:32:22
Dark Count =  4 


Time (GMT)  Wavelength (Ang)  Step Number  Raw Counts  Counts/Second

  212.72        2950.00           1233          21.00        74.11
  212.78        2950.25           1236          19.00        65.39
  212.81        2950.50           1239          16.00        52.31
  212.83        2950.75           1242          21.00        74.11
  212.86        2951.00           1246          25.00        91.54
  212.89        2951.25           1249          19.00        65.39
  212.92        2951.50           1252          19.00        65.39
  212.94        2951.75           1256          19.00        65.39
  212.97        2952.00           1259          21.00        74.11
  213.00        2952.25           1262          13.00        39.23
  213.02        2952.50           1266          19.00        65.39
  213.05        2952.75           1269          20.00        69.75
  213.08        2953.00           1272          23.00        82.82
  213.11        2953.25           1276          19.00        65.39
  213.13        2953.50           1279          24.00        87.18
  213.16        2953.75           1282          19.00        65.39
  213.19        2954.00           1286          20.00        69.75
  213.21        2954.25           1289          22.00        78.47
  213.24        2954.50           1292          15.00        47.95
  213.27        2954.75           1295          19.00        65.39
  213.30        2955.00           1299          19.00        65.39
  213.32        2955.25           1302          17.00        56.67
  213.35        2955.50           1305          18.00        61.03
  213.38        2955.75           1309          19.00        65.39
  213.41        2956.00           1312          21.00        74.11
  213.43        2956.25           1315          20.00        69.75
  213.46        2956.50           1319          19.00        65.39
  213.49        2956.75           1322          17.00        56.67
  213.51        2957.00           1325          19.00        65.39
  213.54        2957.25           1329          18.00        61.03
  213.57        2957.50           1332          20.00        69.75
  213.60        2957.75           1335          17.00        56.67
  213.62        2958.00           1339          20.00        69.75
  213.65        2958.25           1342          19.00        65.39
  213.68        2958.50           1345          16.00        52.31
  213.70        2958.75           1348          16.00        52.31
  213.73        2959.00           1352          21.00        74.11
  213.76        2959.25           1355          23.00        82.82
  213.79        2959.50           1358          18.00        61.03
  213.81        2959.75           1362          21.00        74.11
  213.84        2960.00           1365          18.00        61.03
  213.87        2960.25           1368          24.00        87.18
  213.89        2960.50           1372          31.00       117.70
  213.92        2960.75           1375          37.00       143.85
  213.95        2961.00           1378          64.00       261.55
  213.98        2961.25           1382         334.00      1438.59
  214.00        2961.50           1385         868.00      3766.74
  214.03        2961.75           1388        1894.00      8240.79
  214.06        2962.00           1392        3831.00     16690.45
  214.09        2962.25           1395        5673.00     24729.41
  214.11        2962.50           1398        7786.00     33955.54
  214.14        2962.75           1402       10466.00     45664.28
  214.17        2963.00           1405       12541.00     54735.09
  214.19        2963.25           1408       14786.00     64554.24
  214.22        2963.50           1412       17536.00     76589.53
  214.25        2963.75           1415       19437.00     84913.94
  214.28        2964.00           1418       21749.00     95043.36
  214.30        2964.25           1422       24539.00    107274.70
  214.33        2964.50           1425       26761.00    117021.90
  214.36        2964.75           1428       28872.00    126287.10
  214.39        2965.00           1431       31001.00    135636.20
  214.41        2965.25           1435       33517.00    146691.10
  214.44        2965.50           1438       36030.00    157739.60
  214.47        2965.75           1441       38184.00    167215.30
  214.50        2966.00           1445       40952.00    179399.40
  214.52        2966.25           1448       42974.00    188305.00
  214.55        2966.50           1451       44293.00    194116.70
  214.58        2966.75           1455       45556.00    199683.50
  214.60        2967.00           1458       46105.00    202103.90
  214.63        2967.25           1461       46042.00    201826.10
  214.66        2967.50           1465       46203.00    202535.90
  214.69        2967.75           1468       45712.00    200371.20
  214.71        2968.00           1471       44990.00    197188.60
  214.74        2968.25           1475       43222.00    189397.60
  214.77        2968.50           1478       41388.00    181319.30
  214.80        2968.75           1481       39325.00    172236.70
  214.82        2969.00           1485       36266.00    158777.60
  214.85        2969.25           1488       33914.00    148436.10
  214.88        2969.50           1491       31676.00    138601.40
  214.91        2969.75           1495       28719.00    125615.40
  214.93        2970.00           1498       26509.00    115916.20
  214.96        2970.25           1501       24351.00    106450.20
  214.99        2970.50           1505       21487.00     93895.18
  215.02        2970.75           1508       19171.00     83748.91
  215.04        2971.00           1511       17089.00     74632.70
  215.07        2971.25           1515       14257.00     62240.03
  215.10        2971.50           1518       12086.00     52745.67
  215.12        2971.75           1521        9989.00     43579.74
  215.15        2972.00           1525        7321.00     31924.78
  215.18        2972.25           1528        5135.00     22381.07
  215.21        2972.50           1531        3295.00     14351.89
  215.23        2972.75           1535        1376.00      5981.82
  215.26        2973.00           1538         559.00      2419.52
  215.29        2973.25           1541         168.00       714.92
  215.32        2973.50           1545          42.00       165.65
  215.34        2973.75           1548          30.00       113.34
  215.37        2974.00           1551          29.00       108.98
  215.40        2974.25           1555          22.00        78.47
  215.42        2974.50           1558          23.00        82.82
  215.45        2974.75           1561          21.00        74.11
  215.48        2975.00           1565          22.00        78.47
  215.51        2975.25           1568          19.00        65.39
  215.53        2975.50           1571          25.00        91.54
  215.56        2975.75           1575          21.00        74.11
  215.59        2976.00           1578          19.00        65.39
  215.61        2976.25           1581          23.00        82.82
  215.64        2976.50           1585          25.00        91.54
  215.67        2976.75           1588          19.00        65.39
  215.70        2977.00           1591          17.00        56.67
  215.72        2977.25           1595          19.00        65.39
  215.75        2977.50           1598          20.00        69.75
  215.78        2977.75           1601          19.00        65.39
  215.80        2978.00           1605          20.00        69.75
  215.83        2978.25           1608          23.00        82.82
  215.86        2978.50           1611          24.00        87.18
  215.89        2978.75           1615          18.00        61.03
  215.91        2979.00           1618          19.00        65.39
  215.94        2979.25           1621          19.00        65.39
  215.97        2979.50           1625          19.00        65.39
  215.99        2979.75           1628          20.00        69.75
  216.02        2980.00           1631          18.00        61.03
  216.05        2980.25           1635          20.00        69.75
  216.08        2980.50           1638          19.00        65.39
  216.10        2980.75           1641          15.00        47.95
  216.13        2981.00           1645          17.00        56.67
  216.16        2981.25           1648          20.00        69.75
  216.18        2981.50           1651          20.00        69.75
  216.21        2981.75           1655          16.00        52.31
  216.24        2982.00           1658          24.00        87.18
  216.27        2982.25           1661          14.00        43.59
  216.29        2982.50           1665          18.00        61.03
  216.32        2982.75           1668          19.00        65.39
  216.35        2983.00           1671          17.00        56.67
  216.37        2983.25           1675          18.00        61.03
  216.40        2983.50           1678          21.00        74.11
  216.43        2983.75           1681          22.00        78.47
  216.46        2984.00           1685          17.00        56.67
HS scan finished at 03:36:39
end
