************************************************************
  HS Scan of (1) Internal mercury lamp
************************************************************
Integration time is 0.2294 seconds per sample
dh150419Tamanrasset 22.79-5.529 4.974364pr865
************************************************************
Dead Time -------------------------  2.8E-08 
Number of Cycles Used -------------  4 
Starting Wavelength (Angstroms) ---  2950 
Final Wavelength (Angstoms) -------  2984 
Wavelength Increment (Angstroms) --  .25 
Filter Wheel #1 Position ---------- (1) Ground quartz diffuser (ND=2.32)
Filter Wheel #2 Position ---------- (1) Neutral Density 0.494



************************************************************
HS scan start time = 03:30:25
Dark Count =  2.2 


Time (GMT)  Wavelength (Ang)  Step Number  Raw Counts  Counts/Second

  210.77        2950.00           1233          19.00        73.23
  210.83        2950.25           1236          16.00        60.16
  210.86        2950.50           1239          19.00        73.23
  210.89        2950.75           1242          22.00        86.31
  210.91        2951.00           1246          20.00        77.59
  210.94        2951.25           1249          22.00        86.31
  210.97        2951.50           1252          15.00        55.80
  210.99        2951.75           1256          17.00        64.52
  211.02        2952.00           1259          18.00        68.88
  211.05        2952.25           1262          15.00        55.80
  211.08        2952.50           1266          20.00        77.59
  211.10        2952.75           1269          19.00        73.23
  211.13        2953.00           1272          20.00        77.59
  211.16        2953.25           1276          16.00        60.16
  211.19        2953.50           1279          23.00        90.67
  211.21        2953.75           1282          23.00        90.67
  211.24        2954.00           1286          23.00        90.67
  211.27        2954.25           1289          21.00        81.95
  211.29        2954.50           1292          16.00        60.16
  211.32        2954.75           1295          19.00        73.23
  211.35        2955.00           1299          19.00        73.23
  211.38        2955.25           1302          21.00        81.95
  211.40        2955.50           1305          17.00        64.52
  211.43        2955.75           1309          20.00        77.59
  211.46        2956.00           1312          23.00        90.67
  211.49        2956.25           1315          20.00        77.59
  211.51        2956.50           1319          19.00        73.23
  211.54        2956.75           1322          20.00        77.59
  211.57        2957.00           1325          16.00        60.16
  211.60        2957.25           1329          19.00        73.23
  211.62        2957.50           1332          19.00        73.23
  211.65        2957.75           1335          24.00        95.03
  211.68        2958.00           1339          20.00        77.59
  211.70        2958.25           1342          19.00        73.23
  211.73        2958.50           1345          20.00        77.59
  211.76        2958.75           1348          20.00        77.59
  211.79        2959.00           1352          17.00        64.52
  211.81        2959.25           1355          17.00        64.52
  211.84        2959.50           1358          18.00        68.88
  211.87        2959.75           1362          22.00        86.31
  211.90        2960.00           1365          25.00        99.39
  211.92        2960.25           1368          31.00       125.55
  211.95        2960.50           1372          31.00       125.55
  211.98        2960.75           1375          30.00       121.19
  212.01        2961.00           1378          68.00       286.84
  212.03        2961.25           1382         366.00      1585.95
  212.06        2961.50           1385         872.00      3792.03
  212.09        2961.75           1388        1951.00      8497.23
  212.11        2962.00           1392        4085.00     17806.61
  212.14        2962.25           1395        5990.00     26121.11
  212.17        2962.50           1398        8199.00     35767.27
  212.20        2962.75           1402       10741.00     46874.04
  212.22        2963.00           1405       12795.00     55853.63
  212.25        2963.25           1408       15024.00     65603.40
  212.28        2963.50           1412       17440.00     76177.15
  212.31        2963.75           1415       19508.00     85232.81
  212.33        2964.00           1418       21536.00     94117.81
  212.36        2964.25           1422       24399.00    106668.60
  212.39        2964.50           1425       26356.00    115252.80
  212.42        2964.75           1428       28688.00    125487.20
  212.44        2965.00           1431       30751.00    134546.00
  212.47        2965.25           1435       33499.00    146619.90
  212.50        2965.50           1438       35700.00    156296.30
  212.53        2965.75           1441       37674.00    164979.20
  212.55        2966.00           1445       40566.00    177707.70
  212.58        2966.25           1448       42307.00    185374.70
  212.61        2966.50           1451       43536.00    190789.00
  212.64        2966.75           1455       44756.00    196165.20
  212.66        2967.00           1458       45240.00    198298.50
  212.69        2967.25           1461       45238.00    198289.70
  212.72        2967.50           1465       45074.00    197566.80
  212.75        2967.75           1468       44485.00    194970.80
  212.77        2968.00           1471       44082.00    193194.90
  212.80        2968.25           1475       42115.00    184529.00
  212.83        2968.50           1478       40417.00    177051.70
  212.86        2968.75           1481       38302.00    167742.40
  212.88        2969.00           1485       35471.00    155289.30
  212.91        2969.25           1488       33249.00    145521.10
  212.94        2969.50           1491       31117.00    136153.70
  212.96        2969.75           1495       28225.00    123454.80
  212.99        2970.00           1498       26210.00    114612.20
  213.02        2970.25           1501       23889.00    104432.20
  213.05        2970.50           1505       21210.00     92689.24
  213.07        2970.75           1508       18956.00     82815.18
  213.10        2971.00           1511       16917.00     73887.68
  213.13        2971.25           1515       14107.00     61591.74
  213.16        2971.50           1518       11869.00     51804.82
  213.18        2971.75           1521        9961.00     43465.24
  213.21        2972.00           1525        7284.00     31771.06
  213.24        2972.25           1528        5309.00     23148.39
  213.27        2972.50           1531        3369.00     14682.58
  213.29        2972.75           1535        1423.00      6194.62
  213.32        2973.00           1538         592.00      2571.24
  213.35        2973.25           1541         195.00       840.47
  213.38        2973.50           1545          53.00       221.45
  213.40        2973.75           1548          32.00       129.90
  213.43        2974.00           1551          30.00       121.19
  213.46        2974.25           1555          25.00        99.39
  213.49        2974.50           1558          24.00        95.03
  213.51        2974.75           1561          18.00        68.88
  213.54        2975.00           1565          19.00        73.23
  213.57        2975.25           1568          23.00        90.67
  213.60        2975.50           1571          18.00        68.88
  213.62        2975.75           1575          19.00        73.23
  213.65        2976.00           1578          19.00        73.23
  213.68        2976.25           1581          19.00        73.23
  213.70        2976.50           1585          24.00        95.03
  213.73        2976.75           1588          21.00        81.95
  213.76        2977.00           1591          17.00        64.52
  213.79        2977.25           1595          19.00        73.23
  213.81        2977.50           1598          19.00        73.23
  213.84        2977.75           1601          23.00        90.67
  213.87        2978.00           1605          17.00        64.52
  213.89        2978.25           1608          20.00        77.59
  213.92        2978.50           1611          23.00        90.67
  213.95        2978.75           1615          18.00        68.88
  213.98        2979.00           1618          21.00        81.95
  214.00        2979.25           1621          16.00        60.16
  214.03        2979.50           1625          20.00        77.59
  214.06        2979.75           1628          20.00        77.59
  214.09        2980.00           1631          21.00        81.95
  214.11        2980.25           1635          23.00        90.67
  214.14        2980.50           1638          21.00        81.95
  214.17        2980.75           1641          20.00        77.59
  214.20        2981.00           1645          19.00        73.23
  214.22        2981.25           1648          18.00        68.88
  214.25        2981.50           1651          15.00        55.80
  214.28        2981.75           1655          20.00        77.59
  214.30        2982.00           1658          18.00        68.88
  214.33        2982.25           1661          16.00        60.16
  214.36        2982.50           1665          26.00       103.75
  214.39        2982.75           1668          18.00        68.88
  214.41        2983.00           1671          19.00        73.23
  214.44        2983.25           1675          23.00        90.67
  214.47        2983.50           1678          20.00        77.59
  214.50        2983.75           1681          19.00        73.23
  214.52        2984.00           1685          19.00        73.23
HS scan finished at 03:34:43
end
