************************************************************
  HS Scan of (1) Internal mercury lamp
************************************************************
Integration time is 0.2294 seconds per sample
dh110419Tamanrasset 22.79-5.529 4.974364pr865
************************************************************
Dead Time -------------------------  2.8E-08 
Number of Cycles Used -------------  4 
Starting Wavelength (Angstroms) ---  2950 
Final Wavelength (Angstoms) -------  2984 
Wavelength Increment (Angstroms) --  .25 
Filter Wheel #1 Position ---------- (1) Ground quartz diffuser (ND=2.32)
Filter Wheel #2 Position ---------- (1) Neutral Density 0.494



************************************************************
HS scan start time = 03:34:24
Dark Count =  3.6 


Time (GMT)  Wavelength (Ang)  Step Number  Raw Counts  Counts/Second

  214.75        2950.00           1233          20.00        71.49
  214.81        2950.25           1236          20.00        71.49
  214.84        2950.50           1239          19.00        67.13
  214.87        2950.75           1242          17.00        58.41
  214.90        2951.00           1246          18.00        62.77
  214.92        2951.25           1249          21.00        75.85
  214.95        2951.50           1252          19.00        67.13
  214.98        2951.75           1256          22.00        80.21
  215.01        2952.00           1259          20.00        71.49
  215.03        2952.25           1262          22.00        80.21
  215.06        2952.50           1266          16.00        54.05
  215.09        2952.75           1269          16.00        54.05
  215.11        2953.00           1272          18.00        62.77
  215.14        2953.25           1276          23.00        84.57
  215.17        2953.50           1279          20.00        71.49
  215.20        2953.75           1282          17.00        58.41
  215.22        2954.00           1286          21.00        75.85
  215.25        2954.25           1289          21.00        75.85
  215.28        2954.50           1292          20.00        71.49
  215.30        2954.75           1295          19.00        67.13
  215.33        2955.00           1299          21.00        75.85
  215.36        2955.25           1302          18.00        62.77
  215.39        2955.50           1305          15.00        49.69
  215.41        2955.75           1309          17.00        58.41
  215.44        2956.00           1312          17.00        58.41
  215.47        2956.25           1315          18.00        62.77
  215.49        2956.50           1319          18.00        62.77
  215.52        2956.75           1322          20.00        71.49
  215.55        2957.00           1325          20.00        71.49
  215.58        2957.25           1329          22.00        80.21
  215.60        2957.50           1332          20.00        71.49
  215.63        2957.75           1335          23.00        84.57
  215.66        2958.00           1339          19.00        67.13
  215.68        2958.25           1342          21.00        75.85
  215.71        2958.50           1345          15.00        49.69
  215.74        2958.75           1348          18.00        62.77
  215.77        2959.00           1352          22.00        80.21
  215.79        2959.25           1355          18.00        62.77
  215.82        2959.50           1358          19.00        67.13
  215.85        2959.75           1362          21.00        75.85
  215.87        2960.00           1365          19.00        67.13
  215.90        2960.25           1368          22.00        80.21
  215.93        2960.50           1372          29.00       110.72
  215.96        2960.75           1375          37.00       145.60
  215.98        2961.00           1378          68.00       280.73
  216.01        2961.25           1382         346.00      1492.65
  216.04        2961.50           1385         858.00      3724.89
  216.06        2961.75           1388        1874.00      8155.31
  216.09        2962.00           1392        3864.00     16836.18
  216.12        2962.25           1395        5877.00     25621.69
  216.15        2962.50           1398        7865.00     34302.33
  216.17        2962.75           1402       10389.00     45329.51
  216.20        2963.00           1405       12549.00     54771.82
  216.23        2963.25           1408       14630.00     63873.51
  216.26        2963.50           1412       17400.00     75995.90
  216.28        2963.75           1415       19463.00     85029.59
  216.31        2964.00           1418       21611.00     94440.34
  216.34        2964.25           1422       24167.00    105645.10
  216.37        2964.50           1425       26045.00    113882.20
  216.39        2964.75           1428       28461.00    124484.60
  216.42        2965.00           1431       30413.00    133055.40
  216.45        2965.25           1435       33248.00    145510.60
  216.47        2965.50           1438       35714.00    156351.70
  216.50        2965.75           1441       37644.00    164841.10
  216.53        2966.00           1445       40499.00    177406.50
  216.56        2966.25           1448       42203.00    184910.40
  216.58        2966.50           1451       43563.00    190901.70
  216.61        2966.75           1455       44846.00    196555.70
  216.64        2967.00           1458       45544.00    199632.40
  216.67        2967.25           1461       45585.00    199813.10
  216.69        2967.50           1465       45541.00    199619.20
  216.72        2967.75           1468       44789.00    196304.50
  216.75        2968.00           1471       44246.00    193911.40
  216.78        2968.25           1475       42692.00    187064.40
  216.80        2968.50           1478       40807.00    178762.60
  216.83        2968.75           1481       38416.00    168237.90
  216.86        2969.00           1485       35663.00    156127.40
  216.88        2969.25           1488       33523.00    146719.20
  216.91        2969.50           1491       31294.00    136925.00
  216.94        2969.75           1495       28333.00    123922.70
  216.97        2970.00           1498       26186.00    114500.80
  216.99        2970.25           1501       24315.00    106294.10
  217.02        2970.50           1505       21226.00     92753.22
  217.05        2970.75           1508       19144.00     83632.41
  217.08        2971.00           1511       17044.00     74437.46
  217.10        2971.25           1515       14113.00     61611.87
  217.13        2971.50           1518       12080.00     52721.19
  217.16        2971.75           1521        9880.00     43105.18
  217.19        2972.00           1525        7155.00     31201.62
  217.21        2972.25           1528        5187.00     22609.78
  217.24        2972.50           1531        3495.00     15226.19
  217.27        2972.75           1535        1524.00      6628.95
  217.29        2973.00           1538         641.00      2778.77
  217.32        2973.25           1541         210.00       899.76
  217.35        2973.50           1545          53.00       215.35
  217.38        2973.75           1548          30.00       115.08
  217.40        2974.00           1551          31.00       119.44
  217.43        2974.25           1555          23.00        84.57
  217.46        2974.50           1558          23.00        84.57
  217.49        2974.75           1561          23.00        84.57
  217.51        2975.00           1565          20.00        71.49
  217.54        2975.25           1568          24.00        88.93
  217.57        2975.50           1571          21.00        75.85
  217.59        2975.75           1575          27.00       102.01
  217.62        2976.00           1578          22.00        80.21
  217.65        2976.25           1581          20.00        71.49
  217.68        2976.50           1585          19.00        67.13
  217.70        2976.75           1588          21.00        75.85
  217.73        2977.00           1591          20.00        71.49
  217.76        2977.25           1595          23.00        84.57
  217.78        2977.50           1598          23.00        84.57
  217.81        2977.75           1601          24.00        88.93
  217.84        2978.00           1605          17.00        58.41
  217.87        2978.25           1608          18.00        62.77
  217.89        2978.50           1611          18.00        62.77
  217.92        2978.75           1615          24.00        88.93
  217.95        2979.00           1618          16.00        54.05
  217.97        2979.25           1621          18.00        62.77
  218.00        2979.50           1625          22.00        80.21
  218.03        2979.75           1628          19.00        67.13
  218.06        2980.00           1631          18.00        62.77
  218.08        2980.25           1635          22.00        80.21
  218.11        2980.50           1638          23.00        84.57
  218.14        2980.75           1641          21.00        75.85
  218.16        2981.00           1645          21.00        75.85
  218.19        2981.25           1648          21.00        75.85
  218.22        2981.50           1651          21.00        75.85
  218.25        2981.75           1655          20.00        71.49
  218.27        2982.00           1658          20.00        71.49
  218.30        2982.25           1661          17.00        58.41
  218.33        2982.50           1665          17.00        58.41
  218.35        2982.75           1668          21.00        75.85
  218.38        2983.00           1671          21.00        75.85
  218.41        2983.25           1675          15.00        49.69
  218.44        2983.50           1678          20.00        71.49
  218.46        2983.75           1681          16.00        54.05
  218.49        2984.00           1685          18.00        62.77
HS scan finished at 03:38:41
end
