************************************************************
  HS Scan of (1) Internal mercury lamp
************************************************************
Integration time is 0.2294 seconds per sample
dh190419Tamanrasset 22.79-5.529 4.974364pr865
************************************************************
Dead Time -------------------------  2.8E-08 
Number of Cycles Used -------------  4 
Starting Wavelength (Angstroms) ---  2950 
Final Wavelength (Angstoms) -------  2984 
Wavelength Increment (Angstroms) --  .25 
Filter Wheel #1 Position ---------- (1) Ground quartz diffuser (ND=2.32)
Filter Wheel #2 Position ---------- (1) Neutral Density 0.494



************************************************************
HS scan start time = 03:27:24
Dark Count =  4.3 


Time (GMT)  Wavelength (Ang)  Step Number  Raw Counts  Counts/Second

  207.76        2950.00           1233          17.00        55.36
  207.82        2950.25           1236          17.00        55.36
  207.85        2950.50           1239          20.00        68.44
  207.88        2950.75           1242          19.00        64.08
  207.90        2951.00           1246          16.00        51.00
  207.93        2951.25           1249          19.00        64.08
  207.96        2951.50           1252          13.00        37.93
  207.99        2951.75           1256          20.00        68.44
  208.01        2952.00           1259          19.00        64.08
  208.04        2952.25           1262          19.00        64.08
  208.07        2952.50           1266          21.00        72.80
  208.09        2952.75           1269          17.00        55.36
  208.12        2953.00           1272          17.00        55.36
  208.15        2953.25           1276          14.00        42.28
  208.18        2953.50           1279          18.00        59.72
  208.20        2953.75           1282          19.00        64.08
  208.23        2954.00           1286          18.00        59.72
  208.26        2954.25           1289          18.00        59.72
  208.29        2954.50           1292          19.00        64.08
  208.31        2954.75           1295          13.00        37.93
  208.34        2955.00           1299          17.00        55.36
  208.37        2955.25           1302          22.00        77.16
  208.40        2955.50           1305          20.00        68.44
  208.42        2955.75           1309          20.00        68.44
  208.45        2956.00           1312          18.00        59.72
  208.48        2956.25           1315          19.00        64.08
  208.50        2956.50           1319          18.00        59.72
  208.53        2956.75           1322          20.00        68.44
  208.56        2957.00           1325          19.00        64.08
  208.59        2957.25           1329          18.00        59.72
  208.61        2957.50           1332          21.00        72.80
  208.64        2957.75           1335          16.00        51.00
  208.67        2958.00           1339          19.00        64.08
  208.69        2958.25           1342          17.00        55.36
  208.72        2958.50           1345          20.00        68.44
  208.75        2958.75           1348          19.00        64.08
  208.78        2959.00           1352          21.00        72.80
  208.80        2959.25           1355          18.00        59.72
  208.83        2959.50           1358          21.00        72.80
  208.86        2959.75           1362          25.00        90.24
  208.89        2960.00           1365          20.00        68.44
  208.91        2960.25           1368          22.00        77.16
  208.94        2960.50           1372          27.00        98.95
  208.97        2960.75           1375          39.00       151.26
  208.99        2961.00           1378         109.00       456.41
  209.02        2961.25           1382         561.00      2426.93
  209.05        2961.50           1385        1244.00      5404.92
  209.08        2961.75           1388        2410.00     10490.00
  209.10        2962.00           1392        4890.00     21310.45
  209.13        2962.25           1395        7104.00     30975.86
  209.16        2962.50           1398        9305.00     40589.70
  209.19        2962.75           1402       12342.00     53863.65
  209.21        2963.00           1405       14771.00     64487.31
  209.24        2963.25           1408       17049.00     74456.28
  209.27        2963.50           1412       20112.00     87869.37
  209.30        2963.75           1415       22562.00     98605.35
  209.32        2964.00           1418       24963.00    109132.90
  209.35        2964.25           1422       28135.00    123050.50
  209.38        2964.50           1425       30566.00    133724.30
  209.41        2964.75           1428       33138.00    145024.10
  209.43        2965.00           1431       35456.00    155214.10
  209.46        2965.25           1435       38613.00    169101.80
  209.49        2965.50           1438       41160.00    180313.90
  209.52        2965.75           1441       43443.00    190369.90
  209.54        2966.00           1445       46740.00    204902.40
  209.57        2966.25           1448       48451.00    212448.80
  209.60        2966.50           1451       50059.00    219543.80
  209.63        2966.75           1455       51280.00    224933.10
  209.65        2967.00           1458       51697.00    226774.10
  209.68        2967.25           1461       51875.00    227560.00
  209.71        2967.50           1465       51827.00    227348.10
  209.74        2967.75           1468       51292.00    224986.10
  209.76        2968.00           1471       50313.00    220664.80
  209.79        2968.25           1475       48404.00    212241.50
  209.82        2968.50           1478       46182.00    202442.00
  209.85        2968.75           1481       43771.00    191815.10
  209.87        2969.00           1485       40452.00    177196.50
  209.90        2969.25           1488       37811.00    165572.70
  209.93        2969.50           1491       35412.00    155020.60
  209.95        2969.75           1495       31861.00    139412.80
  209.98        2970.00           1498       29773.00    130241.80
  210.01        2970.25           1501       27241.00    119126.90
  210.04        2970.50           1505       23920.00    104558.90
  210.06        2970.75           1508       21421.00     93604.64
  210.09        2971.00           1511       18877.00     82460.01
  210.12        2971.25           1515       15564.00     67957.00
  210.15        2971.50           1518       13200.00     57615.55
  210.17        2971.75           1521       10902.00     47568.55
  210.20        2972.00           1525        7697.00     33565.54
  210.23        2972.25           1528        5425.00     23645.56
  210.26        2972.50           1531        3310.00     14416.02
  210.28        2972.75           1535        1406.00      6111.33
  210.31        2973.00           1538         513.00      2217.66
  210.34        2973.25           1541         154.00       652.58
  210.37        2973.50           1545          37.00       142.55
  210.39        2973.75           1548          34.00       129.47
  210.42        2974.00           1551          34.00       129.47
  210.45        2974.25           1555          28.00       103.31
  210.48        2974.50           1558          23.00        81.52
  210.50        2974.75           1561          27.00        98.95
  210.53        2975.00           1565          18.00        59.72
  210.56        2975.25           1568          28.00       103.31
  210.58        2975.50           1571          21.00        72.80
  210.61        2975.75           1575          18.00        59.72
  210.64        2976.00           1578          18.00        59.72
  210.67        2976.25           1581          18.00        59.72
  210.69        2976.50           1585          17.00        55.36
  210.72        2976.75           1588          26.00        94.59
  210.75        2977.00           1591          19.00        64.08
  210.78        2977.25           1595          21.00        72.80
  210.80        2977.50           1598          19.00        64.08
  210.83        2977.75           1601          21.00        72.80
  210.86        2978.00           1605          19.00        64.08
  210.88        2978.25           1608          22.00        77.16
  210.91        2978.50           1611          23.00        81.52
  210.94        2978.75           1615          20.00        68.44
  210.97        2979.00           1618          22.00        77.16
  210.99        2979.25           1621          20.00        68.44
  211.02        2979.50           1625          22.00        77.16
  211.05        2979.75           1628          16.00        51.00
  211.08        2980.00           1631          18.00        59.72
  211.10        2980.25           1635          25.00        90.24
  211.13        2980.50           1638          22.00        77.16
  211.16        2980.75           1641          20.00        68.44
  211.18        2981.00           1645          17.00        55.36
  211.21        2981.25           1648          18.00        59.72
  211.24        2981.50           1651          16.00        51.00
  211.27        2981.75           1655          18.00        59.72
  211.29        2982.00           1658          20.00        68.44
  211.32        2982.25           1661          23.00        81.52
  211.35        2982.50           1665          19.00        64.08
  211.38        2982.75           1668          20.00        68.44
  211.40        2983.00           1671          17.00        55.36
  211.43        2983.25           1675          16.00        51.00
  211.46        2983.50           1678          15.00        46.64
  211.48        2983.75           1681          19.00        64.08
  211.51        2984.00           1685          20.00        68.44
HS scan finished at 03:31:42
end
