************************************************************
  HS Scan of (1) Internal mercury lamp
************************************************************
Integration time is 0.2294 seconds per sample
dh180419Tamanrasset 22.79-5.529 4.974364pr865
************************************************************
Dead Time -------------------------  2.8E-08 
Number of Cycles Used -------------  4 
Starting Wavelength (Angstroms) ---  2950 
Final Wavelength (Angstoms) -------  2984 
Wavelength Increment (Angstroms) --  .25 
Filter Wheel #1 Position ---------- (1) Ground quartz diffuser (ND=2.32)
Filter Wheel #2 Position ---------- (1) Neutral Density 0.494



************************************************************
HS scan start time = 03:27:30
Dark Count =  5.9 


Time (GMT)  Wavelength (Ang)  Step Number  Raw Counts  Counts/Second

  207.86        2950.00           1233          15.00        39.67
  207.92        2950.25           1236          22.00        70.18
  207.95        2950.50           1239          16.00        44.03
  207.98        2950.75           1242          20.00        61.46
  208.01        2951.00           1246          23.00        74.54
  208.03        2951.25           1249          19.00        57.11
  208.06        2951.50           1252          21.00        65.82
  208.09        2951.75           1256          15.00        39.67
  208.11        2952.00           1259          22.00        70.18
  208.14        2952.25           1262          23.00        74.54
  208.17        2952.50           1266          16.00        44.03
  208.20        2952.75           1269          16.00        44.03
  208.22        2953.00           1272          18.00        52.75
  208.25        2953.25           1276          20.00        61.46
  208.28        2953.50           1279          20.00        61.46
  208.31        2953.75           1282          17.00        48.39
  208.33        2954.00           1286          23.00        74.54
  208.36        2954.25           1289          16.00        44.03
  208.39        2954.50           1292          17.00        48.39
  208.42        2954.75           1295          19.00        57.11
  208.44        2955.00           1299          19.00        57.11
  208.47        2955.25           1302          21.00        65.82
  208.50        2955.50           1305          15.00        39.67
  208.52        2955.75           1309          15.00        39.67
  208.55        2956.00           1312          23.00        74.54
  208.58        2956.25           1315          17.00        48.39
  208.61        2956.50           1319          23.00        74.54
  208.63        2956.75           1322          15.00        39.67
  208.66        2957.00           1325          21.00        65.82
  208.69        2957.25           1329          19.00        57.11
  208.72        2957.50           1332          19.00        57.11
  208.74        2957.75           1335          20.00        61.46
  208.77        2958.00           1339          20.00        61.46
  208.80        2958.25           1342          17.00        48.39
  208.82        2958.50           1345          16.00        44.03
  208.85        2958.75           1348          23.00        74.54
  208.88        2959.00           1352          17.00        48.39
  208.91        2959.25           1355          20.00        61.46
  208.93        2959.50           1358          22.00        70.18
  208.96        2959.75           1362          21.00        65.82
  208.99        2960.00           1365          25.00        83.26
  209.01        2960.25           1368          29.00       100.70
  209.04        2960.50           1372          28.00        96.34
  209.07        2960.75           1375          34.00       122.49
  209.10        2961.00           1378          91.00       370.97
  209.13        2961.25           1382         507.00      2184.53
  209.15        2961.50           1385        1214.00      5267.12
  209.18        2961.75           1388        2368.00     10299.83
  209.21        2962.00           1392        4681.00     20391.33
  209.23        2962.25           1395        6906.00     30104.27
  209.26        2962.50           1398        9319.00     40643.87
  209.29        2962.75           1402       11970.00     52230.21
  209.32        2963.00           1405       14410.00     62901.01
  209.34        2963.25           1408       16761.00     73188.63
  209.37        2963.50           1412       19728.00     86180.25
  209.40        2963.75           1415       21995.00     96113.15
  209.43        2964.00           1418       24500.00    107095.30
  209.45        2964.25           1422       27558.00    120511.00
  209.48        2964.50           1425       29760.00    130177.60
  209.51        2964.75           1428       32472.00    142090.40
  209.54        2965.00           1431       34617.00    151518.10
  209.56        2965.25           1435       37821.00    165609.70
  209.59        2965.50           1438       40154.00    175877.50
  209.62        2965.75           1441       42469.00    186072.00
  209.65        2966.00           1445       45547.00    199635.50
  209.67        2966.25           1448       47340.00    207541.30
  209.70        2966.50           1451       48843.00    214171.10
  209.73        2966.75           1455       49919.00    218918.90
  209.76        2967.00           1458       50293.00    220569.50
  209.78        2967.25           1461       50418.00    221121.20
  209.81        2967.50           1465       50401.00    221046.20
  209.84        2967.75           1468       49517.00    217145.00
  209.87        2968.00           1471       48513.00    212715.20
  209.89        2968.25           1475       46451.00    203621.00
  209.92        2968.50           1478       44293.00    194108.40
  209.95        2968.75           1481       42047.00    184213.20
  209.98        2969.00           1485       38960.00    170621.80
  210.00        2969.25           1488       36487.00    159741.20
  210.03        2969.50           1491       33951.00    148590.40
  210.06        2969.75           1495       30932.00    135324.80
  210.09        2970.00           1498       28462.00    124478.90
  210.11        2970.25           1501       26104.00    114130.90
  210.14        2970.50           1505       23023.00    100619.20
  210.17        2970.75           1508       20540.00     89737.40
  210.20        2971.00           1511       18103.00     79063.68
  210.22        2971.25           1515       15087.00     65862.85
  210.25        2971.50           1518       12727.00     55540.10
  210.28        2971.75           1521       10657.00     46490.74
  210.31        2972.00           1525        7663.00     33410.06
  210.33        2972.25           1528        5353.00     23324.30
  210.36        2972.50           1531        3309.00     14404.68
  210.39        2972.75           1535        1374.00      5964.82
  210.42        2973.00           1538         521.00      2245.56
  210.44        2973.25           1541         150.00       628.17
  210.47        2973.50           1545          45.00       170.45
  210.50        2973.75           1548          37.00       135.57
  210.53        2974.00           1551          26.00        87.62
  210.55        2974.25           1555          27.00        91.98
  210.58        2974.50           1558          19.00        57.11
  210.61        2974.75           1561          20.00        61.46
  210.64        2975.00           1565          20.00        61.46
  210.66        2975.25           1568          18.00        52.75
  210.69        2975.50           1571          18.00        52.75
  210.72        2975.75           1575          21.00        65.82
  210.75        2976.00           1578          23.00        74.54
  210.77        2976.25           1581          22.00        70.18
  210.80        2976.50           1585          20.00        61.46
  210.83        2976.75           1588          22.00        70.18
  210.85        2977.00           1591          21.00        65.82
  210.88        2977.25           1595          25.00        83.26
  210.91        2977.50           1598          21.00        65.82
  210.94        2977.75           1601          22.00        70.18
  210.96        2978.00           1605          18.00        52.75
  210.99        2978.25           1608          20.00        61.46
  211.02        2978.50           1611          22.00        70.18
  211.05        2978.75           1615          17.00        48.39
  211.07        2979.00           1618          21.00        65.82
  211.10        2979.25           1621          18.00        52.75
  211.13        2979.50           1625          18.00        52.75
  211.15        2979.75           1628          22.00        70.18
  211.18        2980.00           1631          20.00        61.46
  211.21        2980.25           1635          21.00        65.82
  211.24        2980.50           1638          20.00        61.46
  211.26        2980.75           1641          23.00        74.54
  211.29        2981.00           1645          21.00        65.82
  211.32        2981.25           1648          17.00        48.39
  211.35        2981.50           1651          19.00        57.11
  211.37        2981.75           1655          19.00        57.11
  211.40        2982.00           1658          22.00        70.18
  211.43        2982.25           1661          22.00        70.18
  211.45        2982.50           1665          22.00        70.18
  211.48        2982.75           1668          17.00        48.39
  211.51        2983.00           1671          15.00        39.67
  211.54        2983.25           1675          19.00        57.11
  211.56        2983.50           1678          20.00        61.46
  211.59        2983.75           1681          17.00        48.39
  211.62        2984.00           1685          19.00        57.11
HS scan finished at 03:31:48
end
