************************************************************
  HS Scan of (1) Internal mercury lamp
************************************************************
Integration time is 0.2294 seconds per sample
dh120419Tamanrasset 22.79-5.529 4.974364pr865
************************************************************
Dead Time -------------------------  2.8E-08 
Number of Cycles Used -------------  4 
Starting Wavelength (Angstroms) ---  2950 
Final Wavelength (Angstoms) -------  2984 
Wavelength Increment (Angstroms) --  .25 
Filter Wheel #1 Position ---------- (1) Ground quartz diffuser (ND=2.32)
Filter Wheel #2 Position ---------- (1) Neutral Density 0.494



************************************************************
HS scan start time = 03:32:53
Dark Count =  5.1 


Time (GMT)  Wavelength (Ang)  Step Number  Raw Counts  Counts/Second

  213.24        2950.00           1233          17.00        51.87
  213.30        2950.25           1236          20.00        64.95
  213.33        2950.50           1239          12.00        30.08
  213.36        2950.75           1242          22.00        73.67
  213.38        2951.00           1246          22.00        73.67
  213.41        2951.25           1249          19.00        60.59
  213.44        2951.50           1252          18.00        56.23
  213.47        2951.75           1256          14.00        38.80
  213.49        2952.00           1259          18.00        56.23
  213.52        2952.25           1262          21.00        69.31
  213.55        2952.50           1266          18.00        56.23
  213.57        2952.75           1269          20.00        64.95
  213.60        2953.00           1272          19.00        60.59
  213.63        2953.25           1276          16.00        47.52
  213.66        2953.50           1279          22.00        73.67
  213.68        2953.75           1282          19.00        60.59
  213.71        2954.00           1286          15.00        43.16
  213.74        2954.25           1289          18.00        56.23
  213.76        2954.50           1292          17.00        51.87
  213.79        2954.75           1295          20.00        64.95
  213.82        2955.00           1299          17.00        51.87
  213.85        2955.25           1302          18.00        56.23
  213.87        2955.50           1305          25.00        86.75
  213.90        2955.75           1309          17.00        51.87
  213.93        2956.00           1312          20.00        64.95
  213.95        2956.25           1315          19.00        60.59
  213.98        2956.50           1319          21.00        69.31
  214.01        2956.75           1322          23.00        78.03
  214.04        2957.00           1325          20.00        64.95
  214.06        2957.25           1329          19.00        60.59
  214.09        2957.50           1332          17.00        51.87
  214.12        2957.75           1335          19.00        60.59
  214.14        2958.00           1339          22.00        73.67
  214.17        2958.25           1342          19.00        60.59
  214.20        2958.50           1345          22.00        73.67
  214.23        2958.75           1348          19.00        60.59
  214.25        2959.00           1352          20.00        64.95
  214.28        2959.25           1355          19.00        60.59
  214.31        2959.50           1358          18.00        56.23
  214.33        2959.75           1362          20.00        64.95
  214.36        2960.00           1365          20.00        64.95
  214.39        2960.25           1368          27.00        95.47
  214.42        2960.50           1372          24.00        82.39
  214.44        2960.75           1375          31.00       112.90
  214.47        2961.00           1378          64.00       256.76
  214.50        2961.25           1382         311.00      1333.53
  214.52        2961.50           1385         803.00      3478.54
  214.55        2961.75           1388        1702.00      7398.66
  214.58        2962.00           1392        3527.00     15359.26
  214.61        2962.25           1395        5423.00     23633.34
  214.63        2962.50           1398        7365.00     32112.12
  214.66        2962.75           1402        9853.00     42980.64
  214.69        2963.00           1405       12066.00     52653.42
  214.72        2963.25           1408       14235.00     62138.98
  214.74        2963.50           1412       16649.00     72701.91
  214.77        2963.75           1415       18836.00     82276.96
  214.80        2964.00           1418       20961.00     91585.48
  214.82        2964.25           1422       23474.00    102599.90
  214.85        2964.50           1425       25367.00    110901.40
  214.88        2964.75           1428       27775.00    121466.90
  214.91        2965.00           1431       29765.00    130203.10
  214.93        2965.25           1435       32519.00    142300.40
  214.96        2965.50           1438       34830.00    152458.10
  214.99        2965.75           1441       36848.00    161332.60
  215.02        2966.00           1445       39527.00    173120.90
  215.04        2966.25           1448       41290.00    180882.90
  215.07        2966.50           1451       42889.00    187925.60
  215.10        2966.75           1455       44260.00    193966.50
  215.12        2967.00           1458       44872.00    196663.70
  215.15        2967.25           1461       44854.00    196584.30
  215.18        2967.50           1465       44873.00    196668.10
  215.21        2967.75           1468       44558.00    195279.80
  215.23        2968.00           1471       43929.00    192507.90
  215.26        2968.25           1475       42460.00    186035.90
  215.29        2968.50           1478       40573.00    177725.70
  215.32        2968.75           1481       38815.00    169987.20
  215.34        2969.00           1485       36144.00    158236.10
  215.37        2969.25           1488       33708.00    147525.80
  215.40        2969.50           1491       31649.00    138477.90
  215.43        2969.75           1495       28549.00    124864.30
  215.45        2970.00           1498       26595.00    116288.70
  215.48        2970.25           1501       24483.00    107024.30
  215.51        2970.50           1505       21457.00     93758.89
  215.54        2970.75           1508       19439.00     84917.88
  215.56        2971.00           1511       17237.00     75275.75
  215.59        2971.25           1515       14338.00     62589.55
  215.62        2971.50           1518       12325.00     53785.83
  215.65        2971.75           1521       10211.00     44545.07
  215.67        2972.00           1525        7681.00     33492.16
  215.70        2972.25           1528        5559.00     24226.98
  215.73        2972.50           1531        3627.00     15795.56
  215.75        2972.75           1535        1635.00      7106.47
  215.78        2973.00           1538         729.00      3155.90
  215.81        2973.25           1541         247.00      1054.52
  215.84        2973.50           1545          63.00       252.40
  215.86        2973.75           1548          39.00       147.78
  215.89        2974.00           1551          35.00       130.34
  215.92        2974.25           1555          28.00        99.83
  215.94        2974.50           1558          20.00        64.95
  215.97        2974.75           1561          25.00        86.75
  216.00        2975.00           1565          25.00        86.75
  216.03        2975.25           1568          17.00        51.87
  216.05        2975.50           1571          21.00        69.31
  216.08        2975.75           1575          17.00        51.87
  216.11        2976.00           1578          17.00        51.87
  216.13        2976.25           1581          22.00        73.67
  216.16        2976.50           1585          20.00        64.95
  216.19        2976.75           1588          19.00        60.59
  216.22        2977.00           1591          19.00        60.59
  216.24        2977.25           1595          21.00        69.31
  216.27        2977.50           1598          20.00        64.95
  216.30        2977.75           1601          20.00        64.95
  216.32        2978.00           1605          18.00        56.23
  216.35        2978.25           1608          21.00        69.31
  216.38        2978.50           1611          17.00        51.87
  216.41        2978.75           1615          23.00        78.03
  216.43        2979.00           1618          23.00        78.03
  216.46        2979.25           1621          19.00        60.59
  216.49        2979.50           1625          21.00        69.31
  216.51        2979.75           1628          17.00        51.87
  216.54        2980.00           1631          22.00        73.67
  216.57        2980.25           1635          19.00        60.59
  216.60        2980.50           1638          15.00        43.16
  216.62        2980.75           1641          15.00        43.16
  216.65        2981.00           1645          20.00        64.95
  216.68        2981.25           1648          19.00        60.59
  216.70        2981.50           1651          22.00        73.67
  216.73        2981.75           1655          17.00        51.87
  216.76        2982.00           1658          19.00        60.59
  216.79        2982.25           1661          15.00        43.16
  216.81        2982.50           1665          22.00        73.67
  216.84        2982.75           1668          19.00        60.59
  216.87        2983.00           1671          17.00        51.87
  216.89        2983.25           1675          19.00        60.59
  216.92        2983.50           1678          15.00        43.16
  216.95        2983.75           1681          18.00        56.23
  216.98        2984.00           1685          17.00        51.87
HS scan finished at 03:37:10
end
