************************************************************
  HS Scan of (1) Internal mercury lamp
************************************************************
Integration time is 0.2294 seconds per sample
dh170419Tamanrasset 22.79-5.529 4.974364pr865
************************************************************
Dead Time -------------------------  2.8E-08 
Number of Cycles Used -------------  4 
Starting Wavelength (Angstroms) ---  2950 
Final Wavelength (Angstoms) -------  2984 
Wavelength Increment (Angstroms) --  .25 
Filter Wheel #1 Position ---------- (1) Ground quartz diffuser (ND=2.32)
Filter Wheel #2 Position ---------- (1) Neutral Density 0.494



************************************************************
HS scan start time = 03:28:24
Dark Count =  4.6 


Time (GMT)  Wavelength (Ang)  Step Number  Raw Counts  Counts/Second

  208.76        2950.00           1233          19.00        62.77
  208.82        2950.25           1236          18.00        58.41
  208.85        2950.50           1239          21.00        71.49
  208.88        2950.75           1242          13.00        36.62
  208.91        2951.00           1246          20.00        67.13
  208.93        2951.25           1249          20.00        67.13
  208.96        2951.50           1252          17.00        54.05
  208.99        2951.75           1256          17.00        54.05
  209.01        2952.00           1259          18.00        58.41
  209.04        2952.25           1262          16.00        49.69
  209.07        2952.50           1266          15.00        45.34
  209.10        2952.75           1269          21.00        71.49
  209.12        2953.00           1272          17.00        54.05
  209.15        2953.25           1276          19.00        62.77
  209.18        2953.50           1279          18.00        58.41
  209.21        2953.75           1282          18.00        58.41
  209.23        2954.00           1286          15.00        45.34
  209.26        2954.25           1289          18.00        58.41
  209.29        2954.50           1292          17.00        54.05
  209.32        2954.75           1295          17.00        54.05
  209.34        2955.00           1299          19.00        62.77
  209.37        2955.25           1302          21.00        71.49
  209.40        2955.50           1305          17.00        54.05
  209.42        2955.75           1309          16.00        49.69
  209.45        2956.00           1312          19.00        62.77
  209.48        2956.25           1315          23.00        80.21
  209.51        2956.50           1319          24.00        84.57
  209.53        2956.75           1322          16.00        49.69
  209.56        2957.00           1325          19.00        62.77
  209.59        2957.25           1329          17.00        54.05
  209.62        2957.50           1332          16.00        49.69
  209.64        2957.75           1335          22.00        75.85
  209.67        2958.00           1339          17.00        54.05
  209.70        2958.25           1342          18.00        58.41
  209.73        2958.50           1345          20.00        67.13
  209.75        2958.75           1348          17.00        54.05
  209.78        2959.00           1352          20.00        67.13
  209.81        2959.25           1355          19.00        62.77
  209.83        2959.50           1358          19.00        62.77
  209.86        2959.75           1362          24.00        84.57
  209.89        2960.00           1365          19.00        62.77
  209.92        2960.25           1368          27.00        97.65
  209.94        2960.50           1372          27.00        97.65
  209.97        2960.75           1375          33.00       123.80
  210.00        2961.00           1378          74.00       302.53
  210.03        2961.25           1382         368.00      1584.20
  210.05        2961.50           1385         897.00      3890.57
  210.08        2961.75           1388        1955.00      8504.21
  210.11        2962.00           1392        3993.00     17394.70
  210.14        2962.25           1395        5710.00     24888.31
  210.16        2962.50           1398        7862.00     34284.86
  210.19        2962.75           1402       10518.00     45888.92
  210.22        2963.00           1405       12576.00     54885.51
  210.25        2963.25           1408       14745.00     64372.24
  210.27        2963.50           1412       17349.00     75768.25
  210.30        2963.75           1415       19179.00     83781.32
  210.33        2964.00           1418       21472.00     93826.82
  210.35        2964.25           1422       24178.00    105688.90
  210.38        2964.50           1425       26239.00    114728.90
  210.41        2964.75           1428       28382.00    124133.40
  210.44        2965.00           1431       30442.00    133178.40
  210.46        2965.25           1435       33341.00    145914.90
  210.49        2965.50           1438       35592.00    155810.80
  210.52        2965.75           1441       37554.00    164440.70
  210.55        2966.00           1445       40621.00    177939.30
  210.57        2966.25           1448       42232.00    185033.80
  210.60        2966.50           1451       43668.00    191360.00
  210.63        2966.75           1455       44994.00    197203.60
  210.66        2967.00           1458       45505.00    199456.10
  210.68        2967.25           1461       45552.00    199663.20
  210.71        2967.50           1465       45422.00    199090.20
  210.74        2967.75           1468       45218.00    198191.00
  210.77        2968.00           1471       44309.00    194184.60
  210.79        2968.25           1475       42883.00    187901.40
  210.82        2968.50           1478       41030.00    179740.10
  210.85        2968.75           1481       39004.00    170821.20
  210.88        2969.00           1485       36099.00    158040.40
  210.90        2969.25           1488       34010.00    148855.40
  210.93        2969.50           1491       31708.00    138739.30
  210.96        2969.75           1495       28675.00    125419.60
  210.99        2970.00           1498       26457.00    115685.40
  211.01        2970.25           1501       24334.00    106373.00
  211.04        2970.50           1505       21337.00     93235.24
  211.07        2970.75           1508       19182.00     83794.46
  211.10        2971.00           1511       16992.00     74205.47
  211.12        2971.25           1515       14245.00     62184.91
  211.15        2971.50           1518       12141.00     52983.52
  211.18        2971.75           1521       10179.00     44407.41
  211.21        2972.00           1525        7221.00     31485.46
  211.23        2972.25           1528        5186.00     22601.05
  211.26        2972.50           1531        3459.00     15064.77
  211.29        2972.75           1535        1458.00      6336.78
  211.32        2973.00           1538         578.00      2499.74
  211.34        2973.25           1541         179.00       760.26
  211.37        2973.50           1545          52.00       206.63
  211.40        2973.75           1548          34.00       128.16
  211.43        2974.00           1551          34.00       128.16
  211.45        2974.25           1555          23.00        80.21
  211.48        2974.50           1558          19.00        62.77
  211.51        2974.75           1561          23.00        80.21
  211.53        2975.00           1565          20.00        67.13
  211.56        2975.25           1568          22.00        75.85
  211.59        2975.50           1571          17.00        54.05
  211.62        2975.75           1575          23.00        80.21
  211.64        2976.00           1578          17.00        54.05
  211.67        2976.25           1581          17.00        54.05
  211.70        2976.50           1585          22.00        75.85
  211.73        2976.75           1588          22.00        75.85
  211.75        2977.00           1591          20.00        67.13
  211.78        2977.25           1595          19.00        62.77
  211.81        2977.50           1598          20.00        67.13
  211.83        2977.75           1601          19.00        62.77
  211.86        2978.00           1605          21.00        71.49
  211.89        2978.25           1608          18.00        58.41
  211.92        2978.50           1611          25.00        88.93
  211.94        2978.75           1615          20.00        67.13
  211.97        2979.00           1618          18.00        58.41
  212.00        2979.25           1621          17.00        54.05
  212.03        2979.50           1625          23.00        80.21
  212.05        2979.75           1628          16.00        49.69
  212.08        2980.00           1631          20.00        67.13
  212.11        2980.25           1635          23.00        80.21
  212.13        2980.50           1638          19.00        62.77
  212.16        2980.75           1641          19.00        62.77
  212.19        2981.00           1645          19.00        62.77
  212.22        2981.25           1648          17.00        54.05
  212.24        2981.50           1651          17.00        54.05
  212.27        2981.75           1655          20.00        67.13
  212.30        2982.00           1658          21.00        71.49
  212.33        2982.25           1661          20.00        67.13
  212.35        2982.50           1665          19.00        62.77
  212.38        2982.75           1668          17.00        54.05
  212.41        2983.00           1671          19.00        62.77
  212.43        2983.25           1675          20.00        67.13
  212.46        2983.50           1678          21.00        71.49
  212.49        2983.75           1681          21.00        71.49
  212.52        2984.00           1685          17.00        54.05
HS scan finished at 03:32:42
end
