************************************************************
  HS Scan of (1) Internal mercury lamp
************************************************************
Integration time is 0.2294 seconds per sample
dh100419Tamanrasset 22.79-5.529 4.974364pr865
************************************************************
Dead Time -------------------------  2.8E-08 
Number of Cycles Used -------------  4 
Starting Wavelength (Angstroms) ---  2950 
Final Wavelength (Angstoms) -------  2984 
Wavelength Increment (Angstroms) --  .25 
Filter Wheel #1 Position ---------- (1) Ground quartz diffuser (ND=2.32)
Filter Wheel #2 Position ---------- (1) Neutral Density 0.494



************************************************************
HS scan start time = 03:34:54
Dark Count =  6.1 


Time (GMT)  Wavelength (Ang)  Step Number  Raw Counts  Counts/Second

  215.26        2950.00           1233          21.00        64.95
  215.33        2950.25           1236          16.00        43.16
  215.35        2950.50           1239          18.00        51.87
  215.38        2950.75           1242          18.00        51.87
  215.41        2951.00           1246          20.00        60.59
  215.44        2951.25           1249          18.00        51.87
  215.46        2951.50           1252          18.00        51.87
  215.49        2951.75           1256          21.00        64.95
  215.52        2952.00           1259          16.00        43.16
  215.54        2952.25           1262          23.00        73.67
  215.57        2952.50           1266          21.00        64.95
  215.60        2952.75           1269          15.00        38.80
  215.63        2953.00           1272          19.00        56.23
  215.65        2953.25           1276          17.00        47.52
  215.68        2953.50           1279          16.00        43.16
  215.71        2953.75           1282          22.00        69.31
  215.73        2954.00           1286          20.00        60.59
  215.76        2954.25           1289          18.00        51.87
  215.79        2954.50           1292          19.00        56.23
  215.82        2954.75           1295          17.00        47.52
  215.84        2955.00           1299          19.00        56.23
  215.87        2955.25           1302          18.00        51.87
  215.90        2955.50           1305          14.00        34.44
  215.92        2955.75           1309          16.00        43.16
  215.95        2956.00           1312          23.00        73.67
  215.98        2956.25           1315          22.00        69.31
  216.01        2956.50           1319          19.00        56.23
  216.03        2956.75           1322          20.00        60.59
  216.06        2957.00           1325          21.00        64.95
  216.09        2957.25           1329          18.00        51.87
  216.11        2957.50           1332          21.00        64.95
  216.14        2957.75           1335          19.00        56.23
  216.17        2958.00           1339          21.00        64.95
  216.20        2958.25           1342          15.00        38.80
  216.22        2958.50           1345          15.00        38.80
  216.25        2958.75           1348          21.00        64.95
  216.28        2959.00           1352          18.00        51.87
  216.31        2959.25           1355          18.00        51.87
  216.33        2959.50           1358          17.00        47.52
  216.36        2959.75           1362          22.00        69.31
  216.39        2960.00           1365          22.00        69.31
  216.41        2960.25           1368          25.00        82.39
  216.44        2960.50           1372          25.00        82.39
  216.47        2960.75           1375          33.00       117.26
  216.49        2961.00           1378          83.00       335.23
  216.52        2961.25           1382         437.00      1878.48
  216.55        2961.50           1385        1057.00      4581.67
  216.58        2961.75           1388        2205.00      9588.01
  216.60        2962.00           1392        4455.00     19404.17
  216.63        2962.25           1395        6507.00     28361.22
  216.66        2962.50           1398        8889.00     38764.37
  216.69        2962.75           1402       11794.00     51459.89
  216.71        2963.00           1405       13911.00     60717.35
  216.74        2963.25           1408       16089.00     70246.58
  216.77        2963.50           1412       19069.00     83293.00
  216.79        2963.75           1415       21300.00     93066.53
  216.82        2964.00           1418       23808.00    104059.90
  216.85        2964.25           1422       26847.00    117390.00
  216.88        2964.50           1425       29084.00    127208.60
  216.90        2964.75           1428       31638.00    138425.20
  216.93        2965.00           1431       34076.00    149138.90
  216.96        2965.25           1435       36988.00    161944.10
  216.99        2965.50           1438       39567.00    173292.60
  217.01        2965.75           1441       41525.00    181913.30
  217.04        2966.00           1445       44801.00    196346.30
  217.07        2966.25           1448       46417.00    203470.20
  217.10        2966.50           1451       48225.00    211443.90
  217.12        2966.75           1455       49485.00    217002.90
  217.15        2967.00           1458       50107.00    219747.70
  217.18        2967.25           1461       50188.00    220105.20
  217.21        2967.50           1465       50235.00    220312.60
  217.23        2967.75           1468       49643.00    217700.10
  217.26        2968.00           1471       48862.00    214254.00
  217.29        2968.25           1475       46791.00    205119.30
  217.31        2968.50           1478       44675.00    195791.00
  217.34        2968.75           1481       42549.00    186423.50
  217.37        2969.00           1485       39606.00    173464.30
  217.40        2969.25           1488       36814.00    161178.70
  217.42        2969.50           1491       34726.00    151996.40
  217.45        2969.75           1495       31440.00    137555.40
  217.48        2970.00           1498       28872.00    126277.90
  217.51        2970.25           1501       26559.00    116126.30
  217.53        2970.50           1505       23545.00    102906.80
  217.56        2970.75           1508       21083.00     92115.66
  217.59        2971.00           1511       18696.00     81659.47
  217.62        2971.25           1515       15505.00     67690.95
  217.64        2971.50           1518       13007.00     56763.65
  217.67        2971.75           1521       11038.00     48155.12
  217.70        2972.00           1525        8136.00     35475.07
  217.73        2972.25           1528        5734.00     24986.53
  217.75        2972.50           1531        3820.00     16633.29
  217.78        2972.75           1535        1601.00      6953.84
  217.81        2973.00           1538         647.00      2794.03
  217.83        2973.25           1541         210.00       888.86
  217.86        2973.50           1545          48.00       182.65
  217.89        2973.75           1548          35.00       125.98
  217.92        2974.00           1551          32.00       112.90
  217.94        2974.25           1555          28.00        95.47
  217.97        2974.50           1558          23.00        73.67
  218.00        2974.75           1561          22.00        69.31
  218.02        2975.00           1565          21.00        64.95
  218.05        2975.25           1568          14.00        34.44
  218.08        2975.50           1571          17.00        47.52
  218.11        2975.75           1575          24.00        78.03
  218.13        2976.00           1578          23.00        73.67
  218.16        2976.25           1581          18.00        51.87
  218.19        2976.50           1585          20.00        60.59
  218.21        2976.75           1588          20.00        60.59
  218.24        2977.00           1591          17.00        47.52
  218.27        2977.25           1595          20.00        60.59
  218.30        2977.50           1598          24.00        78.03
  218.32        2977.75           1601          19.00        56.23
  218.35        2978.00           1605          14.00        34.44
  218.38        2978.25           1608          19.00        56.23
  218.40        2978.50           1611          18.00        51.87
  218.43        2978.75           1615          17.00        47.52
  218.46        2979.00           1618          19.00        56.23
  218.49        2979.25           1621          21.00        64.95
  218.51        2979.50           1625          18.00        51.87
  218.54        2979.75           1628          23.00        73.67
  218.57        2980.00           1631          21.00        64.95
  218.59        2980.25           1635          19.00        56.23
  218.62        2980.50           1638          21.00        64.95
  218.65        2980.75           1641          16.00        43.16
  218.68        2981.00           1645          22.00        69.31
  218.70        2981.25           1648          18.00        51.87
  218.73        2981.50           1651          18.00        51.87
  218.76        2981.75           1655          16.00        43.16
  218.78        2982.00           1658          18.00        51.87
  218.81        2982.25           1661          16.00        43.16
  218.84        2982.50           1665          20.00        60.59
  218.87        2982.75           1668          22.00        69.31
  218.89        2983.00           1671          17.00        47.52
  218.92        2983.25           1675          24.00        78.03
  218.95        2983.50           1678          19.00        56.23
  218.97        2983.75           1681          17.00        47.52
  219.00        2984.00           1685          18.00        51.87
HS scan finished at 03:39:11
end
