************************************************************
  HS Scan of (1) Internal mercury lamp
************************************************************
Integration time is 0.2294 seconds per sample
dh210419Tamanrasset 22.79-5.529 4.974364pr865
************************************************************
Dead Time -------------------------  2.8E-08 
Number of Cycles Used -------------  4 
Starting Wavelength (Angstroms) ---  2950 
Final Wavelength (Angstoms) -------  2984 
Wavelength Increment (Angstroms) --  .25 
Filter Wheel #1 Position ---------- (1) Ground quartz diffuser (ND=2.32)
Filter Wheel #2 Position ---------- (1) Neutral Density 0.494



************************************************************
HS scan start time = 03:25:26
Dark Count =  4.2 


Time (GMT)  Wavelength (Ang)  Step Number  Raw Counts  Counts/Second

  205.79        2950.00           1233          17.00        55.80
  205.85        2950.25           1236          20.00        68.88
  205.88        2950.50           1239          19.00        64.52
  205.91        2950.75           1242          17.00        55.80
  205.93        2951.00           1246          21.00        73.23
  205.96        2951.25           1249          15.00        47.08
  205.99        2951.50           1252          21.00        73.23
  206.01        2951.75           1256          13.00        38.36
  206.04        2952.00           1259          12.00        34.00
  206.07        2952.25           1262          16.00        51.44
  206.10        2952.50           1266          17.00        55.80
  206.13        2952.75           1269          18.00        60.16
  206.15        2953.00           1272          16.00        51.44
  206.18        2953.25           1276          20.00        68.88
  206.21        2953.50           1279          18.00        60.16
  206.23        2953.75           1282          20.00        68.88
  206.26        2954.00           1286          24.00        86.31
  206.29        2954.25           1289          19.00        64.52
  206.32        2954.50           1292          18.00        60.16
  206.34        2954.75           1295          17.00        55.80
  206.37        2955.00           1299          18.00        60.16
  206.40        2955.25           1302          20.00        68.88
  206.43        2955.50           1305          18.00        60.16
  206.45        2955.75           1309          19.00        64.52
  206.48        2956.00           1312          16.00        51.44
  206.51        2956.25           1315          17.00        55.80
  206.53        2956.50           1319          19.00        64.52
  206.56        2956.75           1322          18.00        60.16
  206.59        2957.00           1325          23.00        81.95
  206.62        2957.25           1329          21.00        73.23
  206.64        2957.50           1332          17.00        55.80
  206.67        2957.75           1335          17.00        55.80
  206.70        2958.00           1339          17.00        55.80
  206.73        2958.25           1342          16.00        51.44
  206.75        2958.50           1345          20.00        68.88
  206.78        2958.75           1348          21.00        73.23
  206.81        2959.00           1352          14.00        42.72
  206.83        2959.25           1355          24.00        86.31
  206.86        2959.50           1358          24.00        86.31
  206.89        2959.75           1362          18.00        60.16
  206.92        2960.00           1365          19.00        64.52
  206.94        2960.25           1368          34.00       129.90
  206.97        2960.50           1372          27.00        99.39
  207.00        2960.75           1375          51.00       204.01
  207.03        2961.00           1378         166.00       705.33
  207.05        2961.25           1382         730.00      3164.19
  207.08        2961.50           1385        1648.00      7167.09
  207.11        2961.75           1388        3121.00     13591.92
  207.13        2962.00           1392        5886.00     25658.36
  207.16        2962.25           1395        8276.00     36094.88
  207.19        2962.50           1398       10808.00     47158.14
  207.22        2962.75           1402       14139.00     61722.97
  207.24        2963.00           1405       16475.00     71944.27
  207.27        2963.25           1408       19094.00     83410.81
  207.30        2963.50           1412       22038.00     96309.07
  207.33        2963.75           1415       24410.00    106708.10
  207.35        2964.00           1418       26960.00    117894.20
  207.38        2964.25           1422       29885.00    130734.00
  207.41        2964.50           1425       32620.00    142748.20
  207.44        2964.75           1428       35260.00    154352.70
  207.46        2965.00           1431       37617.00    164719.60
  207.49        2965.25           1435       41016.00    179680.30
  207.52        2965.50           1438       43569.00    190925.60
  207.55        2965.75           1441       46071.00    201953.10
  207.57        2966.00           1445       49157.00    215564.00
  207.60        2966.25           1448       51048.00    223909.40
  207.63        2966.50           1451       52366.00    229728.40
  207.66        2966.75           1455       53266.00    233703.00
  207.68        2967.00           1458       53533.00    234882.30
  207.71        2967.25           1461       53478.00    234639.40
  207.74        2967.50           1465       52870.00    231954.10
  207.77        2967.75           1468       52129.00    228681.90
  207.79        2968.00           1471       50842.00    223000.10
  207.82        2968.25           1475       48770.00    213856.50
  207.85        2968.50           1478       46305.00    202984.80
  207.88        2968.75           1481       43971.00    192696.90
  207.90        2969.00           1485       40305.00    176549.80
  207.93        2969.25           1488       37726.00    165199.20
  207.96        2969.50           1491       35218.00    154168.00
  207.99        2969.75           1495       31870.00    139452.80
  208.01        2970.00           1498       29312.00    128218.00
  208.04        2970.25           1501       26800.00    117192.10
  208.07        2970.50           1505       23354.00    102077.70
  208.10        2970.75           1508       20868.00     91181.94
  208.12        2971.00           1511       18494.00     80783.22
  208.15        2971.25           1515       15132.00     66067.18
  208.18        2971.50           1518       12645.00     55188.97
  208.21        2971.75           1521       10357.00     45187.04
  208.23        2972.00           1525        7104.00     30976.29
  208.26        2972.25           1528        4808.00     20953.00
  208.29        2972.50           1531        2774.00     12078.19
  208.32        2972.75           1535        1068.00      4637.92
  208.34        2973.00           1538         370.00      1594.67
  208.37        2973.25           1541         118.00       496.08
  208.40        2973.50           1545          42.00       164.78
  208.42        2973.75           1548          37.00       142.98
  208.45        2974.00           1551          29.00       108.11
  208.48        2974.25           1555          25.00        90.67
  208.51        2974.50           1558          24.00        86.31
  208.53        2974.75           1561          18.00        60.16
  208.56        2975.00           1565          20.00        68.88
  208.59        2975.25           1568          20.00        68.88
  208.61        2975.50           1571          23.00        81.95
  208.64        2975.75           1575          24.00        86.31
  208.67        2976.00           1578          20.00        68.88
  208.70        2976.25           1581          21.00        73.23
  208.72        2976.50           1585          21.00        73.23
  208.75        2976.75           1588          15.00        47.08
  208.78        2977.00           1591          20.00        68.88
  208.81        2977.25           1595          22.00        77.59
  208.83        2977.50           1598          23.00        81.95
  208.86        2977.75           1601          20.00        68.88
  208.89        2978.00           1605          20.00        68.88
  208.92        2978.25           1608          24.00        86.31
  208.94        2978.50           1611          22.00        77.59
  208.97        2978.75           1615          20.00        68.88
  209.00        2979.00           1618          17.00        55.80
  209.03        2979.25           1621          17.00        55.80
  209.05        2979.50           1625          20.00        68.88
  209.08        2979.75           1628          17.00        55.80
  209.11        2980.00           1631          21.00        73.23
  209.14        2980.25           1635          19.00        64.52
  209.16        2980.50           1638          18.00        60.16
  209.19        2980.75           1641          19.00        64.52
  209.22        2981.00           1645          18.00        60.16
  209.24        2981.25           1648          22.00        77.59
  209.27        2981.50           1651          17.00        55.80
  209.30        2981.75           1655          17.00        55.80
  209.33        2982.00           1658          16.00        51.44
  209.35        2982.25           1661          17.00        55.80
  209.38        2982.50           1665          15.00        47.08
  209.41        2982.75           1668          16.00        51.44
  209.43        2983.00           1671          18.00        60.16
  209.46        2983.25           1675          18.00        60.16
  209.49        2983.50           1678          18.00        60.16
  209.52        2983.75           1681          19.00        64.52
  209.54        2984.00           1685          15.00        47.08
HS scan finished at 03:29:44
end
