************************************************************
  HS Scan of (1) Internal mercury lamp
************************************************************
Integration time is 0.2294 seconds per sample
dh290417Tamanrasset 22.79-5.529 3.149168pr865
************************************************************
Dead Time -------------------------  2.8E-08 
Number of Cycles Used -------------  4 
Starting Wavelength (Angstroms) ---  2950 
Final Wavelength (Angstoms) -------  2984 
Wavelength Increment (Angstroms) --  .25 
Filter Wheel #1 Position ---------- (1) Ground quartz diffuser (ND=2.32)
Filter Wheel #2 Position ---------- (1) Neutral Density 0.494



************************************************************
HS scan start time = 02:50:18
Dark Count =  3.4 


Time (GMT)  Wavelength (Ang)  Step Number  Raw Counts  Counts/Second

  170.65        2950.00           1233           7.00        15.69
  170.71        2950.25           1236           8.00        20.05
  170.74        2950.50           1239           5.00         6.97
  170.77        2950.75           1242           9.00        24.41
  170.79        2951.00           1246           6.00        11.33
  170.82        2951.25           1249           8.00        20.05
  170.85        2951.50           1252           4.00         2.62
  170.88        2951.75           1256           7.00        15.69
  170.90        2952.00           1259           6.00        11.33
  170.93        2952.25           1262           8.00        20.05
  170.96        2952.50           1266           5.00         6.97
  170.98        2952.75           1269           7.00        15.69
  171.01        2953.00           1272           5.00         6.97
  171.04        2953.25           1276           4.00         2.62
  171.07        2953.50           1279           1.00         2.00
  171.09        2953.75           1282           6.00        11.33
  171.12        2954.00           1286           1.00         2.00
  171.15        2954.25           1289           8.00        20.05
  171.17        2954.50           1292           7.00        15.69
  171.20        2954.75           1295           5.00         6.97
  171.23        2955.00           1299           4.00         2.62
  171.26        2955.25           1302           3.00         2.00
  171.28        2955.50           1305           7.00        15.69
  171.31        2955.75           1309           6.00        11.33
  171.34        2956.00           1312           6.00        11.33
  171.36        2956.25           1315           9.00        24.41
  171.39        2956.50           1319           6.00        11.33
  171.42        2956.75           1322           8.00        20.05
  171.45        2957.00           1325           4.00         2.62
  171.47        2957.25           1329           2.00         2.00
  171.50        2957.50           1332           5.00         6.97
  171.53        2957.75           1335           6.00        11.33
  171.55        2958.00           1339           5.00         6.97
  171.58        2958.25           1342           8.00        20.05
  171.61        2958.50           1345           0.00         2.00
  171.64        2958.75           1348           4.00         2.62
  171.66        2959.00           1352           5.00         6.97
  171.69        2959.25           1355           8.00        20.05
  171.72        2959.50           1358           6.00        11.33
  171.74        2959.75           1362           7.00        15.69
  171.77        2960.00           1365           5.00         6.97
  171.80        2960.25           1368           0.00         2.00
  171.83        2960.50           1372           5.00         6.97
  171.85        2960.75           1375           3.00         2.00
  171.88        2961.00           1378           8.00        20.05
  171.91        2961.25           1382           7.00        15.69
  171.93        2961.50           1385           6.00        11.33
  171.96        2961.75           1388           5.00         6.97
  171.99        2962.00           1392           8.00        20.05
  172.02        2962.25           1395           3.00         2.00
  172.04        2962.50           1398           3.00         2.00
  172.07        2962.75           1402           4.00         2.62
  172.10        2963.00           1405           6.00        11.33
  172.12        2963.25           1408           8.00        20.05
  172.15        2963.50           1412           6.00        11.33
  172.18        2963.75           1415           9.00        24.41
  172.20        2964.00           1418           2.00         2.00
  172.23        2964.25           1422           7.00        15.69
  172.26        2964.50           1425           5.00         6.97
  172.29        2964.75           1428           8.00        20.05
  172.31        2965.00           1431           4.00         2.62
  172.34        2965.25           1435           5.00         6.97
  172.37        2965.50           1438           3.00         2.00
  172.39        2965.75           1441           5.00         6.97
  172.42        2966.00           1445           6.00        11.33
  172.45        2966.25           1448           6.00        11.33
  172.48        2966.50           1451           3.00         2.00
  172.50        2966.75           1455           5.00         6.97
  172.53        2967.00           1458           8.00        20.05
  172.56        2967.25           1461           6.00        11.33
  172.58        2967.50           1465           2.00         2.00
  172.61        2967.75           1468           5.00         6.97
  172.64        2968.00           1471           8.00        20.05
  172.67        2968.25           1475           2.00         2.00
  172.69        2968.50           1478           4.00         2.62
  172.72        2968.75           1481           6.00        11.33
  172.75        2969.00           1485           5.00         6.97
  172.77        2969.25           1488           4.00         2.62
  172.80        2969.50           1491           4.00         2.62
  172.83        2969.75           1495           5.00         6.97
  172.86        2970.00           1498           2.00         2.00
  172.88        2970.25           1501           4.00         2.62
  172.91        2970.50           1505           3.00         2.00
  172.94        2970.75           1508           3.00         2.00
  172.96        2971.00           1511           8.00        20.05
  172.99        2971.25           1515           8.00        20.05
  173.02        2971.50           1518           4.00         2.62
  173.05        2971.75           1521           5.00         6.97
  173.07        2972.00           1525           8.00        20.05
  173.10        2972.25           1528           8.00        20.05
  173.13        2972.50           1531           1.00         2.00
  173.15        2972.75           1535           8.00        20.05
  173.18        2973.00           1538           3.00         2.00
  173.21        2973.25           1541           8.00        20.05
  173.24        2973.50           1545           4.00         2.62
  173.26        2973.75           1548           1.00         2.00
  173.29        2974.00           1551           6.00        11.33
  173.32        2974.25           1555           5.00         6.97
  173.34        2974.50           1558           6.00        11.33
  173.37        2974.75           1561           5.00         6.97
  173.40        2975.00           1565           7.00        15.69
  173.43        2975.25           1568           9.00        24.41
  173.45        2975.50           1571           7.00        15.69
  173.48        2975.75           1575           7.00        15.69
  173.51        2976.00           1578           4.00         2.62
  173.53        2976.25           1581           8.00        20.05
  173.56        2976.50           1585           4.00         2.62
  173.59        2976.75           1588           6.00        11.33
  173.61        2977.00           1591           8.00        20.05
  173.64        2977.25           1595           0.00         2.00
  173.67        2977.50           1598           7.00        15.69
  173.70        2977.75           1601           6.00        11.33
  173.72        2978.00           1605           6.00        11.33
  173.75        2978.25           1608           5.00         6.97
  173.78        2978.50           1611           4.00         2.62
  173.80        2978.75           1615           1.00         2.00
  173.83        2979.00           1618           6.00        11.33
  173.86        2979.25           1621           8.00        20.05
  173.89        2979.50           1625           8.00        20.05
  173.91        2979.75           1628           6.00        11.33
  173.94        2980.00           1631           7.00        15.69
  173.97        2980.25           1635           2.00         2.00
  174.00        2980.50           1638           7.00        15.69
  174.02        2980.75           1641           3.00         2.00
  174.05        2981.00           1645           5.00         6.97
  174.08        2981.25           1648           5.00         6.97
  174.10        2981.50           1651           6.00        11.33
  174.13        2981.75           1655           6.00        11.33
  174.16        2982.00           1658           8.00        20.05
  174.18        2982.25           1661           7.00        15.69
  174.21        2982.50           1665           4.00         2.62
  174.24        2982.75           1668           8.00        20.05
  174.27        2983.00           1671           5.00         6.97
  174.29        2983.25           1675           3.00         2.00
  174.32        2983.50           1678           3.00         2.00
  174.35        2983.75           1681           5.00         6.97
  174.38        2984.00           1685           3.00         2.00
HS scan finished at 02:54:34
end
