************************************************************
  HS Scan of (1) Internal mercury lamp
************************************************************
Integration time is 0.2294 seconds per sample
dh200419Tamanrasset 22.79-5.529 4.974364pr865
************************************************************
Dead Time -------------------------  2.8E-08 
Number of Cycles Used -------------  4 
Starting Wavelength (Angstroms) ---  2950 
Final Wavelength (Angstoms) -------  2984 
Wavelength Increment (Angstroms) --  .25 
Filter Wheel #1 Position ---------- (1) Ground quartz diffuser (ND=2.32)
Filter Wheel #2 Position ---------- (1) Neutral Density 0.494



************************************************************
HS scan start time = 03:26:41
Dark Count =  5.4 


Time (GMT)  Wavelength (Ang)  Step Number  Raw Counts  Counts/Second

  207.05        2950.00           1233          21.00        68.00
  207.11        2950.25           1236          20.00        63.64
  207.14        2950.50           1239          16.00        46.21
  207.17        2950.75           1242          18.00        54.93
  207.19        2951.00           1246          14.00        37.49
  207.22        2951.25           1249          16.00        46.21
  207.25        2951.50           1252          16.00        46.21
  207.28        2951.75           1256          19.00        59.29
  207.30        2952.00           1259          19.00        59.29
  207.33        2952.25           1262          16.00        46.21
  207.36        2952.50           1266          21.00        68.00
  207.39        2952.75           1269          18.00        54.93
  207.41        2953.00           1272          18.00        54.93
  207.44        2953.25           1276          19.00        59.29
  207.47        2953.50           1279          16.00        46.21
  207.49        2953.75           1282          21.00        68.00
  207.52        2954.00           1286          20.00        63.64
  207.55        2954.25           1289          16.00        46.21
  207.58        2954.50           1292          20.00        63.64
  207.60        2954.75           1295          16.00        46.21
  207.63        2955.00           1299          20.00        63.64
  207.66        2955.25           1302          22.00        72.36
  207.69        2955.50           1305          22.00        72.36
  207.71        2955.75           1309          19.00        59.29
  207.74        2956.00           1312          18.00        54.93
  207.77        2956.25           1315          18.00        54.93
  207.79        2956.50           1319          19.00        59.29
  207.82        2956.75           1322          17.00        50.57
  207.85        2957.00           1325          15.00        41.85
  207.88        2957.25           1329          17.00        50.57
  207.90        2957.50           1332          20.00        63.64
  207.93        2957.75           1335          19.00        59.29
  207.96        2958.00           1339          21.00        68.00
  207.99        2958.25           1342          21.00        68.00
  208.01        2958.50           1345          15.00        41.85
  208.04        2958.75           1348          22.00        72.36
  208.07        2959.00           1352          24.00        81.08
  208.09        2959.25           1355          19.00        59.29
  208.12        2959.50           1358          22.00        72.36
  208.15        2959.75           1362          22.00        72.36
  208.18        2960.00           1365          31.00       111.60
  208.20        2960.25           1368          23.00        76.72
  208.23        2960.50           1372          31.00       111.60
  208.26        2960.75           1375          33.00       120.31
  208.29        2961.00           1378          67.00       268.53
  208.31        2961.25           1382         352.00      1510.96
  208.34        2961.50           1385         951.00      4122.53
  208.37        2961.75           1388        2025.00      8806.01
  208.40        2962.00           1392        4355.00     18970.84
  208.42        2962.25           1395        6586.00     28709.21
  208.45        2962.50           1398        9087.00     39632.45
  208.48        2962.75           1402       12147.00     53006.25
  208.50        2963.00           1405       14906.00     65073.12
  208.53        2963.25           1408       17298.00     75541.48
  208.56        2963.50           1412       20473.00     89446.06
  208.59        2963.75           1415       23058.00    100774.80
  208.61        2964.00           1418       25305.00    110628.10
  208.64        2964.25           1422       28460.00    124472.30
  208.67        2964.50           1425       31099.00    136060.50
  208.70        2964.75           1428       33424.00    146276.20
  208.73        2965.00           1431       36084.00    157971.00
  208.75        2965.25           1435       39481.00    172917.10
  208.78        2965.50           1438       41813.00    183184.80
  208.81        2965.75           1441       44485.00    194956.70
  208.84        2966.00           1445       47671.00    209003.40
  208.86        2966.25           1448       49679.00    217862.00
  208.89        2966.50           1451       51499.00    225895.10
  208.92        2966.75           1455       52802.00    231648.50
  208.95        2967.00           1458       53661.00    235442.40
  208.97        2967.25           1461       53651.00    235398.20
  209.00        2967.50           1465       53543.00    234921.20
  209.03        2967.75           1468       53214.00    233468.10
  209.06        2968.00           1471       52299.00    229427.30
  209.08        2968.25           1475       50428.00    221167.50
  209.11        2968.50           1478       48532.00    212801.30
  209.14        2968.75           1481       45765.00    200598.70
  209.16        2969.00           1485       42280.00    185241.70
  209.19        2969.25           1488       39923.00    174862.80
  209.22        2969.50           1491       37064.00    162281.50
  209.25        2969.75           1495       33787.00    147871.70
  209.28        2970.00           1498       31121.00    136157.20
  209.30        2970.25           1501       28604.00    125104.40
  209.33        2970.50           1505       25429.00    111172.00
  209.36        2970.75           1508       22654.00     99003.80
  209.39        2971.00           1511       20194.00     88223.78
  209.41        2971.25           1515       16977.00     74136.30
  209.44        2971.50           1518       14549.00     63511.28
  209.47        2971.75           1521       12231.00     53373.52
  209.50        2972.00           1525        8896.00     38798.01
  209.52        2972.25           1528        6557.00     28582.59
  209.55        2972.50           1531        4326.00     18844.29
  209.58        2972.75           1535        1862.00      8095.12
  209.60        2973.00           1538         800.00      3464.15
  209.63        2973.25           1541         257.00      1096.81
  209.66        2973.50           1545          55.00       216.22
  209.69        2973.75           1548          37.00       137.75
  209.71        2974.00           1551          30.00       107.24
  209.74        2974.25           1555          30.00       107.24
  209.77        2974.50           1558          25.00        85.44
  209.80        2974.75           1561          25.00        85.44
  209.82        2975.00           1565          21.00        68.00
  209.85        2975.25           1568          19.00        59.29
  209.88        2975.50           1571          20.00        63.64
  209.91        2975.75           1575          21.00        68.00
  209.93        2976.00           1578          20.00        63.64
  209.96        2976.25           1581          16.00        46.21
  209.99        2976.50           1585          23.00        76.72
  210.01        2976.75           1588          21.00        68.00
  210.04        2977.00           1591          22.00        72.36
  210.07        2977.25           1595          16.00        46.21
  210.10        2977.50           1598          22.00        72.36
  210.12        2977.75           1601          22.00        72.36
  210.15        2978.00           1605          19.00        59.29
  210.18        2978.25           1608          23.00        76.72
  210.21        2978.50           1611          25.00        85.44
  210.23        2978.75           1615          16.00        46.21
  210.26        2979.00           1618          18.00        54.93
  210.29        2979.25           1621          22.00        72.36
  210.31        2979.50           1625          20.00        63.64
  210.34        2979.75           1628          19.00        59.29
  210.37        2980.00           1631          20.00        63.64
  210.40        2980.25           1635          14.00        37.49
  210.42        2980.50           1638          20.00        63.64
  210.45        2980.75           1641          19.00        59.29
  210.48        2981.00           1645          23.00        76.72
  210.51        2981.25           1648          19.00        59.29
  210.53        2981.50           1651          16.00        46.21
  210.56        2981.75           1655          21.00        68.00
  210.59        2982.00           1658          22.00        72.36
  210.61        2982.25           1661          18.00        54.93
  210.64        2982.50           1665          19.00        59.29
  210.67        2982.75           1668          20.00        63.64
  210.70        2983.00           1671          21.00        68.00
  210.72        2983.25           1675          19.00        59.29
  210.75        2983.50           1678          18.00        54.93
  210.78        2983.75           1681          18.00        54.93
  210.81        2984.00           1685          16.00        46.21
HS scan finished at 03:31:00
end
