************************************************************
  HS Scan of (1) Internal mercury lamp
************************************************************
Integration time is 0.2294 seconds per sample
dh260517Tamanrasset 22.79-5.529 3.093087pr865
************************************************************
Dead Time -------------------------  2.8E-08 
Number of Cycles Used -------------  4 
Starting Wavelength (Angstroms) ---  2950 
Final Wavelength (Angstoms) -------  2984 
Wavelength Increment (Angstroms) --  .25 
Filter Wheel #1 Position ---------- (1) Ground quartz diffuser (ND=2.32)
Filter Wheel #2 Position ---------- (1) Neutral Density 0.494



************************************************************
HS scan start time = 02:36:29
Dark Count =  3.5 


Time (GMT)  Wavelength (Ang)  Step Number  Raw Counts  Counts/Second

  156.85        2950.00           1233           0.00         2.00
  156.91        2950.25           1236           4.00         2.18
  156.94        2950.50           1239           1.00         2.00
  156.96        2950.75           1242           2.00         2.00
  156.99        2951.00           1246           8.00        19.62
  157.02        2951.25           1249           8.00        19.62
  157.04        2951.50           1252           4.00         2.18
  157.07        2951.75           1256           5.00         6.54
  157.10        2952.00           1259           7.00        15.26
  157.13        2952.25           1262           4.00         2.18
  157.15        2952.50           1266           7.00        15.26
  157.18        2952.75           1269           8.00        19.62
  157.21        2953.00           1272           6.00        10.90
  157.23        2953.25           1276           1.00         2.00
  157.26        2953.50           1279           3.00         2.00
  157.29        2953.75           1282           6.00        10.90
  157.32        2954.00           1286           6.00        10.90
  157.34        2954.25           1289           3.00         2.00
  157.37        2954.50           1292           7.00        15.26
  157.40        2954.75           1295           8.00        19.62
  157.42        2955.00           1299           6.00        10.90
  157.45        2955.25           1302           3.00         2.00
  157.48        2955.50           1305           4.00         2.18
  157.50        2955.75           1309           4.00         2.18
  157.53        2956.00           1312           6.00        10.90
  157.56        2956.25           1315           5.00         6.54
  157.59        2956.50           1319           2.00         2.00
  157.61        2956.75           1322           2.00         2.00
  157.64        2957.00           1325           2.00         2.00
  157.67        2957.25           1329           8.00        19.62
  157.69        2957.50           1332           8.00        19.62
  157.72        2957.75           1335           5.00         6.54
  157.75        2958.00           1339           4.00         2.18
  157.78        2958.25           1342           6.00        10.90
  157.80        2958.50           1345           7.00        15.26
  157.83        2958.75           1348           0.00         2.00
  157.86        2959.00           1352           5.00         6.54
  157.88        2959.25           1355           7.00        15.26
  157.91        2959.50           1358           6.00        10.90
  157.94        2959.75           1362           7.00        15.26
  157.97        2960.00           1365           5.00         6.54
  157.99        2960.25           1368           6.00        10.90
  158.02        2960.50           1372           4.00         2.18
  158.05        2960.75           1375           9.00        23.98
  158.07        2961.00           1378           5.00         6.54
  158.10        2961.25           1382           2.00         2.00
  158.13        2961.50           1385           4.00         2.18
  158.16        2961.75           1388           6.00        10.90
  158.18        2962.00           1392           6.00        10.90
  158.21        2962.25           1395           7.00        15.26
  158.24        2962.50           1398           3.00         2.00
  158.26        2962.75           1402           8.00        19.62
  158.29        2963.00           1405           5.00         6.54
  158.32        2963.25           1408           2.00         2.00
  158.35        2963.50           1412           4.00         2.18
  158.37        2963.75           1415           1.00         2.00
  158.40        2964.00           1418           7.00        15.26
  158.43        2964.25           1422           2.00         2.00
  158.45        2964.50           1425           3.00         2.00
  158.48        2964.75           1428           4.00         2.18
  158.51        2965.00           1431           3.00         2.00
  158.54        2965.25           1435           4.00         2.18
  158.56        2965.50           1438           6.00        10.90
  158.59        2965.75           1441           2.00         2.00
  158.62        2966.00           1445           5.00         6.54
  158.64        2966.25           1448           0.00         2.00
  158.67        2966.50           1451           0.00         2.00
  158.70        2966.75           1455           4.00         2.18
  158.72        2967.00           1458           5.00         6.54
  158.75        2967.25           1461           7.00        15.26
  158.78        2967.50           1465           8.00        19.62
  158.81        2967.75           1468           0.00         2.00
  158.83        2968.00           1471           4.00         2.18
  158.86        2968.25           1475           6.00        10.90
  158.89        2968.50           1478           4.00         2.18
  158.91        2968.75           1481           5.00         6.54
  158.94        2969.00           1485           8.00        19.62
  158.97        2969.25           1488           6.00        10.90
  159.00        2969.50           1491           3.00         2.00
  159.02        2969.75           1495           8.00        19.62
  159.05        2970.00           1498           8.00        19.62
  159.08        2970.25           1501           3.00         2.00
  159.10        2970.50           1505           4.00         2.18
  159.13        2970.75           1508           3.00         2.00
  159.16        2971.00           1511           5.00         6.54
  159.19        2971.25           1515           6.00        10.90
  159.21        2971.50           1518           8.00        19.62
  159.24        2971.75           1521           5.00         6.54
  159.27        2972.00           1525           0.00         2.00
  159.29        2972.25           1528           2.00         2.00
  159.32        2972.50           1531           1.00         2.00
  159.35        2972.75           1535           2.00         2.00
  159.38        2973.00           1538           7.00        15.26
  159.40        2973.25           1541           0.00         2.00
  159.43        2973.50           1545           1.00         2.00
  159.46        2973.75           1548           7.00        15.26
  159.48        2974.00           1551           4.00         2.18
  159.51        2974.25           1555           5.00         6.54
  159.54        2974.50           1558           8.00        19.62
  159.57        2974.75           1561           5.00         6.54
  159.59        2975.00           1565           7.00        15.26
  159.62        2975.25           1568           6.00        10.90
  159.65        2975.50           1571           4.00         2.18
  159.67        2975.75           1575           0.00         2.00
  159.70        2976.00           1578           6.00        10.90
  159.73        2976.25           1581           4.00         2.18
  159.76        2976.50           1585           7.00        15.26
  159.78        2976.75           1588           5.00         6.54
  159.81        2977.00           1591           4.00         2.18
  159.84        2977.25           1595           5.00         6.54
  159.86        2977.50           1598           7.00        15.26
  159.89        2977.75           1601           4.00         2.18
  159.92        2978.00           1605           2.00         2.00
  159.95        2978.25           1608           6.00        10.90
  159.97        2978.50           1611           2.00         2.00
  160.00        2978.75           1615           5.00         6.54
  160.03        2979.00           1618           0.00         2.00
  160.05        2979.25           1621           2.00         2.00
  160.08        2979.50           1625           4.00         2.18
  160.11        2979.75           1628           3.00         2.00
  160.14        2980.00           1631           5.00         6.54
  160.16        2980.25           1635           1.00         2.00
  160.19        2980.50           1638           7.00        15.26
  160.22        2980.75           1641           1.00         2.00
  160.24        2981.00           1645           8.00        19.62
  160.27        2981.25           1648           6.00        10.90
  160.30        2981.50           1651           8.00        19.62
  160.33        2981.75           1655           4.00         2.18
  160.35        2982.00           1658           5.00         6.54
  160.38        2982.25           1661           5.00         6.54
  160.41        2982.50           1665           5.00         6.54
  160.43        2982.75           1668           6.00        10.90
  160.46        2983.00           1671           6.00        10.90
  160.49        2983.25           1675           3.00         2.00
  160.51        2983.50           1678           2.00         2.00
  160.54        2983.75           1681           6.00        10.90
  160.57        2984.00           1685           7.00        15.26
HS scan finished at 02:40:45
end
