************************************************************
  HS Scan of (1) Internal mercury lamp
************************************************************
Integration time is 0.2294 seconds per sample
dh200619El Arenosillo 37.1 6.73 3.103284pr1000
************************************************************
Dead Time -------------------------  2.8E-08 
Number of Cycles Used -------------  4 
Starting Wavelength (Angstroms) ---  2950 
Final Wavelength (Angstoms) -------  2984 
Wavelength Increment (Angstroms) --  .25 
Filter Wheel #1 Position ---------- (1) Ground quartz diffuser (ND=2.32)
Filter Wheel #2 Position ---------- (1) Neutral Density 0.494



************************************************************
HS scan start time = 21:49:03
Dark Count =  2.3 


Time (GMT)  Wavelength (Ang)  Step Number  Raw Counts  Counts/Second

 1309.42        2950.00           1233          19.00        72.80
 1309.48        2950.25           1236          20.00        77.16
 1309.51        2950.50           1239          16.00        59.72
 1309.54        2950.75           1242          18.00        68.44
 1309.57        2951.00           1246          21.00        81.52
 1309.60        2951.25           1249          19.00        72.80
 1309.63        2951.50           1252          16.00        59.72
 1309.65        2951.75           1256          16.00        59.72
 1309.68        2952.00           1259          20.00        77.16
 1309.71        2952.25           1262          17.00        64.08
 1309.74        2952.50           1266          16.00        59.72
 1309.77        2952.75           1269          20.00        77.16
 1309.80        2953.00           1272          16.00        59.72
 1309.83        2953.25           1276          17.00        64.08
 1309.86        2953.50           1279          20.00        77.16
 1309.89        2953.75           1282          20.00        77.16
 1309.91        2954.00           1286          18.00        68.44
 1309.94        2954.25           1289          16.00        59.72
 1309.97        2954.50           1292          23.00        90.24
 1310.00        2954.75           1295          20.00        77.16
 1310.03        2955.00           1299          17.00        64.08
 1310.06        2955.25           1302          19.00        72.80
 1310.09        2955.50           1305          21.00        81.52
 1310.12        2955.75           1309          19.00        72.80
 1310.14        2956.00           1312          17.00        64.08
 1310.17        2956.25           1315          15.00        55.36
 1310.20        2956.50           1319          20.00        77.16
 1310.23        2956.75           1322          15.00        55.36
 1310.26        2957.00           1325          20.00        77.16
 1310.29        2957.25           1329          17.00        64.08
 1310.32        2957.50           1332          17.00        64.08
 1310.35        2957.75           1335          19.00        72.80
 1310.37        2958.00           1339          14.00        51.00
 1310.40        2958.25           1342          19.00        72.80
 1310.43        2958.50           1345          17.00        64.08
 1310.46        2958.75           1348          19.00        72.80
 1310.49        2959.00           1352          19.00        72.80
 1310.52        2959.25           1355          20.00        77.16
 1310.55        2959.50           1358          19.00        72.80
 1310.57        2959.75           1362          25.00        98.95
 1310.60        2960.00           1365          21.00        81.52
 1310.63        2960.25           1368          26.00       103.31
 1310.66        2960.50           1372          28.00       112.03
 1310.69        2960.75           1375          47.00       194.86
 1310.72        2961.00           1378         151.00       648.22
 1310.75        2961.25           1382         610.00      2649.28
 1310.78        2961.50           1385        1458.00      6346.81
 1310.81        2961.75           1388        2846.00     12400.56
 1310.83        2962.00           1392        5270.00     22977.73
 1310.86        2962.25           1395        7766.00     33875.63
 1310.89        2962.50           1398       10224.00     44614.12
 1310.92        2962.75           1402       13315.00     58127.23
 1310.95        2963.00           1405       15970.00     69742.43
 1310.98        2963.25           1408       18654.00     81492.19
 1311.01        2963.50           1412       22107.00     96619.80
 1311.04        2963.75           1415       24267.00    106089.30
 1311.07        2964.00           1418       26647.00    116529.10
 1311.10        2964.25           1422       30128.00    131809.50
 1311.13        2964.50           1425       32539.00    142400.60
 1311.15        2964.75           1428       35038.00    153384.90
 1311.18        2965.00           1431       37730.00    165225.10
 1311.21        2965.25           1435       40878.00    179081.00
 1311.24        2965.50           1438       43234.00    189457.90
 1311.27        2965.75           1441       46169.00    202393.50
 1311.30        2966.00           1445       49095.00    215298.80
 1311.33        2966.25           1448       51078.00    224050.30
 1311.36        2966.50           1451       52802.00    231662.20
 1311.38        2966.75           1455       54166.00    237686.90
 1311.41        2967.00           1458       54440.00    238897.40
 1311.44        2967.25           1461       54619.00    239688.20
 1311.47        2967.50           1465       54090.00    237351.20
 1311.50        2967.75           1468       53533.00    234890.70
 1311.53        2968.00           1471       52451.00    230112.10
 1311.56        2968.25           1475       50089.00    219685.00
 1311.59        2968.50           1478       47745.00    209343.40
 1311.62        2968.75           1481       45306.00    198589.00
 1311.65        2969.00           1485       41916.00    183652.10
 1311.67        2969.25           1488       39193.00    171663.10
 1311.70        2969.50           1491       36400.00    159374.40
 1311.73        2969.75           1495       33055.00    144668.10
 1311.76        2970.00           1498       30265.00    132411.10
 1311.79        2970.25           1501       27671.00    121022.70
 1311.82        2970.50           1505       24367.00    106527.80
 1311.85        2970.75           1508       21632.00     94538.06
 1311.88        2971.00           1511       19341.00     84500.91
 1311.91        2971.25           1515       15878.00     69339.81
 1311.94        2971.50           1518       13353.00     58293.42
 1311.96        2971.75           1521       10929.00     47695.30
 1311.99        2972.00           1525        7867.00     34316.74
 1312.02        2972.25           1528        5595.00     24396.35
 1312.05        2972.50           1531        3484.00     15183.87
 1312.08        2972.75           1535        1312.00      5710.15
 1312.11        2973.00           1538         474.00      2056.35
 1312.14        2973.25           1541         151.00       648.22
 1312.17        2973.50           1545          38.00       155.62
 1312.20        2973.75           1548          34.00       138.19
 1312.22        2974.00           1551          28.00       112.03
 1312.25        2974.25           1555          26.00       103.31
 1312.28        2974.50           1558          22.00        85.88
 1312.31        2974.75           1561          17.00        64.08
 1312.34        2975.00           1565          20.00        77.16
 1312.37        2975.25           1568          22.00        85.88
 1312.40        2975.50           1571          24.00        94.59
 1312.43        2975.75           1575          18.00        68.44
 1312.45        2976.00           1578          22.00        85.88
 1312.48        2976.25           1581          21.00        81.52
 1312.51        2976.50           1585          18.00        68.44
 1312.54        2976.75           1588          25.00        98.95
 1312.57        2977.00           1591          20.00        77.16
 1312.60        2977.25           1595          19.00        72.80
 1312.63        2977.50           1598          20.00        77.16
 1312.66        2977.75           1601          18.00        68.44
 1312.68        2978.00           1605          22.00        85.88
 1312.71        2978.25           1608          17.00        64.08
 1312.74        2978.50           1611          20.00        77.16
 1312.77        2978.75           1615          16.00        59.72
 1312.80        2979.00           1618          23.00        90.24
 1312.83        2979.25           1621          15.00        55.36
 1312.86        2979.50           1625          20.00        77.16
 1312.88        2979.75           1628          19.00        72.80
 1312.91        2980.00           1631          22.00        85.88
 1312.94        2980.25           1635          24.00        94.59
 1312.97        2980.50           1638          24.00        94.59
 1313.00        2980.75           1641          18.00        68.44
 1313.03        2981.00           1645          20.00        77.16
 1313.06        2981.25           1648          22.00        85.88
 1313.09        2981.50           1651          17.00        64.08
 1313.12        2981.75           1655          13.00        46.64
 1313.14        2982.00           1658          22.00        85.88
 1313.17        2982.25           1661          20.00        77.16
 1313.20        2982.50           1665          18.00        68.44
 1313.23        2982.75           1668          16.00        59.72
 1313.26        2983.00           1671          18.00        68.44
 1313.29        2983.25           1675          16.00        59.72
 1313.32        2983.50           1678          20.00        77.16
 1313.34        2983.75           1681          19.00        72.80
 1313.37        2984.00           1685          18.00        68.44
HS scan finished at 21:53:35
end
