************************************************************
  HS Scan of (1) Internal mercury lamp
************************************************************
Integration time is 0.2294 seconds per sample
dh220619El Arenosillo 37.1 6.73 3.14407pr1000
************************************************************
Dead Time -------------------------  2.8E-08 
Number of Cycles Used -------------  4 
Starting Wavelength (Angstroms) ---  2950 
Final Wavelength (Angstoms) -------  2984 
Wavelength Increment (Angstroms) --  .25 
Filter Wheel #1 Position ---------- (1) Ground quartz diffuser (ND=2.32)
Filter Wheel #2 Position ---------- (1) Neutral Density 0.494



************************************************************
HS scan start time = 02:14:08
Dark Count =  4.5 


Time (GMT)  Wavelength (Ang)  Step Number  Raw Counts  Counts/Second

  134.50        2950.00           1233          13.00        37.05
  134.57        2950.25           1236          20.00        67.57
  134.59        2950.50           1239          20.00        67.57
  134.62        2950.75           1242          21.00        71.93
  134.65        2951.00           1246          20.00        67.57
  134.68        2951.25           1249          18.00        58.85
  134.71        2951.50           1252          18.00        58.85
  134.74        2951.75           1256          21.00        71.93
  134.77        2952.00           1259          21.00        71.93
  134.80        2952.25           1262          17.00        54.49
  134.83        2952.50           1266          17.00        54.49
  134.85        2952.75           1269          21.00        71.93
  134.88        2953.00           1272          20.00        67.57
  134.91        2953.25           1276          18.00        58.85
  134.94        2953.50           1279          22.00        76.29
  134.97        2953.75           1282          21.00        71.93
  135.00        2954.00           1286          17.00        54.49
  135.03        2954.25           1289          18.00        58.85
  135.06        2954.50           1292          20.00        67.57
  135.09        2954.75           1295          20.00        67.57
  135.11        2955.00           1299          21.00        71.93
  135.14        2955.25           1302          19.00        63.21
  135.17        2955.50           1305          19.00        63.21
  135.20        2955.75           1309          18.00        58.85
  135.23        2956.00           1312          23.00        80.65
  135.26        2956.25           1315          20.00        67.57
  135.29        2956.50           1319          19.00        63.21
  135.32        2956.75           1322          20.00        67.57
  135.34        2957.00           1325          19.00        63.21
  135.37        2957.25           1329          16.00        50.13
  135.40        2957.50           1332          18.00        58.85
  135.43        2957.75           1335          21.00        71.93
  135.46        2958.00           1339          17.00        54.49
  135.49        2958.25           1342          19.00        63.21
  135.52        2958.50           1345          16.00        50.13
  135.55        2958.75           1348          18.00        58.85
  135.57        2959.00           1352          19.00        63.21
  135.60        2959.25           1355          25.00        89.36
  135.63        2959.50           1358          23.00        80.65
  135.66        2959.75           1362          21.00        71.93
  135.69        2960.00           1365          26.00        93.72
  135.72        2960.25           1368          28.00       102.44
  135.75        2960.50           1372          32.00       119.88
  135.78        2960.75           1375          55.00       220.14
  135.81        2961.00           1378         157.00       664.79
  135.83        2961.25           1382         658.00      2848.96
  135.86        2961.50           1385        1477.00      6420.07
  135.89        2961.75           1388        2848.00     12399.69
  135.92        2962.00           1392        5420.00     23622.86
  135.95        2962.25           1395        7904.00     34468.74
  135.98        2962.50           1398       10454.00     45609.65
  136.01        2962.75           1402       13835.00     60391.92
  136.04        2963.00           1405       16309.00     71216.41
  136.07        2963.25           1408       18821.00     82213.90
  136.09        2963.50           1412       22324.00     97561.27
  136.12        2963.75           1415       24595.00    107518.10
  136.15        2964.00           1418       27268.00    119244.50
  136.18        2964.25           1422       30700.00    134311.90
  136.21        2964.50           1425       32967.00    144271.70
  136.24        2964.75           1428       35631.00    155982.80
  136.27        2965.00           1431       38334.00    167873.10
  136.30        2965.25           1435       41824.00    183237.20
  136.33        2965.50           1438       44344.00    194339.30
  136.35        2965.75           1441       46727.00    204844.20
  136.38        2966.00           1445       49802.00    218408.70
  136.41        2966.25           1448       51890.00    227625.40
  136.44        2966.50           1451       53674.00    235503.80
  136.47        2966.75           1455       54782.00    240398.70
  136.50        2967.00           1458       55154.00    242042.40
  136.53        2967.25           1461       55220.00    242334.10
  136.56        2967.50           1465       55018.00    241441.50
  136.59        2967.75           1468       54265.00    238114.50
  136.62        2968.00           1471       53507.00    234766.20
  136.65        2968.25           1475       50475.00    221378.90
  136.67        2968.50           1478       48470.00    212531.70
  136.70        2968.75           1481       45788.00    200704.10
  136.73        2969.00           1485       42252.00    185122.30
  136.76        2969.25           1488       39700.00    173885.10
  136.79        2969.50           1491       37048.00    162215.10
  136.82        2969.75           1495       33442.00    146359.30
  136.85        2970.00           1498       30712.00    134364.60
  136.88        2970.25           1501       28024.00    122562.40
  136.91        2970.50           1505       24531.00    107237.40
  136.93        2970.75           1508       22225.00     97127.34
  136.96        2971.00           1511       19477.00     85086.96
  136.99        2971.25           1515       15870.00     69295.18
  137.02        2971.50           1518       13296.00     58034.51
  137.05        2971.75           1521       10760.00     46947.03
  137.08        2972.00           1525        7443.00     32455.38
  137.11        2972.25           1528        5130.00     22357.06
  137.14        2972.50           1531        3163.00     13773.84
  137.17        2972.75           1535        1180.00      5124.97
  137.20        2973.00           1538         424.00      1828.78
  137.22        2973.25           1541         110.00       459.90
  137.25        2973.50           1545          42.00       163.47
  137.28        2973.75           1548          31.00       115.52
  137.31        2974.00           1551          26.00        93.72
  137.34        2974.25           1555          22.00        76.29
  137.37        2974.50           1558          23.00        80.65
  137.40        2974.75           1561          21.00        71.93
  137.42        2975.00           1565          24.00        85.00
  137.45        2975.25           1568          17.00        54.49
  137.48        2975.50           1571          21.00        71.93
  137.51        2975.75           1575          21.00        71.93
  137.54        2976.00           1578          23.00        80.65
  137.57        2976.25           1581          20.00        67.57
  137.60        2976.50           1585          20.00        67.57
  137.63        2976.75           1588          18.00        58.85
  137.66        2977.00           1591          23.00        80.65
  137.68        2977.25           1595          18.00        58.85
  137.71        2977.50           1598          17.00        54.49
  137.74        2977.75           1601          25.00        89.36
  137.77        2978.00           1605          24.00        85.00
  137.80        2978.25           1608          18.00        58.85
  137.83        2978.50           1611          21.00        71.93
  137.86        2978.75           1615          22.00        76.29
  137.89        2979.00           1618          19.00        63.21
  137.91        2979.25           1621          22.00        76.29
  137.94        2979.50           1625          21.00        71.93
  137.97        2979.75           1628          19.00        63.21
  138.00        2980.00           1631          20.00        67.57
  138.03        2980.25           1635          23.00        80.65
  138.06        2980.50           1638          21.00        71.93
  138.09        2980.75           1641          17.00        54.49
  138.12        2981.00           1645          19.00        63.21
  138.14        2981.25           1648          21.00        71.93
  138.17        2981.50           1651          21.00        71.93
  138.20        2981.75           1655          16.00        50.13
  138.23        2982.00           1658          20.00        67.57
  138.26        2982.25           1661          20.00        67.57
  138.29        2982.50           1665          16.00        50.13
  138.32        2982.75           1668          22.00        76.29
  138.35        2983.00           1671          17.00        54.49
  138.38        2983.25           1675          17.00        54.49
  138.40        2983.50           1678          18.00        58.85
  138.43        2983.75           1681          16.00        50.13
  138.46        2984.00           1685          15.00        45.77
HS scan finished at 02:18:40
end
************************************************************
  HS Scan of (1) Internal mercury lamp
************************************************************
Integration time is 0.2294 seconds per sample
dh220619El Arenosillo 37.1 6.73 3.02171pr1000
************************************************************
Dead Time -------------------------  2.8E-08 
Number of Cycles Used -------------  4 
Starting Wavelength (Angstroms) ---  2950 
Final Wavelength (Angstoms) -------  2984 
Wavelength Increment (Angstroms) --  .25 
Filter Wheel #1 Position ---------- (1) Ground quartz diffuser (ND=2.32)
Filter Wheel #2 Position ---------- (1) Neutral Density 0.494



************************************************************
HS scan start time = 22:07:57
Dark Count =  5 


Time (GMT)  Wavelength (Ang)  Step Number  Raw Counts  Counts/Second

 1328.32        2950.00           1233          20.00        65.39
 1328.38        2950.25           1236          19.00        61.03
 1328.41        2950.50           1239          18.00        56.67
 1328.44        2950.75           1242          17.00        52.31
 1328.47        2951.00           1246          18.00        56.67
 1328.50        2951.25           1249          16.00        47.95
 1328.52        2951.50           1252          20.00        65.39
 1328.55        2951.75           1256          19.00        61.03
 1328.58        2952.00           1259          17.00        52.31
 1328.61        2952.25           1262          17.00        52.31
 1328.64        2952.50           1266          21.00        69.75
 1328.67        2952.75           1269          19.00        61.03
 1328.70        2953.00           1272          21.00        69.75
 1328.73        2953.25           1276          16.00        47.95
 1328.75        2953.50           1279          21.00        69.75
 1328.78        2953.75           1282          16.00        47.95
 1328.81        2954.00           1286          14.00        39.23
 1328.84        2954.25           1289          18.00        56.67
 1328.87        2954.50           1292          24.00        82.82
 1328.90        2954.75           1295          23.00        78.47
 1328.93        2955.00           1299          21.00        69.75
 1328.96        2955.25           1302          19.00        61.03
 1328.98        2955.50           1305          18.00        56.67
 1329.01        2955.75           1309          22.00        74.11
 1329.04        2956.00           1312          21.00        69.75
 1329.07        2956.25           1315          19.00        61.03
 1329.10        2956.50           1319          19.00        61.03
 1329.13        2956.75           1322          19.00        61.03
 1329.16        2957.00           1325          19.00        61.03
 1329.19        2957.25           1329          17.00        52.31
 1329.21        2957.50           1332          19.00        61.03
 1329.24        2957.75           1335          18.00        56.67
 1329.27        2958.00           1339          18.00        56.67
 1329.30        2958.25           1342          17.00        52.31
 1329.33        2958.50           1345          21.00        69.75
 1329.36        2958.75           1348          18.00        56.67
 1329.39        2959.00           1352          23.00        78.47
 1329.42        2959.25           1355          15.00        43.59
 1329.44        2959.50           1358          23.00        78.47
 1329.47        2959.75           1362          20.00        65.39
 1329.50        2960.00           1365          23.00        78.47
 1329.53        2960.25           1368          25.00        87.18
 1329.56        2960.50           1372          25.00        87.18
 1329.59        2960.75           1375          50.00       196.16
 1329.62        2961.00           1378         188.00       797.75
 1329.64        2961.25           1382         680.00      2942.70
 1329.67        2961.50           1385        1508.00      6553.08
 1329.70        2961.75           1388        2905.00     12646.15
 1329.73        2962.00           1392        5447.00     23738.53
 1329.76        2962.25           1395        7580.00     33051.50
 1329.79        2962.50           1398        9961.00     43453.01
 1329.82        2962.75           1402       13162.00     57446.30
 1329.85        2963.00           1405       15611.00     68159.60
 1329.88        2963.25           1408       18024.00     78721.72
 1329.90        2963.50           1412       21185.00     92567.43
 1329.93        2963.75           1415       23467.00    102569.70
 1329.96        2964.00           1418       25974.00    113564.60
 1329.99        2964.25           1422       29098.00    127274.90
 1330.02        2964.50           1425       31438.00    137551.40
 1330.05        2964.75           1428       33973.00    148691.00
 1330.08        2965.00           1431       36446.00    159564.90
 1330.11        2965.25           1435       39742.00    174067.80
 1330.13        2965.50           1438       42303.00    185344.70
 1330.16        2965.75           1441       44366.00    194434.00
 1330.19        2966.00           1445       47675.00    209022.70
 1330.22        2966.25           1448       49526.00    217188.60
 1330.25        2966.50           1451       51220.00    224665.20
 1330.28        2966.75           1455       52392.00    229839.70
 1330.31        2967.00           1458       52807.00    231672.30
 1330.34        2967.25           1461       52745.00    231398.60
 1330.37        2967.50           1465       52777.00    231539.90
 1330.39        2967.75           1468       51854.00    227464.20
 1330.42        2968.00           1471       50798.00    222802.40
 1330.45        2968.25           1475       48331.00    211916.30
 1330.48        2968.50           1478       46099.00    202073.00
 1330.51        2968.75           1481       43597.00    191045.40
 1330.54        2969.00           1485       40544.00    177598.50
 1330.57        2969.25           1488       37690.00    165037.30
 1330.60        2969.50           1491       35288.00    154472.30
 1330.63        2969.75           1495       31734.00    138851.80
 1330.66        2970.00           1498       29035.00    126998.30
 1330.69        2970.25           1501       26590.00    116267.20
 1330.72        2970.50           1505       23577.00    103051.90
 1330.74        2970.75           1508       20746.00     90643.89
 1330.77        2971.00           1511       18449.00     80582.66
 1330.80        2971.25           1515       15093.00     65893.04
 1330.83        2971.50           1518       12402.00     54122.94
 1330.86        2971.75           1521       10046.00     43824.45
 1330.89        2972.00           1525        7101.00     30959.70
 1330.92        2972.25           1528        4745.00     20674.56
 1330.95        2972.50           1531        2762.00     12022.36
 1330.97        2972.75           1535        1004.00      4355.37
 1331.00        2973.00           1538         301.00      1290.37
 1331.03        2973.25           1541          96.00       396.69
 1331.06        2973.50           1545          39.00       148.21
 1331.09        2973.75           1548          29.00       104.62
 1331.12        2974.00           1551          27.00        95.90
 1331.15        2974.25           1555          26.00        91.54
 1331.17        2974.50           1558          21.00        69.75
 1331.20        2974.75           1561          30.00       108.98
 1331.23        2975.00           1565          18.00        56.67
 1331.26        2975.25           1568          23.00        78.47
 1331.29        2975.50           1571          17.00        52.31
 1331.32        2975.75           1575          16.00        47.95
 1331.35        2976.00           1578          19.00        61.03
 1331.38        2976.25           1581          18.00        56.67
 1331.40        2976.50           1585          20.00        65.39
 1331.43        2976.75           1588          22.00        74.11
 1331.46        2977.00           1591          20.00        65.39
 1331.49        2977.25           1595          20.00        65.39
 1331.52        2977.50           1598          18.00        56.67
 1331.55        2977.75           1601          20.00        65.39
 1331.58        2978.00           1605          18.00        56.67
 1331.60        2978.25           1608          18.00        56.67
 1331.63        2978.50           1611          21.00        69.75
 1331.66        2978.75           1615          20.00        65.39
 1331.69        2979.00           1618          20.00        65.39
 1331.72        2979.25           1621          20.00        65.39
 1331.75        2979.50           1625          21.00        69.75
 1331.78        2979.75           1628          22.00        74.11
 1331.80        2980.00           1631          24.00        82.82
 1331.83        2980.25           1635          19.00        61.03
 1331.86        2980.50           1638          19.00        61.03
 1331.89        2980.75           1641          17.00        52.31
 1331.92        2981.00           1645          22.00        74.11
 1331.95        2981.25           1648          22.00        74.11
 1331.98        2981.50           1651          20.00        65.39
 1332.01        2981.75           1655          25.00        87.18
 1332.03        2982.00           1658          17.00        52.31
 1332.06        2982.25           1661          23.00        78.47
 1332.09        2982.50           1665          22.00        74.11
 1332.12        2982.75           1668          15.00        43.59
 1332.15        2983.00           1671          19.00        61.03
 1332.18        2983.25           1675          22.00        74.11
 1332.21        2983.50           1678          18.00        56.67
 1332.24        2983.75           1681          18.00        56.67
 1332.26        2984.00           1685          17.00        52.31
HS scan finished at 22:12:28
end
