************************************************************
  HS Scan of (1) Internal mercury lamp
************************************************************
Integration time is 0.2294 seconds per sample
dh240617Tamanrasset 22.79-5.529 2.914646pr865
************************************************************
Dead Time -------------------------  2.8E-08 
Number of Cycles Used -------------  4 
Starting Wavelength (Angstroms) ---  2950 
Final Wavelength (Angstoms) -------  2984 
Wavelength Increment (Angstroms) --  .25 
Filter Wheel #1 Position ---------- (1) Ground quartz diffuser (ND=2.32)
Filter Wheel #2 Position ---------- (1) Neutral Density 0.494



************************************************************
HS scan start time = 02:36:18
Dark Count =  5.6 


Time (GMT)  Wavelength (Ang)  Step Number  Raw Counts  Counts/Second

  156.66        2950.00           1233           7.00         6.10
  156.72        2950.25           1236           6.00         2.00
  156.75        2950.50           1239           3.00         2.00
  156.77        2950.75           1242           4.00         2.00
  156.80        2951.00           1246           5.00         2.00
  156.83        2951.25           1249           8.00        10.46
  156.85        2951.50           1252           2.00         2.00
  156.88        2951.75           1256           5.00         2.00
  156.91        2952.00           1259           4.00         2.00
  156.94        2952.25           1262           8.00        10.46
  156.96        2952.50           1266           1.00         2.00
  156.99        2952.75           1269           7.00         6.10
  157.02        2953.00           1272           0.00         2.00
  157.04        2953.25           1276           6.00         2.00
  157.07        2953.50           1279           8.00        10.46
  157.10        2953.75           1282           6.00         2.00
  157.13        2954.00           1286           4.00         2.00
  157.15        2954.25           1289           5.00         2.00
  157.18        2954.50           1292           4.00         2.00
  157.21        2954.75           1295           8.00        10.46
  157.23        2955.00           1299           2.00         2.00
  157.26        2955.25           1302           5.00         2.00
  157.29        2955.50           1305           5.00         2.00
  157.31        2955.75           1309           3.00         2.00
  157.34        2956.00           1312           4.00         2.00
  157.37        2956.25           1315           7.00         6.10
  157.40        2956.50           1319           6.00         2.00
  157.42        2956.75           1322           6.00         2.00
  157.45        2957.00           1325           4.00         2.00
  157.48        2957.25           1329           7.00         6.10
  157.50        2957.50           1332           8.00        10.46
  157.53        2957.75           1335           0.00         2.00
  157.56        2958.00           1339           7.00         6.10
  157.59        2958.25           1342           3.00         2.00
  157.61        2958.50           1345           2.00         2.00
  157.64        2958.75           1348           0.00         2.00
  157.67        2959.00           1352           3.00         2.00
  157.69        2959.25           1355           2.00         2.00
  157.72        2959.50           1358           4.00         2.00
  157.75        2959.75           1362           0.00         2.00
  157.78        2960.00           1365           4.00         2.00
  157.80        2960.25           1368           8.00        10.46
  157.83        2960.50           1372           8.00        10.46
  157.86        2960.75           1375           7.00         6.10
  157.88        2961.00           1378           6.00         2.00
  157.91        2961.25           1382           7.00         6.10
  157.94        2961.50           1385           2.00         2.00
  157.97        2961.75           1388           8.00        10.46
  157.99        2962.00           1392           3.00         2.00
  158.02        2962.25           1395           6.00         2.00
  158.05        2962.50           1398           8.00        10.46
  158.07        2962.75           1402           0.00         2.00
  158.10        2963.00           1405           4.00         2.00
  158.13        2963.25           1408           7.00         6.10
  158.16        2963.50           1412           8.00        10.46
  158.18        2963.75           1415           8.00        10.46
  158.21        2964.00           1418           1.00         2.00
  158.24        2964.25           1422           8.00        10.46
  158.26        2964.50           1425           8.00        10.46
  158.29        2964.75           1428           3.00         2.00
  158.32        2965.00           1431           8.00        10.46
  158.35        2965.25           1435           0.00         2.00
  158.37        2965.50           1438           5.00         2.00
  158.40        2965.75           1441           2.00         2.00
  158.43        2966.00           1445           5.00         2.00
  158.45        2966.25           1448           7.00         6.10
  158.48        2966.50           1451           7.00         6.10
  158.51        2966.75           1455           7.00         6.10
  158.53        2967.00           1458           0.00         2.00
  158.56        2967.25           1461           3.00         2.00
  158.59        2967.50           1465           4.00         2.00
  158.62        2967.75           1468           8.00        10.46
  158.64        2968.00           1471           8.00        10.46
  158.67        2968.25           1475           0.00         2.00
  158.70        2968.50           1478           0.00         2.00
  158.72        2968.75           1481           8.00        10.46
  158.75        2969.00           1485           9.00        14.82
  158.78        2969.25           1488           0.00         2.00
  158.81        2969.50           1491           8.00        10.46
  158.83        2969.75           1495           5.00         2.00
  158.86        2970.00           1498           5.00         2.00
  158.89        2970.25           1501           6.00         2.00
  158.91        2970.50           1505           8.00        10.46
  158.94        2970.75           1508           7.00         6.10
  158.97        2971.00           1511           5.00         2.00
  159.00        2971.25           1515           5.00         2.00
  159.02        2971.50           1518           8.00        10.46
  159.05        2971.75           1521           0.00         2.00
  159.08        2972.00           1525           1.00         2.00
  159.10        2972.25           1528           3.00         2.00
  159.13        2972.50           1531           8.00        10.46
  159.16        2972.75           1535           8.00        10.46
  159.19        2973.00           1538           8.00        10.46
  159.21        2973.25           1541           8.00        10.46
  159.24        2973.50           1545           8.00        10.46
  159.27        2973.75           1548           8.00        10.46
  159.29        2974.00           1551           6.00         2.00
  159.32        2974.25           1555           8.00        10.46
  159.35        2974.50           1558           6.00         2.00
  159.38        2974.75           1561           1.00         2.00
  159.40        2975.00           1565           4.00         2.00
  159.43        2975.25           1568           0.00         2.00
  159.46        2975.50           1571           7.00         6.10
  159.48        2975.75           1575           5.00         2.00
  159.51        2976.00           1578           8.00        10.46
  159.54        2976.25           1581           0.00         2.00
  159.57        2976.50           1585           7.00         6.10
  159.59        2976.75           1588           5.00         2.00
  159.62        2977.00           1591           0.00         2.00
  159.65        2977.25           1595           1.00         2.00
  159.67        2977.50           1598           7.00         6.10
  159.70        2977.75           1601           5.00         2.00
  159.73        2978.00           1605           0.00         2.00
  159.75        2978.25           1608           7.00         6.10
  159.78        2978.50           1611           5.00         2.00
  159.81        2978.75           1615           5.00         2.00
  159.84        2979.00           1618           4.00         2.00
  159.86        2979.25           1621           7.00         6.10
  159.89        2979.50           1625           7.00         6.10
  159.92        2979.75           1628           2.00         2.00
  159.94        2980.00           1631           5.00         2.00
  159.97        2980.25           1635           8.00        10.46
  160.00        2980.50           1638           6.00         2.00
  160.03        2980.75           1641           8.00        10.46
  160.05        2981.00           1645           5.00         2.00
  160.08        2981.25           1648           7.00         6.10
  160.11        2981.50           1651           5.00         2.00
  160.13        2981.75           1655           9.00        14.82
  160.16        2982.00           1658           3.00         2.00
  160.19        2982.25           1661           8.00        10.46
  160.22        2982.50           1665           4.00         2.00
  160.24        2982.75           1668           2.00         2.00
  160.27        2983.00           1671           6.00         2.00
  160.30        2983.25           1675           0.00         2.00
  160.32        2983.50           1678           0.00         2.00
  160.35        2983.75           1681           6.00         2.00
  160.38        2984.00           1685           6.00         2.00
HS scan finished at 02:40:34
end
