************************************************************
  HS Scan of (1) Internal mercury lamp
************************************************************
Integration time is 0.2294 seconds per sample
dh200617Tamanrasset 22.79-5.529 3.378592pr865
************************************************************
Dead Time -------------------------  2.8E-08 
Number of Cycles Used -------------  4 
Starting Wavelength (Angstroms) ---  2950 
Final Wavelength (Angstoms) -------  2984 
Wavelength Increment (Angstroms) --  .25 
Filter Wheel #1 Position ---------- (1) Ground quartz diffuser (ND=2.32)
Filter Wheel #2 Position ---------- (1) Neutral Density 0.494



************************************************************
HS scan start time = 02:35:29
Dark Count =  5.4 


Time (GMT)  Wavelength (Ang)  Step Number  Raw Counts  Counts/Second

  155.84        2950.00           1233           6.00         2.62
  155.90        2950.25           1236           9.00        15.69
  155.93        2950.50           1239           5.00         2.00
  155.96        2950.75           1242           5.00         2.00
  155.98        2951.00           1246           4.00         2.00
  156.01        2951.25           1249           8.00        11.33
  156.04        2951.50           1252           7.00         6.97
  156.07        2951.75           1256           8.00        11.33
  156.09        2952.00           1259           7.00         6.97
  156.12        2952.25           1262           8.00        11.33
  156.15        2952.50           1266           5.00         2.00
  156.17        2952.75           1269           7.00         6.97
  156.20        2953.00           1272           2.00         2.00
  156.23        2953.25           1276           6.00         2.62
  156.26        2953.50           1279           9.00        15.69
  156.28        2953.75           1282           6.00         2.62
  156.31        2954.00           1286           7.00         6.97
  156.34        2954.25           1289           3.00         2.00
  156.36        2954.50           1292           6.00         2.62
  156.39        2954.75           1295           8.00        11.33
  156.42        2955.00           1299           7.00         6.97
  156.45        2955.25           1302           5.00         2.00
  156.47        2955.50           1305           6.00         2.62
  156.50        2955.75           1309           8.00        11.33
  156.53        2956.00           1312           6.00         2.62
  156.55        2956.25           1315           6.00         2.62
  156.58        2956.50           1319           9.00        15.69
  156.61        2956.75           1322           7.00         6.97
  156.64        2957.00           1325           5.00         2.00
  156.66        2957.25           1329           9.00        15.69
  156.69        2957.50           1332           8.00        11.33
  156.72        2957.75           1335           6.00         2.62
  156.74        2958.00           1339           5.00         2.00
  156.77        2958.25           1342           5.00         2.00
  156.80        2958.50           1345           9.00        15.69
  156.82        2958.75           1348           7.00         6.97
  156.85        2959.00           1352           5.00         2.00
  156.88        2959.25           1355           5.00         2.00
  156.91        2959.50           1358           6.00         2.62
  156.93        2959.75           1362           6.00         2.62
  156.96        2960.00           1365           5.00         2.00
  156.99        2960.25           1368           8.00        11.33
  157.01        2960.50           1372           7.00         6.97
  157.04        2960.75           1375           7.00         6.97
  157.07        2961.00           1378           8.00        11.33
  157.10        2961.25           1382           9.00        15.69
  157.12        2961.50           1385           4.00         2.00
  157.15        2961.75           1388           8.00        11.33
  157.18        2962.00           1392           6.00         2.62
  157.20        2962.25           1395           7.00         6.97
  157.23        2962.50           1398           5.00         2.00
  157.26        2962.75           1402           6.00         2.62
  157.29        2963.00           1405           8.00        11.33
  157.31        2963.25           1408           9.00        15.69
  157.34        2963.50           1412           6.00         2.62
  157.37        2963.75           1415           5.00         2.00
  157.39        2964.00           1418           6.00         2.62
  157.42        2964.25           1422           6.00         2.62
  157.45        2964.50           1425           8.00        11.33
  157.48        2964.75           1428           7.00         6.97
  157.50        2965.00           1431           7.00         6.97
  157.53        2965.25           1435           8.00        11.33
  157.56        2965.50           1438           4.00         2.00
  157.58        2965.75           1441           7.00         6.97
  157.61        2966.00           1445           7.00         6.97
  157.64        2966.25           1448           5.00         2.00
  157.66        2966.50           1451           6.00         2.62
  157.69        2966.75           1455           8.00        11.33
  157.72        2967.00           1458           5.00         2.00
  157.75        2967.25           1461           9.00        15.69
  157.77        2967.50           1465           5.00         2.00
  157.80        2967.75           1468           7.00         6.97
  157.83        2968.00           1471           8.00        11.33
  157.86        2968.25           1475           7.00         6.97
  157.88        2968.50           1478           8.00        11.33
  157.91        2968.75           1481           6.00         2.62
  157.94        2969.00           1485           8.00        11.33
  157.96        2969.25           1488           6.00         2.62
  157.99        2969.50           1491           6.00         2.62
  158.02        2969.75           1495           9.00        15.69
  158.04        2970.00           1498           6.00         2.62
  158.07        2970.25           1501           6.00         2.62
  158.10        2970.50           1505           5.00         2.00
  158.13        2970.75           1508           8.00        11.33
  158.15        2971.00           1511           3.00         2.00
  158.18        2971.25           1515           6.00         2.62
  158.21        2971.50           1518           8.00        11.33
  158.23        2971.75           1521           8.00        11.33
  158.26        2972.00           1525           6.00         2.62
  158.29        2972.25           1528           6.00         2.62
  158.32        2972.50           1531           7.00         6.97
  158.34        2972.75           1535           9.00        15.69
  158.37        2973.00           1538           7.00         6.97
  158.40        2973.25           1541           9.00        15.69
  158.42        2973.50           1545           9.00        15.69
  158.45        2973.75           1548           6.00         2.62
  158.48        2974.00           1551           6.00         2.62
  158.51        2974.25           1555           6.00         2.62
  158.53        2974.50           1558           6.00         2.62
  158.56        2974.75           1561           8.00        11.33
  158.59        2975.00           1565           6.00         2.62
  158.61        2975.25           1568           7.00         6.97
  158.64        2975.50           1571          10.00        20.05
  158.67        2975.75           1575           5.00         2.00
  158.70        2976.00           1578           6.00         2.62
  158.72        2976.25           1581           7.00         6.97
  158.75        2976.50           1585           5.00         2.00
  158.78        2976.75           1588           3.00         2.00
  158.81        2977.00           1591           4.00         2.00
  158.83        2977.25           1595           8.00        11.33
  158.86        2977.50           1598           6.00         2.62
  158.89        2977.75           1601           6.00         2.62
  158.91        2978.00           1605           6.00         2.62
  158.94        2978.25           1608           4.00         2.00
  158.97        2978.50           1611           7.00         6.97
  159.00        2978.75           1615           4.00         2.00
  159.02        2979.00           1618           4.00         2.00
  159.05        2979.25           1621           7.00         6.97
  159.08        2979.50           1625           6.00         2.62
  159.10        2979.75           1628           6.00         2.62
  159.13        2980.00           1631           3.00         2.00
  159.16        2980.25           1635           3.00         2.00
  159.18        2980.50           1638           5.00         2.00
  159.21        2980.75           1641           6.00         2.62
  159.24        2981.00           1645           7.00         6.97
  159.27        2981.25           1648           6.00         2.62
  159.29        2981.50           1651           5.00         2.00
  159.32        2981.75           1655           8.00        11.33
  159.35        2982.00           1658           6.00         2.62
  159.37        2982.25           1661           5.00         2.00
  159.40        2982.50           1665           5.00         2.00
  159.43        2982.75           1668           3.00         2.00
  159.46        2983.00           1671           6.00         2.62
  159.48        2983.25           1675           5.00         2.00
  159.51        2983.50           1678           9.00        15.69
  159.54        2983.75           1681           7.00         6.97
  159.56        2984.00           1685           9.00        15.69
HS scan finished at 02:39:45
end
