************************************************************
  HS Scan of (1) Internal mercury lamp
************************************************************
Integration time is 0.2294 seconds per sample
dh230619El Arenosillo 37.1 6.73 2.986022pr1000
************************************************************
Dead Time -------------------------  2.8E-08 
Number of Cycles Used -------------  4 
Starting Wavelength (Angstroms) ---  2950 
Final Wavelength (Angstoms) -------  2984 
Wavelength Increment (Angstroms) --  .25 
Filter Wheel #1 Position ---------- (1) Ground quartz diffuser (ND=2.32)
Filter Wheel #2 Position ---------- (1) Neutral Density 0.494



************************************************************
HS scan start time = 02:15:29
Dark Count =  3.9 


Time (GMT)  Wavelength (Ang)  Step Number  Raw Counts  Counts/Second

  135.85        2950.00           1233          18.00        61.46
  135.91        2950.25           1236          22.00        78.90
  135.94        2950.50           1239          20.00        70.18
  135.97        2950.75           1242          18.00        61.46
  136.00        2951.00           1246          17.00        57.11
  136.03        2951.25           1249          20.00        70.18
  136.05        2951.50           1252          19.00        65.82
  136.08        2951.75           1256          23.00        83.26
  136.11        2952.00           1259          19.00        65.82
  136.14        2952.25           1262          19.00        65.82
  136.17        2952.50           1266          20.00        70.18
  136.20        2952.75           1269          21.00        74.54
  136.23        2953.00           1272          21.00        74.54
  136.26        2953.25           1276          15.00        48.39
  136.29        2953.50           1279          21.00        74.54
  136.31        2953.75           1282          18.00        61.46
  136.34        2954.00           1286          19.00        65.82
  136.37        2954.25           1289          16.00        52.75
  136.40        2954.50           1292          17.00        57.11
  136.43        2954.75           1295          20.00        70.18
  136.46        2955.00           1299          18.00        61.46
  136.49        2955.25           1302          17.00        57.11
  136.52        2955.50           1305          20.00        70.18
  136.54        2955.75           1309          14.00        44.03
  136.57        2956.00           1312          17.00        57.11
  136.60        2956.25           1315          24.00        87.62
  136.63        2956.50           1319          14.00        44.03
  136.66        2956.75           1322          19.00        65.82
  136.69        2957.00           1325          18.00        61.46
  136.72        2957.25           1329          19.00        65.82
  136.75        2957.50           1332          15.00        48.39
  136.78        2957.75           1335          21.00        74.54
  136.80        2958.00           1339          18.00        61.46
  136.83        2958.25           1342          18.00        61.46
  136.86        2958.50           1345          17.00        57.11
  136.89        2958.75           1348          16.00        52.75
  136.92        2959.00           1352          23.00        83.26
  136.95        2959.25           1355          20.00        70.18
  136.98        2959.50           1358          19.00        65.82
  137.01        2959.75           1362          25.00        91.98
  137.03        2960.00           1365          28.00       105.06
  137.06        2960.25           1368          29.00       109.42
  137.09        2960.50           1372          32.00       122.49
  137.12        2960.75           1375          46.00       183.52
  137.15        2961.00           1378         176.00       750.23
  137.18        2961.25           1382         674.00      2921.34
  137.21        2961.50           1385        1532.00      6662.53
  137.24        2961.75           1388        2846.00     12393.58
  137.26        2962.00           1392        5384.00     23468.34
  137.29        2962.25           1395        7658.00     33396.95
  137.32        2962.50           1398       10003.00     43641.35
  137.35        2962.75           1402       13253.00     57849.08
  137.38        2963.00           1405       15665.00     68400.71
  137.41        2963.25           1408       17835.00     77899.03
  137.44        2963.50           1412       21119.00     92283.05
  137.47        2963.75           1415       23267.00    101697.60
  137.50        2964.00           1418       25762.00    112639.40
  137.53        2964.25           1422       28785.00    125905.60
  137.55        2964.50           1425       31297.00    136936.90
  137.58        2964.75           1428       33659.00    147315.70
  137.61        2965.00           1431       36272.00    158804.40
  137.64        2965.25           1435       39210.00    171730.90
  137.67        2965.50           1438       41684.00    182623.30
  137.70        2965.75           1441       44243.00    193896.90
  137.73        2966.00           1445       47565.00    208542.40
  137.76        2966.25           1448       49312.00    216249.20
  137.79        2966.50           1451       50703.00    222387.90
  137.81        2966.75           1455       51919.00    227756.00
  137.84        2967.00           1458       52440.00    230056.50
  137.87        2967.25           1461       52533.00    230467.20
  137.90        2967.50           1465       52527.00    230440.70
  137.93        2967.75           1468       51939.00    227844.30
  137.96        2968.00           1471       50690.00    222330.50
  137.99        2968.25           1475       48402.00    212234.40
  138.02        2968.50           1478       46145.00    202280.70
  138.05        2968.75           1481       44023.00    192927.40
  138.07        2969.00           1485       40675.00    178180.10
  138.10        2969.25           1488       37895.00    165944.10
  138.13        2969.50           1491       35270.00    154398.00
  138.16        2969.75           1495       32045.00    140223.00
  138.19        2970.00           1498       29569.00    129347.70
  138.22        2970.25           1501       27008.00    118106.20
  138.25        2970.50           1505       23563.00    102995.40
  138.28        2970.75           1508       21107.00     92230.47
  138.31        2971.00           1511       18687.00     81629.69
  138.34        2971.25           1515       15387.00     67184.25
  138.36        2971.50           1518       13116.00     57249.94
  138.39        2971.75           1521       10905.00     47583.41
  138.42        2972.00           1525        7552.00     32934.02
  138.45        2972.25           1528        5381.00     23455.24
  138.48        2972.50           1531        3269.00     14238.89
  138.51        2972.75           1535        1310.00      5694.46
  138.54        2973.00           1538         466.00      2014.50
  138.57        2973.25           1541         124.00       523.55
  138.59        2973.50           1545          34.00       131.21
  138.62        2973.75           1548          29.00       109.42
  138.65        2974.00           1551          28.00       105.06
  138.68        2974.25           1555          29.00       109.42
  138.71        2974.50           1558          21.00        74.54
  138.74        2974.75           1561          22.00        78.90
  138.77        2975.00           1565          20.00        70.18
  138.80        2975.25           1568          19.00        65.82
  138.82        2975.50           1571          20.00        70.18
  138.85        2975.75           1575          21.00        74.54
  138.88        2976.00           1578          18.00        61.46
  138.91        2976.25           1581          22.00        78.90
  138.94        2976.50           1585          19.00        65.82
  138.97        2976.75           1588          21.00        74.54
  139.00        2977.00           1591          23.00        83.26
  139.03        2977.25           1595          20.00        70.18
  139.05        2977.50           1598          23.00        83.26
  139.08        2977.75           1601          17.00        57.11
  139.11        2978.00           1605          21.00        74.54
  139.14        2978.25           1608          23.00        83.26
  139.17        2978.50           1611          18.00        61.46
  139.20        2978.75           1615          18.00        61.46
  139.23        2979.00           1618          21.00        74.54
  139.26        2979.25           1621          19.00        65.82
  139.28        2979.50           1625          20.00        70.18
  139.31        2979.75           1628          18.00        61.46
  139.34        2980.00           1631          17.00        57.11
  139.37        2980.25           1635          18.00        61.46
  139.40        2980.50           1638          20.00        70.18
  139.43        2980.75           1641          16.00        52.75
  139.46        2981.00           1645          17.00        57.11
  139.49        2981.25           1648          20.00        70.18
  139.52        2981.50           1651          21.00        74.54
  139.54        2981.75           1655          16.00        52.75
  139.57        2982.00           1658          19.00        65.82
  139.60        2982.25           1661          16.00        52.75
  139.63        2982.50           1665          18.00        61.46
  139.66        2982.75           1668          18.00        61.46
  139.69        2983.00           1671          21.00        74.54
  139.72        2983.25           1675          19.00        65.82
  139.75        2983.50           1678          21.00        74.54
  139.77        2983.75           1681          15.00        48.39
  139.80        2984.00           1685          20.00        70.18
HS scan finished at 02:20:01
end
