************************************************************
  HS Scan of (1) Internal mercury lamp
************************************************************
Integration time is 0.2294 seconds per sample
dh210619El Arenosillo 37.1 6.73 3.149168pr1000
************************************************************
Dead Time -------------------------  2.8E-08 
Number of Cycles Used -------------  4 
Starting Wavelength (Angstroms) ---  2950 
Final Wavelength (Angstoms) -------  2984 
Wavelength Increment (Angstroms) --  .25 
Filter Wheel #1 Position ---------- (1) Ground quartz diffuser (ND=2.32)
Filter Wheel #2 Position ---------- (1) Neutral Density 0.494



************************************************************
HS scan start time = 22:06:37
Dark Count =  4.9 


Time (GMT)  Wavelength (Ang)  Step Number  Raw Counts  Counts/Second

 1326.98        2950.00           1233          19.00        61.46
 1327.04        2950.25           1236          19.00        61.46
 1327.07        2950.50           1239          19.00        61.46
 1327.10        2950.75           1242          19.00        61.46
 1327.13        2951.00           1246          20.00        65.82
 1327.16        2951.25           1249          23.00        78.90
 1327.19        2951.50           1252          17.00        52.75
 1327.22        2951.75           1256          16.00        48.39
 1327.24        2952.00           1259          17.00        52.75
 1327.27        2952.25           1262          15.00        44.03
 1327.30        2952.50           1266          20.00        65.82
 1327.33        2952.75           1269          18.00        57.11
 1327.36        2953.00           1272          18.00        57.11
 1327.39        2953.25           1276          24.00        83.26
 1327.42        2953.50           1279          14.00        39.67
 1327.44        2953.75           1282          19.00        61.46
 1327.47        2954.00           1286          23.00        78.90
 1327.50        2954.25           1289          20.00        65.82
 1327.53        2954.50           1292          22.00        74.54
 1327.56        2954.75           1295          18.00        57.11
 1327.59        2955.00           1299          15.00        44.03
 1327.62        2955.25           1302          22.00        74.54
 1327.64        2955.50           1305          19.00        61.46
 1327.67        2955.75           1309          18.00        57.11
 1327.70        2956.00           1312          20.00        65.82
 1327.73        2956.25           1315          15.00        44.03
 1327.76        2956.50           1319          17.00        52.75
 1327.79        2956.75           1322          17.00        52.75
 1327.82        2957.00           1325          19.00        61.46
 1327.85        2957.25           1329          12.00        30.95
 1327.87        2957.50           1332          16.00        48.39
 1327.90        2957.75           1335          19.00        61.46
 1327.93        2958.00           1339          19.00        61.46
 1327.96        2958.25           1342          15.00        44.03
 1327.99        2958.50           1345          17.00        52.75
 1328.02        2958.75           1348          17.00        52.75
 1328.05        2959.00           1352          20.00        65.82
 1328.08        2959.25           1355          17.00        52.75
 1328.11        2959.50           1358          18.00        57.11
 1328.13        2959.75           1362          21.00        70.18
 1328.16        2960.00           1365          25.00        87.62
 1328.19        2960.25           1368          27.00        96.34
 1328.22        2960.50           1372          35.00       131.21
 1328.25        2960.75           1375          84.00       344.82
 1328.28        2961.00           1378         284.00      1216.69
 1328.31        2961.25           1382        1029.00      4464.81
 1328.34        2961.50           1385        2071.00      9008.81
 1328.37        2961.75           1388        3762.00     16385.46
 1328.40        2962.00           1392        6722.00     29305.21
 1328.42        2962.25           1395        9224.00     40233.18
 1328.45        2962.50           1398       11759.00     51312.12
 1328.48        2962.75           1402       15174.00     66247.88
 1328.51        2963.00           1405       17824.00     77846.49
 1328.54        2963.25           1408       20525.00     89676.07
 1328.57        2963.50           1412       23727.00    103710.10
 1328.60        2963.75           1415       26161.00    114385.40
 1328.63        2964.00           1418       28858.00    126221.70
 1328.65        2964.25           1422       32210.00    140943.50
 1328.68        2964.50           1425       34668.00    151746.70
 1328.71        2964.75           1428       37431.00    163898.20
 1328.74        2965.00           1431       39785.00    174257.50
 1328.77        2965.25           1435       43689.00    191451.20
 1328.80        2965.50           1438       46007.00    201667.80
 1328.83        2965.75           1441       48495.00    212640.20
 1328.86        2966.00           1445       52010.00    228153.40
 1328.89        2966.25           1448       53755.00    235859.90
 1328.92        2966.50           1451       55316.00    242756.50
 1328.94        2966.75           1455       56184.00    246592.60
 1328.97        2967.00           1458       56310.00    247149.50
 1329.00        2967.25           1461       56402.00    247556.20
 1329.03        2967.50           1465       55888.00    245284.30
 1329.06        2967.75           1468       55018.00    241439.70
 1329.09        2968.00           1471       53459.00    234552.40
 1329.12        2968.25           1475       50567.00    221783.20
 1329.15        2968.50           1478       48166.00    211188.90
 1329.18        2968.75           1481       45543.00    199622.30
 1329.21        2969.00           1485       42335.00    185486.20
 1329.23        2969.25           1488       39323.00    172223.90
 1329.26        2969.50           1491       36554.00    160040.30
 1329.29        2969.75           1495       32920.00    144063.40
 1329.32        2970.00           1498       30012.00    131288.60
 1329.35        2970.25           1501       27622.00    120796.30
 1329.38        2970.50           1505       24043.00    105095.60
 1329.41        2970.75           1508       21340.00     93247.07
 1329.44        2971.00           1511       18724.00     81787.35
 1329.47        2971.25           1515       15485.00     67608.69
 1329.50        2971.50           1518       12709.00     55465.76
 1329.53        2971.75           1521       10363.00     45210.21
 1329.56        2972.00           1525        7103.00     30968.87
 1329.59        2972.25           1528        4659.00     20299.68
 1329.61        2972.50           1531        2580.00     11228.90
 1329.64        2972.75           1535         879.00      3810.78
 1329.67        2973.00           1538         294.00      1260.29
 1329.70        2973.25           1541          78.00       318.66
 1329.73        2973.50           1545          42.00       161.73
 1329.76        2973.75           1548          32.00       118.13
 1329.79        2974.00           1551          28.00       100.70
 1329.81        2974.25           1555          24.00        83.26
 1329.84        2974.50           1558          25.00        87.62
 1329.87        2974.75           1561          21.00        70.18
 1329.90        2975.00           1565          25.00        87.62
 1329.93        2975.25           1568          17.00        52.75
 1329.96        2975.50           1571          21.00        70.18
 1329.99        2975.75           1575          23.00        78.90
 1330.02        2976.00           1578          16.00        48.39
 1330.04        2976.25           1581          21.00        70.18
 1330.07        2976.50           1585          22.00        74.54
 1330.10        2976.75           1588          23.00        78.90
 1330.13        2977.00           1591          23.00        78.90
 1330.16        2977.25           1595          16.00        48.39
 1330.19        2977.50           1598          23.00        78.90
 1330.22        2977.75           1601          17.00        52.75
 1330.25        2978.00           1605          23.00        78.90
 1330.27        2978.25           1608          24.00        83.26
 1330.30        2978.50           1611          18.00        57.11
 1330.33        2978.75           1615          25.00        87.62
 1330.36        2979.00           1618          22.00        74.54
 1330.39        2979.25           1621          21.00        70.18
 1330.42        2979.50           1625          20.00        65.82
 1330.45        2979.75           1628          21.00        70.18
 1330.47        2980.00           1631          16.00        48.39
 1330.50        2980.25           1635          18.00        57.11
 1330.53        2980.50           1638          20.00        65.82
 1330.56        2980.75           1641          18.00        57.11
 1330.59        2981.00           1645          18.00        57.11
 1330.62        2981.25           1648          21.00        70.18
 1330.65        2981.50           1651          16.00        48.39
 1330.68        2981.75           1655          17.00        52.75
 1330.71        2982.00           1658          20.00        65.82
 1330.73        2982.25           1661          16.00        48.39
 1330.76        2982.50           1665          19.00        61.46
 1330.79        2982.75           1668          23.00        78.90
 1330.82        2983.00           1671          24.00        83.26
 1330.85        2983.25           1675          18.00        57.11
 1330.88        2983.50           1678          17.00        52.75
 1330.91        2983.75           1681          15.00        44.03
 1330.93        2984.00           1685          18.00        57.11
HS scan finished at 22:11:08
end
