************************************************************
  HS Scan of (1) Internal mercury lamp
************************************************************
Integration time is 0.2294 seconds per sample
dh220619El Arenosillo 37.1 6.73 3.14407pr1000
************************************************************
Dead Time -------------------------  2.8E-08 
Number of Cycles Used -------------  4 
Starting Wavelength (Angstroms) ---  2950 
Final Wavelength (Angstoms) -------  2984 
Wavelength Increment (Angstroms) --  .25 
Filter Wheel #1 Position ---------- (1) Ground quartz diffuser (ND=2.32)
Filter Wheel #2 Position ---------- (1) Neutral Density 0.494



************************************************************
HS scan start time = 02:14:08
Dark Count =  4.5 


Time (GMT)  Wavelength (Ang)  Step Number  Raw Counts  Counts/Second

  134.50        2950.00           1233          13.00        37.05
  134.57        2950.25           1236          20.00        67.57
  134.59        2950.50           1239          20.00        67.57
  134.62        2950.75           1242          21.00        71.93
  134.65        2951.00           1246          20.00        67.57
  134.68        2951.25           1249          18.00        58.85
  134.71        2951.50           1252          18.00        58.85
  134.74        2951.75           1256          21.00        71.93
  134.77        2952.00           1259          21.00        71.93
  134.80        2952.25           1262          17.00        54.49
  134.83        2952.50           1266          17.00        54.49
  134.85        2952.75           1269          21.00        71.93
  134.88        2953.00           1272          20.00        67.57
  134.91        2953.25           1276          18.00        58.85
  134.94        2953.50           1279          22.00        76.29
  134.97        2953.75           1282          21.00        71.93
  135.00        2954.00           1286          17.00        54.49
  135.03        2954.25           1289          18.00        58.85
  135.06        2954.50           1292          20.00        67.57
  135.09        2954.75           1295          20.00        67.57
  135.11        2955.00           1299          21.00        71.93
  135.14        2955.25           1302          19.00        63.21
  135.17        2955.50           1305          19.00        63.21
  135.20        2955.75           1309          18.00        58.85
  135.23        2956.00           1312          23.00        80.65
  135.26        2956.25           1315          20.00        67.57
  135.29        2956.50           1319          19.00        63.21
  135.32        2956.75           1322          20.00        67.57
  135.34        2957.00           1325          19.00        63.21
  135.37        2957.25           1329          16.00        50.13
  135.40        2957.50           1332          18.00        58.85
  135.43        2957.75           1335          21.00        71.93
  135.46        2958.00           1339          17.00        54.49
  135.49        2958.25           1342          19.00        63.21
  135.52        2958.50           1345          16.00        50.13
  135.55        2958.75           1348          18.00        58.85
  135.57        2959.00           1352          19.00        63.21
  135.60        2959.25           1355          25.00        89.36
  135.63        2959.50           1358          23.00        80.65
  135.66        2959.75           1362          21.00        71.93
  135.69        2960.00           1365          26.00        93.72
  135.72        2960.25           1368          28.00       102.44
  135.75        2960.50           1372          32.00       119.88
  135.78        2960.75           1375          55.00       220.14
  135.81        2961.00           1378         157.00       664.79
  135.83        2961.25           1382         658.00      2848.96
  135.86        2961.50           1385        1477.00      6420.07
  135.89        2961.75           1388        2848.00     12399.69
  135.92        2962.00           1392        5420.00     23622.86
  135.95        2962.25           1395        7904.00     34468.74
  135.98        2962.50           1398       10454.00     45609.65
  136.01        2962.75           1402       13835.00     60391.92
  136.04        2963.00           1405       16309.00     71216.41
  136.07        2963.25           1408       18821.00     82213.90
  136.09        2963.50           1412       22324.00     97561.27
  136.12        2963.75           1415       24595.00    107518.10
  136.15        2964.00           1418       27268.00    119244.50
  136.18        2964.25           1422       30700.00    134311.90
  136.21        2964.50           1425       32967.00    144271.70
  136.24        2964.75           1428       35631.00    155982.80
  136.27        2965.00           1431       38334.00    167873.10
  136.30        2965.25           1435       41824.00    183237.20
  136.33        2965.50           1438       44344.00    194339.30
  136.35        2965.75           1441       46727.00    204844.20
  136.38        2966.00           1445       49802.00    218408.70
  136.41        2966.25           1448       51890.00    227625.40
  136.44        2966.50           1451       53674.00    235503.80
  136.47        2966.75           1455       54782.00    240398.70
  136.50        2967.00           1458       55154.00    242042.40
  136.53        2967.25           1461       55220.00    242334.10
  136.56        2967.50           1465       55018.00    241441.50
  136.59        2967.75           1468       54265.00    238114.50
  136.62        2968.00           1471       53507.00    234766.20
  136.65        2968.25           1475       50475.00    221378.90
  136.67        2968.50           1478       48470.00    212531.70
  136.70        2968.75           1481       45788.00    200704.10
  136.73        2969.00           1485       42252.00    185122.30
  136.76        2969.25           1488       39700.00    173885.10
  136.79        2969.50           1491       37048.00    162215.10
  136.82        2969.75           1495       33442.00    146359.30
  136.85        2970.00           1498       30712.00    134364.60
  136.88        2970.25           1501       28024.00    122562.40
  136.91        2970.50           1505       24531.00    107237.40
  136.93        2970.75           1508       22225.00     97127.34
  136.96        2971.00           1511       19477.00     85086.96
  136.99        2971.25           1515       15870.00     69295.18
  137.02        2971.50           1518       13296.00     58034.51
  137.05        2971.75           1521       10760.00     46947.03
  137.08        2972.00           1525        7443.00     32455.38
  137.11        2972.25           1528        5130.00     22357.06
  137.14        2972.50           1531        3163.00     13773.84
  137.17        2972.75           1535        1180.00      5124.97
  137.20        2973.00           1538         424.00      1828.78
  137.22        2973.25           1541         110.00       459.90
  137.25        2973.50           1545          42.00       163.47
  137.28        2973.75           1548          31.00       115.52
  137.31        2974.00           1551          26.00        93.72
  137.34        2974.25           1555          22.00        76.29
  137.37        2974.50           1558          23.00        80.65
  137.40        2974.75           1561          21.00        71.93
  137.42        2975.00           1565          24.00        85.00
  137.45        2975.25           1568          17.00        54.49
  137.48        2975.50           1571          21.00        71.93
  137.51        2975.75           1575          21.00        71.93
  137.54        2976.00           1578          23.00        80.65
  137.57        2976.25           1581          20.00        67.57
  137.60        2976.50           1585          20.00        67.57
  137.63        2976.75           1588          18.00        58.85
  137.66        2977.00           1591          23.00        80.65
  137.68        2977.25           1595          18.00        58.85
  137.71        2977.50           1598          17.00        54.49
  137.74        2977.75           1601          25.00        89.36
  137.77        2978.00           1605          24.00        85.00
  137.80        2978.25           1608          18.00        58.85
  137.83        2978.50           1611          21.00        71.93
  137.86        2978.75           1615          22.00        76.29
  137.89        2979.00           1618          19.00        63.21
  137.91        2979.25           1621          22.00        76.29
  137.94        2979.50           1625          21.00        71.93
  137.97        2979.75           1628          19.00        63.21
  138.00        2980.00           1631          20.00        67.57
  138.03        2980.25           1635          23.00        80.65
  138.06        2980.50           1638          21.00        71.93
  138.09        2980.75           1641          17.00        54.49
  138.12        2981.00           1645          19.00        63.21
  138.14        2981.25           1648          21.00        71.93
  138.17        2981.50           1651          21.00        71.93
  138.20        2981.75           1655          16.00        50.13
  138.23        2982.00           1658          20.00        67.57
  138.26        2982.25           1661          20.00        67.57
  138.29        2982.50           1665          16.00        50.13
  138.32        2982.75           1668          22.00        76.29
  138.35        2983.00           1671          17.00        54.49
  138.38        2983.25           1675          17.00        54.49
  138.40        2983.50           1678          18.00        58.85
  138.43        2983.75           1681          16.00        50.13
  138.46        2984.00           1685          15.00        45.77
HS scan finished at 02:18:40
end
