************************************************************
  HS Scan of (1) Internal mercury lamp
************************************************************
Integration time is 0.2294 seconds per sample
dh060717Tamanrasset 22.79-5.529 3.460166pr865
************************************************************
Dead Time -------------------------  2.8E-08 
Number of Cycles Used -------------  4 
Starting Wavelength (Angstroms) ---  2950 
Final Wavelength (Angstoms) -------  2984 
Wavelength Increment (Angstroms) --  .25 
Filter Wheel #1 Position ---------- (1) Ground quartz diffuser (ND=2.32)
Filter Wheel #2 Position ---------- (1) Neutral Density 0.494



************************************************************
HS scan start time = 03:08:16
Dark Count =  6.2 


Time (GMT)  Wavelength (Ang)  Step Number  Raw Counts  Counts/Second

  188.62        2950.00           1233          17.00        47.08
  188.69        2950.25           1236          20.00        60.16
  188.71        2950.50           1239          16.00        42.72
  188.74        2950.75           1242          20.00        60.16
  188.77        2951.00           1246          20.00        60.16
  188.80        2951.25           1249          22.00        68.88
  188.82        2951.50           1252          20.00        60.16
  188.85        2951.75           1256          18.00        51.44
  188.88        2952.00           1259          20.00        60.16
  188.91        2952.25           1262          19.00        55.80
  188.93        2952.50           1266          18.00        51.44
  188.96        2952.75           1269          23.00        73.23
  188.99        2953.00           1272          18.00        51.44
  189.01        2953.25           1276          18.00        51.44
  189.04        2953.50           1279          19.00        55.80
  189.07        2953.75           1282          25.00        81.95
  189.10        2954.00           1286          19.00        55.80
  189.12        2954.25           1289          18.00        51.44
  189.15        2954.50           1292          19.00        55.80
  189.18        2954.75           1295          22.00        68.88
  189.21        2955.00           1299          22.00        68.88
  189.23        2955.25           1302          18.00        51.44
  189.26        2955.50           1305          19.00        55.80
  189.29        2955.75           1309          16.00        42.72
  189.31        2956.00           1312          19.00        55.80
  189.34        2956.25           1315          22.00        68.88
  189.37        2956.50           1319          18.00        51.44
  189.40        2956.75           1322          20.00        60.16
  189.42        2957.00           1325          22.00        68.88
  189.45        2957.25           1329          23.00        73.23
  189.48        2957.50           1332          18.00        51.44
  189.51        2957.75           1335          22.00        68.88
  189.53        2958.00           1339          17.00        47.08
  189.56        2958.25           1342          17.00        47.08
  189.59        2958.50           1345          21.00        64.52
  189.62        2958.75           1348          20.00        60.16
  189.64        2959.00           1352          24.00        77.59
  189.67        2959.25           1355          22.00        68.88
  189.70        2959.50           1358          21.00        64.52
  189.72        2959.75           1362          19.00        55.80
  189.75        2960.00           1365          28.00        95.03
  189.78        2960.25           1368          29.00        99.39
  189.81        2960.50           1372          36.00       129.90
  189.83        2960.75           1375          52.00       199.65
  189.86        2961.00           1378         182.00       766.36
  189.89        2961.25           1382         847.00      3665.59
  189.92        2961.50           1385        2052.00      8920.28
  189.94        2961.75           1388        3814.00     16606.67
  189.97        2962.00           1392        7192.00     31351.84
  190.00        2962.25           1395       10094.00     44028.97
  190.03        2962.50           1398       13531.00     59054.85
  190.05        2962.75           1402       17589.00     76811.94
  190.08        2963.00           1405       20580.00     89911.34
  190.11        2963.25           1408       23901.00    104467.30
  190.14        2963.50           1412       28168.00    123187.00
  190.16        2963.75           1415       31211.00    136549.00
  190.19        2964.00           1418       34671.00    151754.20
  190.22        2964.25           1422       38945.00    170554.50
  190.24        2964.50           1425       42144.00    184639.10
  190.27        2964.75           1428       45570.00    199735.60
  190.30        2965.00           1431       48986.00    214800.70
  190.33        2965.25           1435       52928.00    232201.40
  190.35        2965.50           1438       56107.00    246246.50
  190.38        2965.75           1441       59421.00    260899.90
  190.41        2966.00           1445       63666.00    279687.50
  190.44        2966.25           1448       66041.00    290207.40
  190.46        2966.50           1451       68238.00    299944.50
  190.49        2966.75           1455       69558.00    305797.20
  190.52        2967.00           1458       70137.00    308365.10
  190.55        2967.25           1461       70020.00    307846.10
  190.57        2967.50           1465       69565.00    305828.30
  190.60        2967.75           1468       68776.00    302329.70
  190.63        2968.00           1471       67459.00    296491.30
  190.66        2968.25           1475       63893.00    280692.60
  190.68        2968.50           1478       60816.00    267071.70
  190.71        2968.75           1481       57664.00    253129.50
  190.74        2969.00           1485       53159.00    233221.60
  190.77        2969.25           1488       50057.00    219526.60
  190.79        2969.50           1491       46579.00    204184.10
  190.82        2969.75           1495       41984.00    183934.40
  190.85        2970.00           1498       38757.00    169727.10
  190.88        2970.25           1501       35553.00    155632.30
  190.90        2970.50           1505       31243.00    136689.60
  190.93        2970.75           1508       27915.00    122076.60
  190.96        2971.00           1511       24582.00    107453.60
  190.99        2971.25           1515       20122.00     87904.86
  191.01        2971.50           1518       17110.00     74715.00
  191.04        2971.75           1521       13893.00     60638.18
  191.07        2972.00           1525        9969.00     43482.73
  191.10        2972.25           1528        6777.00     29539.68
  191.12        2972.50           1531        4091.00     17815.34
  191.15        2972.75           1535        1579.00      6857.46
  191.18        2973.00           1538         546.00      2353.25
  191.21        2973.25           1541         144.00       600.71
  191.23        2973.50           1545          50.00       190.93
  191.26        2973.75           1548          44.00       164.78
  191.29        2974.00           1551          38.00       138.62
  191.32        2974.25           1555          28.00        95.03
  191.34        2974.50           1558          30.00       103.75
  191.37        2974.75           1561          27.00        90.67
  191.40        2975.00           1565          23.00        73.23
  191.42        2975.25           1568          23.00        73.23
  191.45        2975.50           1571          25.00        81.95
  191.48        2975.75           1575          22.00        68.88
  191.51        2976.00           1578          23.00        73.23
  191.53        2976.25           1581          20.00        60.16
  191.56        2976.50           1585          27.00        90.67
  191.59        2976.75           1588          26.00        86.31
  191.62        2977.00           1591          20.00        60.16
  191.64        2977.25           1595          24.00        77.59
  191.67        2977.50           1598          21.00        64.52
  191.70        2977.75           1601          26.00        86.31
  191.73        2978.00           1605          24.00        77.59
  191.75        2978.25           1608          22.00        68.88
  191.78        2978.50           1611          20.00        60.16
  191.81        2978.75           1615          24.00        77.59
  191.83        2979.00           1618          23.00        73.23
  191.86        2979.25           1621          22.00        68.88
  191.89        2979.50           1625          26.00        86.31
  191.92        2979.75           1628          24.00        77.59
  191.94        2980.00           1631          21.00        64.52
  191.97        2980.25           1635          19.00        55.80
  192.00        2980.50           1638          21.00        64.52
  192.03        2980.75           1641          24.00        77.59
  192.05        2981.00           1645          21.00        64.52
  192.08        2981.25           1648          25.00        81.95
  192.11        2981.50           1651          24.00        77.59
  192.13        2981.75           1655          28.00        95.03
  192.16        2982.00           1658          24.00        77.59
  192.19        2982.25           1661          23.00        73.23
  192.22        2982.50           1665          22.00        68.88
  192.24        2982.75           1668          23.00        73.23
  192.27        2983.00           1671          23.00        73.23
  192.30        2983.25           1675          24.00        77.59
  192.33        2983.50           1678          17.00        47.08
  192.35        2983.75           1681          21.00        64.52
  192.38        2984.00           1685          22.00        68.88
HS scan finished at 03:12:34
end
