************************************************************
  HS Scan of (1) Internal mercury lamp
************************************************************
Integration time is 0.2294 seconds per sample
dh070717Tamanrasset 22.79-5.529 3.470362pr865
************************************************************
Dead Time -------------------------  2.8E-08 
Number of Cycles Used -------------  4 
Starting Wavelength (Angstroms) ---  2950 
Final Wavelength (Angstoms) -------  2984 
Wavelength Increment (Angstroms) --  .25 
Filter Wheel #1 Position ---------- (1) Ground quartz diffuser (ND=2.32)
Filter Wheel #2 Position ---------- (1) Neutral Density 0.494



************************************************************
HS scan start time = 03:09:17
Dark Count =  6.3 


Time (GMT)  Wavelength (Ang)  Step Number  Raw Counts  Counts/Second

  189.65        2950.00           1233          19.00        55.36
  189.71        2950.25           1236          19.00        55.36
  189.74        2950.50           1239          17.00        46.64
  189.77        2950.75           1242          22.00        68.44
  189.80        2951.00           1246          19.00        55.36
  189.82        2951.25           1249          18.00        51.00
  189.85        2951.50           1252          21.00        64.08
  189.88        2951.75           1256          23.00        72.80
  189.90        2952.00           1259          19.00        55.36
  189.93        2952.25           1262          20.00        59.72
  189.96        2952.50           1266          24.00        77.16
  189.99        2952.75           1269          23.00        72.80
  190.01        2953.00           1272          17.00        46.64
  190.04        2953.25           1276          20.00        59.72
  190.07        2953.50           1279          21.00        64.08
  190.09        2953.75           1282          16.00        42.28
  190.12        2954.00           1286          18.00        51.00
  190.15        2954.25           1289          18.00        51.00
  190.18        2954.50           1292          24.00        77.16
  190.20        2954.75           1295          19.00        55.36
  190.23        2955.00           1299          22.00        68.44
  190.26        2955.25           1302          14.00        33.57
  190.29        2955.50           1305          22.00        68.44
  190.31        2955.75           1309          20.00        59.72
  190.34        2956.00           1312          21.00        64.08
  190.37        2956.25           1315          19.00        55.36
  190.40        2956.50           1319          19.00        55.36
  190.42        2956.75           1322          19.00        55.36
  190.45        2957.00           1325          20.00        59.72
  190.48        2957.25           1329          18.00        51.00
  190.50        2957.50           1332          21.00        64.08
  190.53        2957.75           1335          23.00        72.80
  190.56        2958.00           1339          20.00        59.72
  190.59        2958.25           1342          20.00        59.72
  190.61        2958.50           1345          18.00        51.00
  190.64        2958.75           1348          20.00        59.72
  190.67        2959.00           1352          19.00        55.36
  190.70        2959.25           1355          24.00        77.16
  190.72        2959.50           1358          26.00        85.88
  190.75        2959.75           1362          20.00        59.72
  190.78        2960.00           1365          23.00        72.80
  190.81        2960.25           1368          32.00       112.03
  190.83        2960.50           1372          36.00       129.47
  190.86        2960.75           1375          46.00       173.06
  190.89        2961.00           1378         115.00       473.85
  190.91        2961.25           1382         635.00      2740.84
  190.94        2961.50           1385        1525.00      6621.54
  190.97        2961.75           1388        3141.00     13670.01
  191.00        2962.00           1392        6265.00     27303.78
  191.02        2962.25           1395        9042.00     39431.92
  191.05        2962.50           1398       12467.00     54401.47
  191.08        2962.75           1402       16571.00     72355.25
  191.11        2963.00           1405       19887.00     86874.97
  191.13        2963.25           1408       22834.00     99788.89
  191.16        2963.50           1412       26972.00    117937.60
  191.19        2963.75           1415       30114.00    131730.40
  191.22        2964.00           1418       33481.00    146522.70
  191.25        2964.25           1422       37592.00    164600.40
  191.27        2964.50           1425       40927.00    179279.10
  191.30        2964.75           1428       44051.00    193040.20
  191.33        2965.00           1431       47344.00    207557.10
  191.36        2965.25           1435       51625.00    226447.40
  191.38        2965.50           1438       55055.00    241597.00
  191.41        2965.75           1441       58231.00    255636.30
  191.44        2966.00           1445       62473.00    274405.00
  191.47        2966.25           1448       65146.00    286241.90
  191.49        2966.50           1451       67124.00    295006.10
  191.52        2966.75           1455       68562.00    301380.40
  191.55        2967.00           1458       69665.00    306271.40
  191.58        2967.25           1461       70070.00    308067.50
  191.60        2967.50           1465       69718.00    306506.40
  191.63        2967.75           1468       69267.00    304506.40
  191.66        2968.00           1471       67691.00    297519.30
  191.69        2968.25           1475       65300.00    286924.00
  191.71        2968.50           1478       62356.00    273887.00
  191.74        2968.75           1481       59040.00    259214.20
  191.77        2969.00           1485       54394.00    238676.50
  191.80        2969.25           1488       51019.00    223772.20
  191.82        2969.50           1491       47537.00    208408.40
  191.85        2969.75           1495       43187.00    189233.20
  191.88        2970.00           1498       39908.00    174792.80
  191.91        2970.25           1501       36590.00    160192.50
  191.93        2970.50           1505       32053.00    140247.60
  191.96        2970.75           1508       28745.00    125719.50
  191.99        2971.00           1511       25605.00    111940.10
  192.02        2971.25           1515       21226.00     92741.38
  192.04        2971.50           1518       17661.00     77126.71
  192.07        2971.75           1521       14754.00     64404.18
  192.10        2972.00           1525       10406.00     45392.01
  192.13        2972.25           1528        7365.00     32106.88
  192.15        2972.50           1531        4699.00     20468.14
  192.18        2972.75           1535        1898.00      8248.20
  192.21        2973.00           1538         655.00      2828.04
  192.24        2973.25           1541         182.00       765.93
  192.26        2973.50           1545          55.00       212.29
  192.29        2973.75           1548          46.00       173.06
  192.32        2974.00           1551          42.00       155.62
  192.34        2974.25           1555          29.00        98.95
  192.37        2974.50           1558          25.00        81.52
  192.40        2974.75           1561          25.00        81.52
  192.43        2975.00           1565          25.00        81.52
  192.45        2975.25           1568          27.00        90.24
  192.48        2975.50           1571          26.00        85.88
  192.51        2975.75           1575          27.00        90.24
  192.54        2976.00           1578          29.00        98.95
  192.56        2976.25           1581          25.00        81.52
  192.59        2976.50           1585          23.00        72.80
  192.62        2976.75           1588          22.00        68.44
  192.65        2977.00           1591          25.00        81.52
  192.67        2977.25           1595          22.00        68.44
  192.70        2977.50           1598          24.00        77.16
  192.73        2977.75           1601          28.00        94.59
  192.75        2978.00           1605          22.00        68.44
  192.78        2978.25           1608          24.00        77.16
  192.81        2978.50           1611          24.00        77.16
  192.84        2978.75           1615          24.00        77.16
  192.86        2979.00           1618          21.00        64.08
  192.89        2979.25           1621          22.00        68.44
  192.92        2979.50           1625          21.00        64.08
  192.95        2979.75           1628          24.00        77.16
  192.97        2980.00           1631          19.00        55.36
  193.00        2980.25           1635          19.00        55.36
  193.03        2980.50           1638          23.00        72.80
  193.06        2980.75           1641          19.00        55.36
  193.08        2981.00           1645          22.00        68.44
  193.11        2981.25           1648          22.00        68.44
  193.14        2981.50           1651          22.00        68.44
  193.16        2981.75           1655          20.00        59.72
  193.19        2982.00           1658          28.00        94.59
  193.22        2982.25           1661          20.00        59.72
  193.25        2982.50           1665          22.00        68.44
  193.27        2982.75           1668          17.00        46.64
  193.30        2983.00           1671          22.00        68.44
  193.33        2983.25           1675          22.00        68.44
  193.36        2983.50           1678          17.00        46.64
  193.38        2983.75           1681          19.00        55.36
  193.41        2984.00           1685          18.00        51.00
HS scan finished at 03:13:36
end
