************************************************************
  HS Scan of (1) Internal mercury lamp
************************************************************
Integration time is 0.2294 seconds per sample
dh020717Tamanrasset 22.79-5.529 3.470362pr865
************************************************************
Dead Time -------------------------  2.8E-08 
Number of Cycles Used -------------  4 
Starting Wavelength (Angstroms) ---  2950 
Final Wavelength (Angstoms) -------  2984 
Wavelength Increment (Angstroms) --  .25 
Filter Wheel #1 Position ---------- (1) Ground quartz diffuser (ND=2.32)
Filter Wheel #2 Position ---------- (1) Neutral Density 0.494



************************************************************
HS scan start time = 03:07:15
Dark Count =  7.1 


Time (GMT)  Wavelength (Ang)  Step Number  Raw Counts  Counts/Second

  187.61        2950.00           1233          21.00        60.59
  187.67        2950.25           1236          22.00        64.95
  187.70        2950.50           1239          19.00        51.87
  187.73        2950.75           1242          22.00        64.95
  187.75        2951.00           1246          24.00        73.67
  187.78        2951.25           1249          19.00        51.87
  187.81        2951.50           1252          16.00        38.80
  187.84        2951.75           1256          23.00        69.31
  187.86        2952.00           1259          21.00        60.59
  187.89        2952.25           1262          18.00        47.52
  187.92        2952.50           1266          20.00        56.23
  187.95        2952.75           1269          16.00        38.80
  187.97        2953.00           1272          19.00        51.87
  188.00        2953.25           1276          21.00        60.59
  188.03        2953.50           1279          23.00        69.31
  188.06        2953.75           1282          16.00        38.80
  188.08        2954.00           1286          18.00        47.52
  188.11        2954.25           1289          18.00        47.52
  188.14        2954.50           1292          27.00        86.75
  188.16        2954.75           1295          19.00        51.87
  188.19        2955.00           1299          22.00        64.95
  188.22        2955.25           1302          20.00        56.23
  188.25        2955.50           1305          26.00        82.39
  188.27        2955.75           1309          20.00        56.23
  188.30        2956.00           1312          17.00        43.16
  188.33        2956.25           1315          20.00        56.23
  188.36        2956.50           1319          20.00        56.23
  188.38        2956.75           1322          14.00        30.08
  188.41        2957.00           1325          22.00        64.95
  188.44        2957.25           1329          24.00        73.67
  188.46        2957.50           1332          23.00        69.31
  188.49        2957.75           1335          18.00        47.52
  188.52        2958.00           1339          18.00        47.52
  188.55        2958.25           1342          16.00        38.80
  188.57        2958.50           1345          16.00        38.80
  188.60        2958.75           1348          21.00        60.59
  188.63        2959.00           1352          17.00        43.16
  188.66        2959.25           1355          23.00        69.31
  188.68        2959.50           1358          20.00        56.23
  188.71        2959.75           1362          20.00        56.23
  188.74        2960.00           1365          27.00        86.75
  188.77        2960.25           1368          37.00       130.34
  188.79        2960.50           1372          39.00       139.06
  188.82        2960.75           1375          58.00       221.88
  188.85        2961.00           1378         235.00       993.49
  188.87        2961.25           1382         976.00      4224.13
  188.90        2961.50           1385        2201.00      9566.21
  188.93        2961.75           1388        4227.00     18404.86
  188.96        2962.00           1392        7914.00     34501.06
  188.98        2962.25           1395       10994.00     47958.43
  189.01        2962.50           1398       14371.00     62725.16
  189.04        2962.75           1402       18480.00     80709.21
  189.07        2963.00           1405       21630.00     94508.28
  189.09        2963.25           1408       24980.00    109195.20
  189.12        2963.50           1412       29054.00    127072.50
  189.15        2963.75           1415       32233.00    141034.90
  189.18        2964.00           1418       35389.00    154907.10
  189.20        2964.25           1422       39614.00    173495.10
  189.23        2964.50           1425       42880.00    187877.20
  189.26        2964.75           1428       46100.00    202068.10
  189.29        2965.00           1431       49358.00    216438.10
  189.31        2965.25           1435       53793.00    236018.00
  189.34        2965.50           1438       57062.00    250464.00
  189.37        2965.75           1441       60478.00    265572.10
  189.40        2966.00           1445       64335.00    282646.10
  189.42        2966.25           1448       66753.00    293358.40
  189.45        2966.50           1451       68776.00    302325.70
  189.48        2966.75           1455       70150.00    308418.70
  189.51        2967.00           1458       70666.00    310707.50
  189.53        2967.25           1461       70530.00    310104.30
  189.56        2967.50           1465       69833.00    307012.80
  189.59        2967.75           1468       69239.00    304378.60
  189.62        2968.00           1471       67708.00    297591.00
  189.64        2968.25           1475       64081.00    281521.20
  189.67        2968.50           1478       61095.00    268302.30
  189.70        2968.75           1481       57771.00    253598.60
  189.73        2969.00           1485       53042.00    232700.90
  189.75        2969.25           1488       50000.00    219271.10
  189.78        2969.50           1491       46334.00    203099.80
  189.81        2969.75           1495       41876.00    183454.80
  189.84        2970.00           1498       38605.00    169054.20
  189.86        2970.25           1501       35160.00    153900.20
  189.89        2970.50           1505       30928.00    135301.90
  189.92        2970.75           1508       27684.00    121058.70
  189.95        2971.00           1511       24405.00    106673.40
  189.97        2971.25           1515       20013.00     87423.41
  190.00        2971.50           1518       16837.00     73516.04
  190.03        2971.75           1521       13752.00     60017.52
  190.06        2972.00           1525        9650.00     42084.88
  190.08        2972.25           1528        6503.00     28339.39
  190.11        2972.50           1531        3869.00     16842.73
  190.14        2972.75           1535        1369.00      5937.78
  190.16        2973.00           1538         420.00      1800.00
  190.19        2973.25           1541         123.00       505.24
  190.22        2973.50           1545          54.00       204.45
  190.25        2973.75           1548          44.00       160.86
  190.27        2974.00           1551          35.00       121.62
  190.30        2974.25           1555          31.00       104.19
  190.33        2974.50           1558          30.00        99.83
  190.36        2974.75           1561          25.00        78.03
  190.38        2975.00           1565          27.00        86.75
  190.41        2975.25           1568          21.00        60.59
  190.44        2975.50           1571          23.00        69.31
  190.47        2975.75           1575          21.00        60.59
  190.49        2976.00           1578          21.00        60.59
  190.52        2976.25           1581          23.00        69.31
  190.55        2976.50           1585          21.00        60.59
  190.57        2976.75           1588          18.00        47.52
  190.60        2977.00           1591          24.00        73.67
  190.63        2977.25           1595          21.00        60.59
  190.66        2977.50           1598          24.00        73.67
  190.68        2977.75           1601          21.00        60.59
  190.71        2978.00           1605          23.00        69.31
  190.74        2978.25           1608          22.00        64.95
  190.77        2978.50           1611          16.00        38.80
  190.79        2978.75           1615          23.00        69.31
  190.82        2979.00           1618          25.00        78.03
  190.85        2979.25           1621          25.00        78.03
  190.87        2979.50           1625          21.00        60.59
  190.90        2979.75           1628          18.00        47.52
  190.93        2980.00           1631          18.00        47.52
  190.96        2980.25           1635          18.00        47.52
  190.98        2980.50           1638          19.00        51.87
  191.01        2980.75           1641          22.00        64.95
  191.04        2981.00           1645          27.00        86.75
  191.07        2981.25           1648          18.00        47.52
  191.09        2981.50           1651          25.00        78.03
  191.12        2981.75           1655          23.00        69.31
  191.15        2982.00           1658          19.00        51.87
  191.18        2982.25           1661          20.00        56.23
  191.20        2982.50           1665          22.00        64.95
  191.23        2982.75           1668          21.00        60.59
  191.26        2983.00           1671          18.00        47.52
  191.28        2983.25           1675          21.00        60.59
  191.31        2983.50           1678          19.00        51.87
  191.34        2983.75           1681          25.00        78.03
  191.37        2984.00           1685          16.00        38.80
HS scan finished at 03:11:33
end
