************************************************************
  HS Scan of (1) Internal mercury lamp
************************************************************
Integration time is 0.2294 seconds per sample
dh050717Tamanrasset 22.79-5.529 3.337806pr865
************************************************************
Dead Time -------------------------  2.8E-08 
Number of Cycles Used -------------  4 
Starting Wavelength (Angstroms) ---  2950 
Final Wavelength (Angstoms) -------  2984 
Wavelength Increment (Angstroms) --  .25 
Filter Wheel #1 Position ---------- (1) Ground quartz diffuser (ND=2.32)
Filter Wheel #2 Position ---------- (1) Neutral Density 0.494



************************************************************
HS scan start time = 03:08:16
Dark Count =  5.3 


Time (GMT)  Wavelength (Ang)  Step Number  Raw Counts  Counts/Second

  188.62        2950.00           1233          20.00        64.08
  188.68        2950.25           1236          16.00        46.64
  188.71        2950.50           1239          21.00        68.44
  188.74        2950.75           1242          16.00        46.64
  188.77        2951.00           1246          21.00        68.44
  188.79        2951.25           1249          24.00        81.52
  188.82        2951.50           1252          19.00        59.72
  188.85        2951.75           1256          20.00        64.08
  188.87        2952.00           1259          21.00        68.44
  188.90        2952.25           1262          21.00        68.44
  188.93        2952.50           1266          19.00        59.72
  188.96        2952.75           1269          18.00        55.36
  188.98        2953.00           1272          23.00        77.16
  189.01        2953.25           1276          20.00        64.08
  189.04        2953.50           1279          22.00        72.80
  189.06        2953.75           1282          18.00        55.36
  189.09        2954.00           1286          21.00        68.44
  189.12        2954.25           1289          20.00        64.08
  189.15        2954.50           1292          20.00        64.08
  189.17        2954.75           1295          17.00        51.00
  189.20        2955.00           1299          18.00        55.36
  189.23        2955.25           1302          19.00        59.72
  189.26        2955.50           1305          19.00        59.72
  189.28        2955.75           1309          20.00        64.08
  189.31        2956.00           1312          22.00        72.80
  189.34        2956.25           1315          19.00        59.72
  189.36        2956.50           1319          19.00        59.72
  189.39        2956.75           1322          21.00        68.44
  189.42        2957.00           1325          21.00        68.44
  189.45        2957.25           1329          19.00        59.72
  189.47        2957.50           1332          21.00        68.44
  189.50        2957.75           1335          17.00        51.00
  189.53        2958.00           1339          21.00        68.44
  189.55        2958.25           1342          26.00        90.24
  189.58        2958.50           1345          27.00        94.59
  189.61        2958.75           1348          23.00        77.16
  189.64        2959.00           1352          20.00        64.08
  189.66        2959.25           1355          23.00        77.16
  189.69        2959.50           1358          19.00        59.72
  189.72        2959.75           1362          29.00       103.31
  189.74        2960.00           1365          31.00       112.03
  189.77        2960.25           1368          29.00       103.31
  189.80        2960.50           1372          38.00       142.55
  189.83        2960.75           1375          47.00       181.78
  189.85        2961.00           1378         123.00       513.08
  189.88        2961.25           1382         584.00      2522.85
  189.91        2961.50           1385        1422.00      6176.74
  189.93        2961.75           1388        2919.00     12705.92
  189.96        2962.00           1392        6026.00     26264.73
  189.99        2962.25           1395        8870.00     38684.86
  190.02        2962.50           1398       11931.00     52062.33
  190.04        2962.75           1402       15662.00     68381.46
  190.07        2963.00           1405       18975.00     82884.81
  190.10        2963.25           1408       21994.00     96111.39
  190.13        2963.50           1412       25969.00    113541.30
  190.15        2963.75           1415       28950.00    126623.80
  190.18        2964.00           1418       32139.00    140629.80
  190.21        2964.25           1422       36214.00    158543.10
  190.24        2964.50           1425       39320.00    172208.90
  190.26        2964.75           1428       42446.00    185973.30
  190.29        2965.00           1431       45840.00    200929.80
  190.32        2965.25           1435       49724.00    218061.00
  190.34        2965.50           1438       52908.00    232117.00
  190.37        2965.75           1441       56233.00    246807.40
  190.40        2966.00           1445       60382.00    265155.30
  190.43        2966.25           1448       63135.00    277340.30
  190.45        2966.50           1451       65143.00    286233.00
  190.48        2966.75           1455       66759.00    293393.00
  190.51        2967.00           1458       67417.00    296309.20
  190.54        2967.25           1461       67690.00    297519.30
  190.56        2967.50           1465       67343.00    295981.20
  190.59        2967.75           1468       67064.00    294744.60
  190.62        2968.00           1471       65822.00    289241.10
  190.65        2968.25           1475       63020.00    276831.10
  190.67        2968.50           1478       60258.00    264606.70
  190.70        2968.75           1481       57234.00    251232.30
  190.73        2969.00           1485       52397.00    229860.50
  190.75        2969.25           1488       49207.00    215779.70
  190.78        2969.50           1491       45969.00    201498.50
  190.81        2969.75           1495       41779.00    183035.50
  190.84        2970.00           1498       38278.00    167623.20
  190.86        2970.25           1501       35172.00    153960.90
  190.89        2970.50           1505       30969.00    135489.90
  190.92        2970.75           1508       27817.00    121650.40
  190.95        2971.00           1511       24481.00    107014.60
  190.97        2971.25           1515       20440.00     89301.92
  191.00        2971.50           1518       17349.00     75765.18
  191.03        2971.75           1521       14077.00     61446.96
  191.06        2972.00           1525        9958.00     43438.59
  191.08        2972.25           1528        6942.00     30264.08
  191.11        2972.50           1531        4348.00     18940.73
  191.14        2972.75           1535        1717.00      7463.20
  191.16        2973.00           1538         593.00      2562.08
  191.19        2973.25           1541         176.00       744.13
  191.22        2973.50           1545          49.00       190.50
  191.25        2973.75           1548          41.00       155.62
  191.27        2974.00           1551          38.00       142.55
  191.30        2974.25           1555          30.00       107.67
  191.33        2974.50           1558          24.00        81.52
  191.36        2974.75           1561          24.00        81.52
  191.38        2975.00           1565          31.00       112.03
  191.41        2975.25           1568          25.00        85.88
  191.44        2975.50           1571          24.00        81.52
  191.46        2975.75           1575          21.00        68.44
  191.49        2976.00           1578          21.00        68.44
  191.52        2976.25           1581          24.00        81.52
  191.55        2976.50           1585          25.00        85.88
  191.57        2976.75           1588          24.00        81.52
  191.60        2977.00           1591          24.00        81.52
  191.63        2977.25           1595          19.00        59.72
  191.65        2977.50           1598          24.00        81.52
  191.68        2977.75           1601          23.00        77.16
  191.71        2978.00           1605          24.00        81.52
  191.74        2978.25           1608          21.00        68.44
  191.76        2978.50           1611          21.00        68.44
  191.79        2978.75           1615          24.00        81.52
  191.82        2979.00           1618          24.00        81.52
  191.85        2979.25           1621          21.00        68.44
  191.87        2979.50           1625          23.00        77.16
  191.90        2979.75           1628          27.00        94.59
  191.93        2980.00           1631          24.00        81.52
  191.95        2980.25           1635          26.00        90.24
  191.98        2980.50           1638          19.00        59.72
  192.01        2980.75           1641          20.00        64.08
  192.04        2981.00           1645          17.00        51.00
  192.06        2981.25           1648          19.00        59.72
  192.09        2981.50           1651          23.00        77.16
  192.12        2981.75           1655          15.00        42.28
  192.14        2982.00           1658          17.00        51.00
  192.17        2982.25           1661          17.00        51.00
  192.20        2982.50           1665          24.00        81.52
  192.23        2982.75           1668          23.00        77.16
  192.25        2983.00           1671          22.00        72.80
  192.28        2983.25           1675          18.00        55.36
  192.31        2983.50           1678          24.00        81.52
  192.33        2983.75           1681          20.00        64.08
  192.36        2984.00           1685          19.00        59.72
HS scan finished at 03:12:33
end
