************************************************************
  HS Scan of (1) Internal mercury lamp
************************************************************
Integration time is 0.2294 seconds per sample
dh030717Tamanrasset 22.79-5.529 3.480559pr865
************************************************************
Dead Time -------------------------  2.8E-08 
Number of Cycles Used -------------  4 
Starting Wavelength (Angstroms) ---  2950 
Final Wavelength (Angstoms) -------  2984 
Wavelength Increment (Angstroms) --  .25 
Filter Wheel #1 Position ---------- (1) Ground quartz diffuser (ND=2.32)
Filter Wheel #2 Position ---------- (1) Neutral Density 0.494



************************************************************
HS scan start time = 03:06:44
Dark Count =  6 


Time (GMT)  Wavelength (Ang)  Step Number  Raw Counts  Counts/Second

  187.09        2950.00           1233          23.00        74.11
  187.15        2950.25           1236          20.00        61.03
  187.18        2950.50           1239          21.00        65.39
  187.21        2950.75           1242          21.00        65.39
  187.24        2951.00           1246          18.00        52.31
  187.26        2951.25           1249          17.00        47.95
  187.29        2951.50           1252          22.00        69.75
  187.32        2951.75           1256          20.00        61.03
  187.34        2952.00           1259          19.00        56.67
  187.37        2952.25           1262          16.00        43.59
  187.40        2952.50           1266          24.00        78.47
  187.43        2952.75           1269          19.00        56.67
  187.45        2953.00           1272          24.00        78.47
  187.48        2953.25           1276          21.00        65.39
  187.51        2953.50           1279          23.00        74.11
  187.54        2953.75           1282          21.00        65.39
  187.56        2954.00           1286          18.00        52.31
  187.59        2954.25           1289          20.00        61.03
  187.62        2954.50           1292          21.00        65.39
  187.65        2954.75           1295          25.00        82.82
  187.67        2955.00           1299          19.00        56.67
  187.70        2955.25           1302          21.00        65.39
  187.73        2955.50           1305          22.00        69.75
  187.75        2955.75           1309          20.00        61.03
  187.78        2956.00           1312          20.00        61.03
  187.81        2956.25           1315          23.00        74.11
  187.84        2956.50           1319          23.00        74.11
  187.86        2956.75           1322          18.00        52.31
  187.89        2957.00           1325          20.00        61.03
  187.92        2957.25           1329          23.00        74.11
  187.95        2957.50           1332          23.00        74.11
  187.97        2957.75           1335          20.00        61.03
  188.00        2958.00           1339          24.00        78.47
  188.03        2958.25           1342          18.00        52.31
  188.06        2958.50           1345          21.00        65.39
  188.08        2958.75           1348          23.00        74.11
  188.11        2959.00           1352          22.00        69.75
  188.14        2959.25           1355          17.00        47.95
  188.17        2959.50           1358          20.00        61.03
  188.19        2959.75           1362          19.00        56.67
  188.22        2960.00           1365          31.00       108.98
  188.25        2960.25           1368          29.00       100.26
  188.27        2960.50           1372          35.00       126.42
  188.30        2960.75           1375          60.00       235.40
  188.33        2961.00           1378         200.00       845.70
  188.36        2961.25           1382         863.00      3736.22
  188.38        2961.50           1385        2011.00      8742.33
  188.41        2961.75           1388        3787.00     16489.74
  188.44        2962.00           1392        7224.00     31492.45
  188.47        2962.25           1395       10291.00     44890.74
  188.49        2962.50           1398       13665.00     59641.80
  188.52        2962.75           1402       17685.00     77233.10
  188.55        2963.00           1405       20987.00     91695.46
  188.58        2963.25           1408       24218.00    105858.20
  188.60        2963.50           1412       28024.00    122555.80
  188.63        2963.75           1415       31491.00    137779.90
  188.66        2964.00           1418       34837.00    152484.90
  188.69        2964.25           1422       39040.00    170973.50
  188.71        2964.50           1425       42162.00    184719.30
  188.74        2964.75           1428       45324.00    198652.00
  188.77        2965.00           1431       48738.00    213707.40
  188.80        2965.25           1435       53067.00    232816.20
  188.82        2965.50           1438       56400.00    247542.50
  188.85        2965.75           1441       59582.00    261613.00
  188.88        2966.00           1445       64102.00    281619.10
  188.91        2966.25           1448       66279.00    291262.80
  188.93        2966.50           1451       68425.00    300774.40
  188.96        2966.75           1455       69716.00    306498.80
  188.99        2967.00           1458       70154.00    308441.40
  189.02        2967.25           1461       70307.00    309120.00
  189.04        2967.50           1465       69709.00    306467.80
  189.07        2967.75           1468       68896.00    302862.60
  189.10        2968.00           1471       67322.00    295885.00
  189.12        2968.25           1475       64126.00    281725.40
  189.15        2968.50           1478       61112.00    268382.40
  189.18        2968.75           1481       57755.00    253532.80
  189.21        2969.00           1485       53132.00    233103.30
  189.24        2969.25           1488       49746.00    218155.00
  189.26        2969.50           1491       46317.00    203029.70
  189.29        2969.75           1495       41810.00    183168.90
  189.32        2970.00           1498       38163.00    167114.10
  189.35        2970.25           1501       34902.00    152770.70
  189.37        2970.50           1505       30602.00    133874.90
  189.40        2970.75           1508       27186.00    118878.00
  189.43        2971.00           1511       24071.00    105213.60
  189.45        2971.25           1515       19939.00     87104.07
  189.48        2971.50           1518       16721.00     73013.11
  189.51        2971.75           1521       13553.00     59151.94
  189.54        2972.00           1525        9655.00     42111.53
  189.56        2972.25           1528        6577.00     28667.29
  189.59        2972.50           1531        4039.00     17589.31
  189.62        2972.75           1535        1448.00      6287.07
  189.65        2973.00           1538         478.00      2057.66
  189.67        2973.25           1541         130.00       540.55
  189.70        2973.50           1545          52.00       200.52
  189.73        2973.75           1548          40.00       148.21
  189.76        2974.00           1551          37.00       135.14
  189.78        2974.25           1555          27.00        91.54
  189.81        2974.50           1558          28.00        95.90
  189.84        2974.75           1561          24.00        78.47
  189.87        2975.00           1565          24.00        78.47
  189.89        2975.25           1568          26.00        87.18
  189.92        2975.50           1571          27.00        91.54
  189.95        2975.75           1575          25.00        82.82
  189.97        2976.00           1578          23.00        74.11
  190.00        2976.25           1581          25.00        82.82
  190.03        2976.50           1585          21.00        65.39
  190.06        2976.75           1588          24.00        78.47
  190.08        2977.00           1591          23.00        74.11
  190.11        2977.25           1595          22.00        69.75
  190.14        2977.50           1598          19.00        56.67
  190.17        2977.75           1601          23.00        74.11
  190.19        2978.00           1605          21.00        65.39
  190.22        2978.25           1608          20.00        61.03
  190.25        2978.50           1611          19.00        56.67
  190.28        2978.75           1615          22.00        69.75
  190.30        2979.00           1618          22.00        69.75
  190.33        2979.25           1621          22.00        69.75
  190.36        2979.50           1625          27.00        91.54
  190.38        2979.75           1628          25.00        82.82
  190.41        2980.00           1631          19.00        56.67
  190.44        2980.25           1635          26.00        87.18
  190.47        2980.50           1638          19.00        56.67
  190.49        2980.75           1641          25.00        82.82
  190.52        2981.00           1645          20.00        61.03
  190.55        2981.25           1648          23.00        74.11
  190.58        2981.50           1651          18.00        52.31
  190.60        2981.75           1655          23.00        74.11
  190.63        2982.00           1658          20.00        61.03
  190.66        2982.25           1661          23.00        74.11
  190.68        2982.50           1665          18.00        52.31
  190.71        2982.75           1668          20.00        61.03
  190.74        2983.00           1671          20.00        61.03
  190.77        2983.25           1675          20.00        61.03
  190.79        2983.50           1678          18.00        52.31
  190.82        2983.75           1681          20.00        61.03
  190.85        2984.00           1685          23.00        74.11
HS scan finished at 03:11:02
end
