************************************************************
  HS Scan of (1) Internal mercury lamp
************************************************************
Integration time is 0.2294 seconds per sample
dh040717Tamanrasset 22.79-5.529 3.500952pr865
************************************************************
Dead Time -------------------------  2.8E-08 
Number of Cycles Used -------------  4 
Starting Wavelength (Angstroms) ---  2950 
Final Wavelength (Angstoms) -------  2984 
Wavelength Increment (Angstroms) --  .25 
Filter Wheel #1 Position ---------- (1) Ground quartz diffuser (ND=2.32)
Filter Wheel #2 Position ---------- (1) Neutral Density 0.494



************************************************************
HS scan start time = 03:07:18
Dark Count =  6.2 


Time (GMT)  Wavelength (Ang)  Step Number  Raw Counts  Counts/Second

  187.65        2950.00           1233          19.00        55.80
  187.71        2950.25           1236          24.00        77.59
  187.74        2950.50           1239          21.00        64.52
  187.77        2950.75           1242          16.00        42.72
  187.80        2951.00           1246          24.00        77.59
  187.82        2951.25           1249          26.00        86.31
  187.85        2951.50           1252          23.00        73.23
  187.88        2951.75           1256          22.00        68.88
  187.91        2952.00           1259          21.00        64.52
  187.93        2952.25           1262          16.00        42.72
  187.96        2952.50           1266          16.00        42.72
  187.99        2952.75           1269          20.00        60.16
  188.01        2953.00           1272          18.00        51.44
  188.04        2953.25           1276          18.00        51.44
  188.07        2953.50           1279          21.00        64.52
  188.10        2953.75           1282          19.00        55.80
  188.12        2954.00           1286          25.00        81.95
  188.15        2954.25           1289          20.00        60.16
  188.18        2954.50           1292          19.00        55.80
  188.21        2954.75           1295          21.00        64.52
  188.23        2955.00           1299          19.00        55.80
  188.26        2955.25           1302          22.00        68.88
  188.29        2955.50           1305          19.00        55.80
  188.32        2955.75           1309          19.00        55.80
  188.34        2956.00           1312          22.00        68.88
  188.37        2956.25           1315          18.00        51.44
  188.40        2956.50           1319          21.00        64.52
  188.43        2956.75           1322          16.00        42.72
  188.45        2957.00           1325          25.00        81.95
  188.48        2957.25           1329          18.00        51.44
  188.51        2957.50           1332          21.00        64.52
  188.53        2957.75           1335          21.00        64.52
  188.56        2958.00           1339          21.00        64.52
  188.59        2958.25           1342          23.00        73.23
  188.62        2958.50           1345          21.00        64.52
  188.64        2958.75           1348          17.00        47.08
  188.67        2959.00           1352          20.00        60.16
  188.70        2959.25           1355          21.00        64.52
  188.73        2959.50           1358          26.00        86.31
  188.75        2959.75           1362          23.00        73.23
  188.78        2960.00           1365          30.00       103.75
  188.81        2960.25           1368          36.00       129.90
  188.83        2960.50           1372          40.00       147.34
  188.86        2960.75           1375          71.00       282.48
  188.89        2961.00           1378         229.00       971.26
  188.92        2961.25           1382         973.00      4214.97
  188.94        2961.50           1385        2335.00     10154.59
  188.97        2961.75           1388        4139.00     18024.79
  189.00        2962.00           1392        7543.00     32884.67
  189.03        2962.25           1395       10612.00     46292.75
  189.05        2962.50           1398       13873.00     60550.70
  189.08        2962.75           1402       18191.00     79447.69
  189.11        2963.00           1405       21486.00     93881.16
  189.14        2963.25           1408       24468.00    106953.70
  189.16        2963.50           1412       28759.00    125781.40
  189.19        2963.75           1415       32028.00    140138.20
  189.22        2964.00           1418       35132.00    153781.10
  189.25        2964.25           1422       39565.00    173283.40
  189.27        2964.50           1425       42912.00    188022.10
  189.30        2964.75           1428       45808.00    200784.80
  189.33        2965.00           1431       49048.00    215074.20
  189.36        2965.25           1435       53639.00    235341.70
  189.38        2965.50           1438       57115.00    250702.30
  189.41        2965.75           1441       60550.00    265894.70
  189.44        2966.00           1445       64457.00    283190.50
  189.47        2966.25           1448       66859.00    293832.10
  189.49        2966.50           1451       68962.00    303154.40
  189.52        2966.75           1455       70211.00    308693.30
  189.55        2967.00           1458       70664.00    310702.70
  189.58        2967.25           1461       70600.00    310418.70
  189.60        2967.50           1465       70263.00    308923.90
  189.63        2967.75           1468       69620.00    306072.10
  189.66        2968.00           1471       68147.00    299541.00
  189.69        2968.25           1475       64350.00    282716.50
  189.71        2968.50           1478       61618.00    270620.90
  189.74        2968.75           1481       58357.00    256193.90
  189.77        2969.00           1485       53717.00    235686.20
  189.80        2969.25           1488       50079.00    219623.70
  189.82        2969.50           1491       46727.00    204836.70
  189.85        2969.75           1495       41940.00    183740.60
  189.88        2970.00           1498       38492.00    168560.90
  189.91        2970.25           1501       35308.00    154555.00
  189.93        2970.50           1505       30806.00    134770.10
  189.96        2970.75           1508       27459.00    120075.20
  189.99        2971.00           1511       24205.00    105800.30
  190.02        2971.25           1515       19962.00     87203.96
  190.04        2971.50           1518       16679.00     72828.40
  190.07        2971.75           1521       13388.00     58429.43
  190.10        2972.00           1525        9343.00     40747.42
  190.13        2972.25           1528        6038.00     26313.19
  190.15        2972.50           1531        3543.00     15424.27
  190.18        2972.75           1535        1156.00      5012.91
  190.21        2973.00           1538         339.00      1450.80
  190.24        2973.25           1541         110.00       452.49
  190.26        2973.50           1545          41.00       151.70
  190.29        2973.75           1548          43.00       160.42
  190.32        2974.00           1551          30.00       103.75
  190.34        2974.25           1555          33.00       116.83
  190.37        2974.50           1558          31.00       108.11
  190.40        2974.75           1561          27.00        90.67
  190.43        2975.00           1565          27.00        90.67
  190.45        2975.25           1568          21.00        64.52
  190.48        2975.50           1571          20.00        60.16
  190.51        2975.75           1575          24.00        77.59
  190.54        2976.00           1578          24.00        77.59
  190.56        2976.25           1581          21.00        64.52
  190.59        2976.50           1585          23.00        73.23
  190.62        2976.75           1588          20.00        60.16
  190.65        2977.00           1591          27.00        90.67
  190.67        2977.25           1595          22.00        68.88
  190.70        2977.50           1598          22.00        68.88
  190.73        2977.75           1601          22.00        68.88
  190.75        2978.00           1605          18.00        51.44
  190.78        2978.25           1608          28.00        95.03
  190.81        2978.50           1611          22.00        68.88
  190.84        2978.75           1615          26.00        86.31
  190.86        2979.00           1618          26.00        86.31
  190.89        2979.25           1621          23.00        73.23
  190.92        2979.50           1625          27.00        90.67
  190.95        2979.75           1628          25.00        81.95
  190.97        2980.00           1631          21.00        64.52
  191.00        2980.25           1635          21.00        64.52
  191.03        2980.50           1638          21.00        64.52
  191.06        2980.75           1641          23.00        73.23
  191.08        2981.00           1645          27.00        90.67
  191.11        2981.25           1648          20.00        60.16
  191.14        2981.50           1651          22.00        68.88
  191.16        2981.75           1655          21.00        64.52
  191.19        2982.00           1658          20.00        60.16
  191.22        2982.25           1661          17.00        47.08
  191.25        2982.50           1665          20.00        60.16
  191.27        2982.75           1668          19.00        55.80
  191.30        2983.00           1671          23.00        73.23
  191.33        2983.25           1675          20.00        60.16
  191.36        2983.50           1678          19.00        55.80
  191.38        2983.75           1681          27.00        90.67
  191.41        2984.00           1685          21.00        64.52
HS scan finished at 03:11:36
end
