************************************************************
  HS Scan of (1) Internal mercury lamp
************************************************************
Integration time is 0.2294 seconds per sample
dh010717Tamanrasset 22.79-5.529 3.404084pr865
************************************************************
Dead Time -------------------------  2.8E-08 
Number of Cycles Used -------------  4 
Starting Wavelength (Angstroms) ---  2950 
Final Wavelength (Angstoms) -------  2984 
Wavelength Increment (Angstroms) --  .25 
Filter Wheel #1 Position ---------- (1) Ground quartz diffuser (ND=2.32)
Filter Wheel #2 Position ---------- (1) Neutral Density 0.494



************************************************************
HS scan start time = 03:06:18
Dark Count =  6.2 


Time (GMT)  Wavelength (Ang)  Step Number  Raw Counts  Counts/Second

  186.66        2950.00           1233          20.00        60.16
  186.72        2950.25           1236          19.00        55.80
  186.75        2950.50           1239          16.00        42.72
  186.77        2950.75           1242          21.00        64.52
  186.80        2951.00           1246          15.00        38.36
  186.83        2951.25           1249          19.00        55.80
  186.86        2951.50           1252          20.00        60.16
  186.88        2951.75           1256          17.00        47.08
  186.91        2952.00           1259          20.00        60.16
  186.94        2952.25           1262          20.00        60.16
  186.96        2952.50           1266          16.00        42.72
  186.99        2952.75           1269          22.00        68.88
  187.02        2953.00           1272          23.00        73.23
  187.05        2953.25           1276          23.00        73.23
  187.07        2953.50           1279          22.00        68.88
  187.10        2953.75           1282          17.00        47.08
  187.13        2954.00           1286          23.00        73.23
  187.16        2954.25           1289          24.00        77.59
  187.18        2954.50           1292          20.00        60.16
  187.21        2954.75           1295          19.00        55.80
  187.24        2955.00           1299          24.00        77.59
  187.26        2955.25           1302          17.00        47.08
  187.29        2955.50           1305          19.00        55.80
  187.32        2955.75           1309          20.00        60.16
  187.35        2956.00           1312          15.00        38.36
  187.37        2956.25           1315          22.00        68.88
  187.40        2956.50           1319          19.00        55.80
  187.43        2956.75           1322          17.00        47.08
  187.46        2957.00           1325          20.00        60.16
  187.48        2957.25           1329          17.00        47.08
  187.51        2957.50           1332          23.00        73.23
  187.54        2957.75           1335          20.00        60.16
  187.56        2958.00           1339          19.00        55.80
  187.59        2958.25           1342          20.00        60.16
  187.62        2958.50           1345          16.00        42.72
  187.65        2958.75           1348          19.00        55.80
  187.67        2959.00           1352          25.00        81.95
  187.70        2959.25           1355          27.00        90.67
  187.73        2959.50           1358          27.00        90.67
  187.76        2959.75           1362          25.00        81.95
  187.78        2960.00           1365          28.00        95.03
  187.81        2960.25           1368          33.00       116.83
  187.84        2960.50           1372          35.00       125.55
  187.86        2960.75           1375          58.00       225.81
  187.89        2961.00           1378         163.00       683.54
  187.92        2961.25           1382         728.00      3146.75
  187.95        2961.50           1385        1775.00      7712.22
  187.97        2961.75           1388        3398.00     14791.65
  188.00        2962.00           1392        6912.00     30129.16
  188.03        2962.25           1395        9866.00     43032.64
  188.06        2962.50           1398       12995.00     56710.73
  188.08        2962.75           1402       17200.00     75108.97
  188.11        2963.00           1405       20115.00     87874.19
  188.14        2963.25           1408       23631.00    103283.40
  188.17        2963.50           1412       27696.00    121115.40
  188.19        2963.75           1415       30693.00    134273.70
  188.22        2964.00           1418       34130.00    149375.90
  188.25        2964.25           1422       38068.00    166695.20
  188.28        2964.50           1425       41214.00    180543.40
  188.30        2964.75           1428       44477.00    194917.90
  188.33        2965.00           1431       47843.00    209758.50
  188.36        2965.25           1435       52200.00    228986.60
  188.39        2965.50           1438       55364.00    242962.90
  188.41        2965.75           1441       58446.00    256587.50
  188.44        2966.00           1445       62476.00    274418.70
  188.47        2966.25           1448       65122.00    286136.00
  188.50        2966.50           1451       67238.00    295511.80
  188.52        2966.75           1455       68517.00    301181.40
  188.55        2967.00           1458       68662.00    301824.20
  188.58        2967.25           1461       69045.00    303522.40
  188.61        2967.50           1465       68699.00    301988.30
  188.63        2967.75           1468       67677.00    297457.60
  188.66        2968.00           1471       66205.00    290934.00
  188.69        2968.25           1475       62815.00    275919.50
  188.72        2968.50           1478       59796.00    262558.70
  188.74        2968.75           1481       56744.00    249062.20
  188.77        2969.00           1485       52118.00    228624.50
  188.80        2969.25           1488       48965.00    214708.00
  188.83        2969.50           1491       45548.00    199638.60
  188.85        2969.75           1495       41058.00    179856.40
  188.88        2970.00           1498       37828.00    165639.20
  188.91        2970.25           1501       34601.00    151446.40
  188.94        2970.50           1505       30222.00    132205.10
  188.96        2970.75           1508       27020.00    118148.70
  188.99        2971.00           1511       23763.00    103862.20
  189.02        2971.25           1515       19701.00     86060.66
  189.05        2971.50           1518       16432.00     71747.31
  189.07        2971.75           1521       13619.00     59439.74
  189.10        2972.00           1525        9587.00     41813.53
  189.13        2972.25           1528        6552.00     28557.26
  189.16        2972.50           1531        3905.00     17003.74
  189.18        2972.75           1535        1486.00      6451.91
  189.21        2973.00           1538         506.00      2178.86
  189.24        2973.25           1541         136.00       565.83
  189.27        2973.50           1545          51.00       195.29
  189.29        2973.75           1548          43.00       160.42
  189.32        2974.00           1551          36.00       129.90
  189.35        2974.25           1555          30.00       103.75
  189.38        2974.50           1558          28.00        95.03
  189.40        2974.75           1561          25.00        81.95
  189.43        2975.00           1565          27.00        90.67
  189.46        2975.25           1568          24.00        77.59
  189.49        2975.50           1571          26.00        86.31
  189.51        2975.75           1575          22.00        68.88
  189.54        2976.00           1578          18.00        51.44
  189.57        2976.25           1581          25.00        81.95
  189.59        2976.50           1585          22.00        68.88
  189.62        2976.75           1588          20.00        60.16
  189.65        2977.00           1591          23.00        73.23
  189.68        2977.25           1595          28.00        95.03
  189.70        2977.50           1598          22.00        68.88
  189.73        2977.75           1601          21.00        64.52
  189.76        2978.00           1605          21.00        64.52
  189.79        2978.25           1608          22.00        68.88
  189.81        2978.50           1611          24.00        77.59
  189.84        2978.75           1615          21.00        64.52
  189.87        2979.00           1618          17.00        47.08
  189.90        2979.25           1621          21.00        64.52
  189.92        2979.50           1625          22.00        68.88
  189.95        2979.75           1628          21.00        64.52
  189.98        2980.00           1631          24.00        77.59
  190.00        2980.25           1635          22.00        68.88
  190.03        2980.50           1638          29.00        99.39
  190.06        2980.75           1641          20.00        60.16
  190.09        2981.00           1645          25.00        81.95
  190.11        2981.25           1648          20.00        60.16
  190.14        2981.50           1651          25.00        81.95
  190.17        2981.75           1655          22.00        68.88
  190.20        2982.00           1658          22.00        68.88
  190.22        2982.25           1661          21.00        64.52
  190.25        2982.50           1665          25.00        81.95
  190.28        2982.75           1668          19.00        55.80
  190.30        2983.00           1671          20.00        60.16
  190.33        2983.25           1675          15.00        38.36
  190.36        2983.50           1678          22.00        68.88
  190.39        2983.75           1681          17.00        47.08
  190.41        2984.00           1685          20.00        60.16
HS scan finished at 03:10:36
end
