************************************************************
  HS Scan of (1) Internal mercury lamp
************************************************************
Integration time is 0.2294 seconds per sample
dh300617Tamanrasset 22.79-5.529 3.322511pr865
************************************************************
Dead Time -------------------------  2.8E-08 
Number of Cycles Used -------------  4 
Starting Wavelength (Angstroms) ---  2950 
Final Wavelength (Angstoms) -------  2984 
Wavelength Increment (Angstroms) --  .25 
Filter Wheel #1 Position ---------- (1) Ground quartz diffuser (ND=2.32)
Filter Wheel #2 Position ---------- (1) Neutral Density 0.494



************************************************************
HS scan start time = 03:06:14
Dark Count =  5.2 


Time (GMT)  Wavelength (Ang)  Step Number  Raw Counts  Counts/Second

  186.60        2950.00           1233          21.00        68.88
  186.66        2950.25           1236          22.00        73.23
  186.69        2950.50           1239          17.00        51.44
  186.71        2950.75           1242          25.00        86.31
  186.74        2951.00           1246          21.00        68.88
  186.77        2951.25           1249          16.00        47.08
  186.80        2951.50           1252          23.00        77.59
  186.82        2951.75           1256          18.00        55.80
  186.85        2952.00           1259          22.00        73.23
  186.88        2952.25           1262          15.00        42.72
  186.91        2952.50           1266          17.00        51.44
  186.93        2952.75           1269          19.00        60.16
  186.96        2953.00           1272          18.00        55.80
  186.99        2953.25           1276          22.00        73.23
  187.01        2953.50           1279          20.00        64.52
  187.04        2953.75           1282          19.00        60.16
  187.07        2954.00           1286          19.00        60.16
  187.10        2954.25           1289          25.00        86.31
  187.12        2954.50           1292          19.00        60.16
  187.15        2954.75           1295          20.00        64.52
  187.18        2955.00           1299          21.00        68.88
  187.21        2955.25           1302          18.00        55.80
  187.23        2955.50           1305          19.00        60.16
  187.26        2955.75           1309          20.00        64.52
  187.29        2956.00           1312          23.00        77.59
  187.31        2956.25           1315          18.00        55.80
  187.34        2956.50           1319          19.00        60.16
  187.37        2956.75           1322          18.00        55.80
  187.40        2957.00           1325          17.00        51.44
  187.42        2957.25           1329          18.00        55.80
  187.45        2957.50           1332          16.00        47.08
  187.48        2957.75           1335          23.00        77.59
  187.51        2958.00           1339          16.00        47.08
  187.53        2958.25           1342          16.00        47.08
  187.56        2958.50           1345          17.00        51.44
  187.59        2958.75           1348          17.00        51.44
  187.61        2959.00           1352          23.00        77.59
  187.64        2959.25           1355          20.00        64.52
  187.67        2959.50           1358          25.00        86.31
  187.70        2959.75           1362          24.00        81.95
  187.72        2960.00           1365          24.00        81.95
  187.75        2960.25           1368          23.00        77.59
  187.78        2960.50           1372          35.00       129.90
  187.81        2960.75           1375          39.00       147.34
  187.83        2961.00           1378         134.00       561.47
  187.86        2961.25           1382         670.00      2898.23
  187.89        2961.50           1385        1672.00      7267.39
  187.92        2961.75           1388        3232.00     14071.81
  187.94        2962.00           1392        6428.00     28020.23
  187.97        2962.25           1395        9319.00     40646.94
  188.00        2962.50           1398       12424.00     54218.26
  188.03        2962.75           1402       16384.00     71541.60
  188.05        2963.00           1405       19395.00     84724.74
  188.08        2963.25           1408       22291.00     97413.56
  188.11        2963.50           1412       26275.00    114884.20
  188.14        2963.75           1415       29417.00    128674.60
  188.16        2964.00           1418       32351.00    141561.80
  188.19        2964.25           1422       36550.00    160021.40
  188.22        2964.50           1425       39640.00    173617.90
  188.25        2964.75           1428       42775.00    187423.00
  188.27        2965.00           1431       46005.00    201657.70
  188.30        2965.25           1435       50020.00    219367.70
  188.33        2965.50           1438       53167.00    233261.40
  188.36        2965.75           1441       56318.00    247183.50
  188.38        2966.00           1445       60485.00    265611.50
  188.41        2966.25           1448       62924.00    276406.50
  188.44        2966.50           1451       65070.00    285910.00
  188.47        2966.75           1455       66765.00    293420.00
  188.49        2967.00           1458       67468.00    296535.70
  188.52        2967.25           1461       67554.00    296916.90
  188.55        2967.50           1465       67272.00    295666.90
  188.58        2967.75           1468       66767.00    293428.90
  188.60        2968.00           1471       65679.00    288608.00
  188.63        2968.25           1475       63128.00    277309.70
  188.66        2968.50           1478       60193.00    264319.50
  188.69        2968.75           1481       57125.00    250750.90
  188.71        2969.00           1485       52900.00    232082.20
  188.74        2969.25           1488       49504.00    217090.70
  188.77        2969.50           1491       45871.00    201066.90
  188.80        2969.75           1495       41957.00    183819.90
  188.82        2970.00           1498       38406.00    168186.90
  188.85        2970.25           1501       35037.00    153367.80
  188.88        2970.50           1505       30595.00    133847.70
  188.91        2970.75           1508       27084.00    118434.00
  188.93        2971.00           1511       24335.00    106374.80
  188.96        2971.25           1515       20255.00     88491.88
  188.99        2971.50           1518       17203.00     75126.48
  189.02        2971.75           1521       14228.00     62107.92
  189.04        2972.00           1525        9983.00     43548.28
  189.07        2972.25           1528        7119.00     31037.43
  189.10        2972.50           1531        4433.00     19312.10
  189.13        2972.75           1535        1706.00      7415.66
  189.15        2973.00           1538         590.00      2549.44
  189.18        2973.25           1541         148.00       622.50
  189.21        2973.50           1545          48.00       186.57
  189.24        2973.75           1548          36.00       134.26
  189.26        2974.00           1551          34.00       125.55
  189.29        2974.25           1555          30.00       108.11
  189.32        2974.50           1558          28.00        99.39
  189.35        2974.75           1561          26.00        90.67
  189.37        2975.00           1565          25.00        86.31
  189.40        2975.25           1568          25.00        86.31
  189.43        2975.50           1571          20.00        64.52
  189.45        2975.75           1575          29.00       103.75
  189.48        2976.00           1578          23.00        77.59
  189.51        2976.25           1581          19.00        60.16
  189.54        2976.50           1585          20.00        64.52
  189.56        2976.75           1588          25.00        86.31
  189.59        2977.00           1591          25.00        86.31
  189.62        2977.25           1595          27.00        95.03
  189.65        2977.50           1598          21.00        68.88
  189.67        2977.75           1601          20.00        64.52
  189.70        2978.00           1605          27.00        95.03
  189.73        2978.25           1608          19.00        60.16
  189.75        2978.50           1611          26.00        90.67
  189.78        2978.75           1615          21.00        68.88
  189.81        2979.00           1618          19.00        60.16
  189.84        2979.25           1621          26.00        90.67
  189.86        2979.50           1625          25.00        86.31
  189.89        2979.75           1628          22.00        73.23
  189.92        2980.00           1631          21.00        68.88
  189.95        2980.25           1635          25.00        86.31
  189.97        2980.50           1638          22.00        73.23
  190.00        2980.75           1641          22.00        73.23
  190.03        2981.00           1645          21.00        68.88
  190.05        2981.25           1648          18.00        55.80
  190.08        2981.50           1651          27.00        95.03
  190.11        2981.75           1655          22.00        73.23
  190.14        2982.00           1658          17.00        51.44
  190.16        2982.25           1661          23.00        77.59
  190.19        2982.50           1665          17.00        51.44
  190.22        2982.75           1668          18.00        55.80
  190.25        2983.00           1671          22.00        73.23
  190.27        2983.25           1675          19.00        60.16
  190.30        2983.50           1678          20.00        64.52
  190.33        2983.75           1681          21.00        68.88
  190.35        2984.00           1685          23.00        77.59
HS scan finished at 03:10:33
end
