************************************************************
  HS Scan of (1) Internal mercury lamp
************************************************************
Integration time is 0.2294 seconds per sample
dh170717Tamanrasset 22.79-5.529 3.271528pr865
************************************************************
Dead Time -------------------------  2.8E-08 
Number of Cycles Used -------------  4 
Starting Wavelength (Angstroms) ---  2950 
Final Wavelength (Angstoms) -------  2984 
Wavelength Increment (Angstroms) --  .25 
Filter Wheel #1 Position ---------- (1) Ground quartz diffuser (ND=2.32)
Filter Wheel #2 Position ---------- (1) Neutral Density 0.494



************************************************************
HS scan start time = 03:13:16
Dark Count =  4.7 


Time (GMT)  Wavelength (Ang)  Step Number  Raw Counts  Counts/Second

  193.62        2950.00           1233          18.00        57.98
  193.68        2950.25           1236          21.00        71.06
  193.71        2950.50           1239          17.00        53.62
  193.74        2950.75           1242          22.00        75.41
  193.76        2951.00           1246          18.00        57.98
  193.79        2951.25           1249          18.00        57.98
  193.82        2951.50           1252          24.00        84.13
  193.85        2951.75           1256          20.00        66.70
  193.87        2952.00           1259          19.00        62.34
  193.90        2952.25           1262          21.00        71.06
  193.93        2952.50           1266          17.00        53.62
  193.95        2952.75           1269          23.00        79.77
  193.98        2953.00           1272          21.00        71.06
  194.01        2953.25           1276          15.00        44.90
  194.04        2953.50           1279          15.00        44.90
  194.06        2953.75           1282          20.00        66.70
  194.09        2954.00           1286          20.00        66.70
  194.12        2954.25           1289          20.00        66.70
  194.14        2954.50           1292          16.00        49.26
  194.17        2954.75           1295          17.00        53.62
  194.20        2955.00           1299          25.00        88.49
  194.23        2955.25           1302          16.00        49.26
  194.25        2955.50           1305          16.00        49.26
  194.28        2955.75           1309          22.00        75.41
  194.31        2956.00           1312          19.00        62.34
  194.34        2956.25           1315          16.00        49.26
  194.36        2956.50           1319          23.00        79.77
  194.39        2956.75           1322          19.00        62.34
  194.42        2957.00           1325          17.00        53.62
  194.44        2957.25           1329          23.00        79.77
  194.47        2957.50           1332          17.00        53.62
  194.50        2957.75           1335          21.00        71.06
  194.53        2958.00           1339          20.00        66.70
  194.55        2958.25           1342          24.00        84.13
  194.58        2958.50           1345          21.00        71.06
  194.61        2958.75           1348          17.00        53.62
  194.63        2959.00           1352          17.00        53.62
  194.66        2959.25           1355          25.00        88.49
  194.69        2959.50           1358          22.00        75.41
  194.71        2959.75           1362          28.00       101.57
  194.74        2960.00           1365          23.00        79.77
  194.77        2960.25           1368          28.00       101.57
  194.80        2960.50           1372          35.00       132.08
  194.82        2960.75           1375          50.00       197.47
  194.85        2961.00           1378         153.00       646.48
  194.88        2961.25           1382         707.00      3061.73
  194.91        2961.50           1385        1623.00      7055.88
  194.93        2961.75           1388        3345.00     14566.97
  194.96        2962.00           1392        6705.00     29231.85
  194.99        2962.25           1395        9319.00     40649.12
  195.01        2962.50           1398       12286.00     53617.05
  195.04        2962.75           1402       16054.00     70099.53
  195.07        2963.00           1405       19190.00     83829.06
  195.10        2963.25           1408       22370.00     97762.02
  195.12        2963.50           1412       25974.00    113565.90
  195.15        2963.75           1415       29006.00    126872.30
  195.18        2964.00           1418       31908.00    139617.60
  195.21        2964.25           1422       35995.00    157582.60
  195.23        2964.50           1425       38969.00    170666.70
  195.26        2964.75           1428       42023.00    184112.80
  195.29        2965.00           1431       45037.00    197392.70
  195.32        2965.25           1435       49229.00    215879.50
  195.34        2965.50           1438       52219.00    229077.10
  195.37        2965.75           1441       55302.00    242695.50
  195.40        2966.00           1445       59450.00    261034.80
  195.43        2966.25           1448       61929.00    272004.00
  195.45        2966.50           1451       63924.00    280836.50
  195.48        2966.75           1455       65124.00    286151.50
  195.51        2967.00           1458       65792.00    289110.80
  195.53        2967.25           1461       65633.00    288406.40
  195.56        2967.50           1465       65482.00    287737.40
  195.59        2967.75           1468       64684.00    284202.50
  195.62        2968.00           1471       63593.00    279370.80
  195.64        2968.25           1475       60804.00    267025.20
  195.67        2968.50           1478       58017.00    254697.00
  195.70        2968.75           1481       54982.00    241281.50
  195.73        2969.00           1485       50392.00    221011.70
  195.75        2969.25           1488       47440.00    207987.60
  195.78        2969.50           1491       44215.00    193769.90
  195.81        2969.75           1495       40430.00    177097.90
  195.84        2970.00           1498       36995.00    161981.10
  195.86        2970.25           1501       33787.00    147874.80
  195.89        2970.50           1505       29643.00    129669.20
  195.92        2970.75           1508       26747.00    116957.40
  195.95        2971.00           1511       23775.00    103921.40
  195.97        2971.25           1515       19637.00     85786.90
  196.00        2971.50           1518       16684.00     72856.85
  196.03        2971.75           1521       13663.00     59638.74
  196.05        2972.00           1525        9758.00     42567.27
  196.08        2972.25           1528        6893.00     30052.74
  196.11        2972.50           1531        4290.00     18690.25
  196.14        2972.75           1535        1771.00      7701.31
  196.16        2973.00           1538         642.00      2778.33
  196.19        2973.25           1541         182.00       772.90
  196.22        2973.50           1545          47.00       184.40
  196.25        2973.75           1548          38.00       145.16
  196.27        2974.00           1551          31.00       114.65
  196.30        2974.25           1555          31.00       114.65
  196.33        2974.50           1558          27.00        97.21
  196.35        2974.75           1561          25.00        88.49
  196.38        2975.00           1565          24.00        84.13
  196.41        2975.25           1568          23.00        79.77
  196.44        2975.50           1571          23.00        79.77
  196.46        2975.75           1575          22.00        75.41
  196.49        2976.00           1578          22.00        75.41
  196.52        2976.25           1581          22.00        75.41
  196.54        2976.50           1585          20.00        66.70
  196.57        2976.75           1588          26.00        92.85
  196.60        2977.00           1591          22.00        75.41
  196.63        2977.25           1595          21.00        71.06
  196.65        2977.50           1598          23.00        79.77
  196.68        2977.75           1601          22.00        75.41
  196.71        2978.00           1605          20.00        66.70
  196.74        2978.25           1608          24.00        84.13
  196.76        2978.50           1611          23.00        79.77
  196.79        2978.75           1615          22.00        75.41
  196.82        2979.00           1618          22.00        75.41
  196.84        2979.25           1621          22.00        75.41
  196.87        2979.50           1625          21.00        71.06
  196.90        2979.75           1628          18.00        57.98
  196.93        2980.00           1631          21.00        71.06
  196.95        2980.25           1635          21.00        71.06
  196.98        2980.50           1638          21.00        71.06
  197.01        2980.75           1641          21.00        71.06
  197.03        2981.00           1645          22.00        75.41
  197.06        2981.25           1648          22.00        75.41
  197.09        2981.50           1651          22.00        75.41
  197.12        2981.75           1655          18.00        57.98
  197.14        2982.00           1658          15.00        44.90
  197.17        2982.25           1661          19.00        62.34
  197.20        2982.50           1665          17.00        53.62
  197.22        2982.75           1668          20.00        66.70
  197.25        2983.00           1671          19.00        62.34
  197.28        2983.25           1675          18.00        57.98
  197.31        2983.50           1678          19.00        62.34
  197.33        2983.75           1681          18.00        57.98
  197.36        2984.00           1685          19.00        62.34
HS scan finished at 03:17:33
end
