************************************************************
  HS Scan of (1) Internal mercury lamp
************************************************************
Integration time is 0.2294 seconds per sample
dh150717Tamanrasset 22.79-5.529 3.220544pr865
************************************************************
Dead Time -------------------------  2.8E-08 
Number of Cycles Used -------------  4 
Starting Wavelength (Angstroms) ---  2950 
Final Wavelength (Angstoms) -------  2984 
Wavelength Increment (Angstroms) --  .25 
Filter Wheel #1 Position ---------- (1) Ground quartz diffuser (ND=2.32)
Filter Wheel #2 Position ---------- (1) Neutral Density 0.494



************************************************************
HS scan start time = 03:12:15
Dark Count =  4.8 


Time (GMT)  Wavelength (Ang)  Step Number  Raw Counts  Counts/Second

  192.61        2950.00           1233          18.00        57.54
  192.67        2950.25           1236          21.00        70.62
  192.70        2950.50           1239          22.00        74.98
  192.73        2950.75           1242          21.00        70.62
  192.76        2951.00           1246          19.00        61.90
  192.78        2951.25           1249          16.00        48.82
  192.81        2951.50           1252          17.00        53.18
  192.84        2951.75           1256          20.00        66.26
  192.86        2952.00           1259          23.00        79.34
  192.89        2952.25           1262          25.00        88.06
  192.92        2952.50           1266          23.00        79.34
  192.95        2952.75           1269          18.00        57.54
  192.97        2953.00           1272          19.00        61.90
  193.00        2953.25           1276          23.00        79.34
  193.03        2953.50           1279          25.00        88.06
  193.05        2953.75           1282          18.00        57.54
  193.08        2954.00           1286          19.00        61.90
  193.11        2954.25           1289          18.00        57.54
  193.14        2954.50           1292          17.00        53.18
  193.16        2954.75           1295          17.00        53.18
  193.19        2955.00           1299          18.00        57.54
  193.22        2955.25           1302          19.00        61.90
  193.24        2955.50           1305          25.00        88.06
  193.27        2955.75           1309          16.00        48.82
  193.30        2956.00           1312          17.00        53.18
  193.33        2956.25           1315          19.00        61.90
  193.35        2956.50           1319          17.00        53.18
  193.38        2956.75           1322          24.00        83.70
  193.41        2957.00           1325          22.00        74.98
  193.43        2957.25           1329          19.00        61.90
  193.46        2957.50           1332          21.00        70.62
  193.49        2957.75           1335          16.00        48.82
  193.52        2958.00           1339          22.00        74.98
  193.54        2958.25           1342          18.00        57.54
  193.57        2958.50           1345          20.00        66.26
  193.60        2958.75           1348          20.00        66.26
  193.63        2959.00           1352          22.00        74.98
  193.65        2959.25           1355          20.00        66.26
  193.68        2959.50           1358          25.00        88.06
  193.71        2959.75           1362          21.00        70.62
  193.73        2960.00           1365          26.00        92.42
  193.76        2960.25           1368          28.00       101.13
  193.79        2960.50           1372          34.00       127.29
  193.82        2960.75           1375          37.00       140.37
  193.84        2961.00           1378         124.00       519.62
  193.87        2961.25           1382         645.00      2790.98
  193.90        2961.50           1385        1478.00      6423.13
  193.92        2961.75           1388        3034.00     13209.77
  193.95        2962.00           1392        6046.00     26354.23
  193.98        2962.25           1395        8751.00     38167.19
  194.01        2962.50           1398       11689.00     51006.54
  194.03        2962.75           1402       15456.00     67482.23
  194.06        2963.00           1405       18593.00     81214.11
  194.09        2963.25           1408       21457.00     93760.21
  194.12        2963.50           1412       25282.00    110529.90
  194.14        2963.75           1415       28401.00    124215.90
  194.17        2964.00           1418       31495.00    137802.70
  194.20        2964.25           1422       35043.00    153395.90
  194.23        2964.50           1425       38122.00    166938.90
  194.25        2964.75           1428       41529.00    181936.70
  194.28        2965.00           1431       44500.00    195025.50
  194.31        2965.25           1435       48759.00    213805.30
  194.33        2965.50           1438       51534.00    226052.30
  194.36        2965.75           1441       54462.00    238983.60
  194.39        2966.00           1445       58589.00    257226.10
  194.42        2966.25           1448       60749.00    266781.40
  194.44        2966.50           1451       63145.00    277386.70
  194.47        2966.75           1455       64551.00    283613.00
  194.50        2967.00           1458       65023.00    285703.60
  194.53        2967.25           1461       65233.00    286633.90
  194.55        2967.50           1465       64847.00    284924.10
  194.58        2967.75           1468       64163.00    281894.50
  194.61        2968.00           1471       62911.00    276350.70
  194.64        2968.25           1475       59993.00    263436.50
  194.66        2968.50           1478       56964.00    250040.90
  194.69        2968.75           1481       54298.00    238259.00
  194.72        2969.00           1485       49941.00    219020.90
  194.74        2969.25           1488       46896.00    205588.10
  194.77        2969.50           1491       43655.00    191301.80
  194.80        2969.75           1495       39560.00    173267.50
  194.83        2970.00           1498       36389.00    159315.00
  194.85        2970.25           1501       33251.00    145518.50
  194.88        2970.50           1505       29367.00    128456.80
  194.91        2970.75           1508       26225.00    114666.60
  194.94        2971.00           1511       23188.00    101347.30
  194.96        2971.25           1515       19132.00     83574.60
  194.99        2971.50           1518       16133.00     70444.82
  195.02        2971.75           1521       13136.00     57333.46
  195.04        2972.00           1525        9366.00     40854.03
  195.07        2972.25           1528        6519.00     28419.30
  195.10        2972.50           1531        3984.00     17354.55
  195.13        2972.75           1535        1636.00      7112.14
  195.15        2973.00           1538         595.00      2572.98
  195.18        2973.25           1541         176.00       746.31
  195.21        2973.50           1545          52.00       205.76
  195.24        2973.75           1548          40.00       153.44
  195.26        2974.00           1551          35.00       131.65
  195.29        2974.25           1555          28.00       101.13
  195.32        2974.50           1558          27.00        96.77
  195.34        2974.75           1561          24.00        83.70
  195.37        2975.00           1565          22.00        74.98
  195.40        2975.25           1568          20.00        66.26
  195.43        2975.50           1571          25.00        88.06
  195.45        2975.75           1575          25.00        88.06
  195.48        2976.00           1578          20.00        66.26
  195.51        2976.25           1581          19.00        61.90
  195.53        2976.50           1585          25.00        88.06
  195.56        2976.75           1588          19.00        61.90
  195.59        2977.00           1591          23.00        79.34
  195.62        2977.25           1595          28.00       101.13
  195.64        2977.50           1598          26.00        92.42
  195.67        2977.75           1601          23.00        79.34
  195.70        2978.00           1605          23.00        79.34
  195.73        2978.25           1608          22.00        74.98
  195.75        2978.50           1611          21.00        70.62
  195.78        2978.75           1615          26.00        92.42
  195.81        2979.00           1618          21.00        70.62
  195.83        2979.25           1621          22.00        74.98
  195.86        2979.50           1625          22.00        74.98
  195.89        2979.75           1628          23.00        79.34
  195.92        2980.00           1631          26.00        92.42
  195.94        2980.25           1635          21.00        70.62
  195.97        2980.50           1638          25.00        88.06
  196.00        2980.75           1641          20.00        66.26
  196.02        2981.00           1645          19.00        61.90
  196.05        2981.25           1648          19.00        61.90
  196.08        2981.50           1651          20.00        66.26
  196.11        2981.75           1655          24.00        83.70
  196.13        2982.00           1658          20.00        66.26
  196.16        2982.25           1661          15.00        44.46
  196.19        2982.50           1665          27.00        96.77
  196.21        2982.75           1668          17.00        53.18
  196.24        2983.00           1671          22.00        74.98
  196.27        2983.25           1675          19.00        61.90
  196.30        2983.50           1678          20.00        66.26
  196.32        2983.75           1681          22.00        74.98
  196.35        2984.00           1685          17.00        53.18
HS scan finished at 03:16:32
end
