************************************************************
  HS Scan of (1) Internal mercury lamp
************************************************************
Integration time is 0.2294 seconds per sample
dh100717Tamanrasset 22.79-5.529 3.409182pr865
************************************************************
Dead Time -------------------------  2.8E-08 
Number of Cycles Used -------------  4 
Starting Wavelength (Angstroms) ---  2950 
Final Wavelength (Angstoms) -------  2984 
Wavelength Increment (Angstroms) --  .25 
Filter Wheel #1 Position ---------- (1) Ground quartz diffuser (ND=2.32)
Filter Wheel #2 Position ---------- (1) Neutral Density 0.494



************************************************************
HS scan start time = 03:10:18
Dark Count =  6.4 


Time (GMT)  Wavelength (Ang)  Step Number  Raw Counts  Counts/Second

  190.66        2950.00           1233          21.00        63.64
  190.72        2950.25           1236          21.00        63.64
  190.75        2950.50           1239          18.00        50.57
  190.77        2950.75           1242          19.00        54.93
  190.80        2951.00           1246          18.00        50.57
  190.83        2951.25           1249          16.00        41.85
  190.86        2951.50           1252          18.00        50.57
  190.88        2951.75           1256          20.00        59.29
  190.91        2952.00           1259          20.00        59.29
  190.94        2952.25           1262          21.00        63.64
  190.97        2952.50           1266          16.00        41.85
  190.99        2952.75           1269          20.00        59.29
  191.02        2953.00           1272          18.00        50.57
  191.05        2953.25           1276          22.00        68.00
  191.07        2953.50           1279          18.00        50.57
  191.10        2953.75           1282          17.00        46.21
  191.13        2954.00           1286          20.00        59.29
  191.16        2954.25           1289          22.00        68.00
  191.18        2954.50           1292          21.00        63.64
  191.21        2954.75           1295          18.00        50.57
  191.24        2955.00           1299          19.00        54.93
  191.27        2955.25           1302          23.00        72.36
  191.29        2955.50           1305          22.00        68.00
  191.32        2955.75           1309          22.00        68.00
  191.35        2956.00           1312          15.00        37.49
  191.38        2956.25           1315          27.00        89.80
  191.40        2956.50           1319          17.00        46.21
  191.43        2956.75           1322          19.00        54.93
  191.46        2957.00           1325          19.00        54.93
  191.48        2957.25           1329          17.00        46.21
  191.51        2957.50           1332          22.00        68.00
  191.54        2957.75           1335          21.00        63.64
  191.57        2958.00           1339          21.00        63.64
  191.59        2958.25           1342          19.00        54.93
  191.62        2958.50           1345          19.00        54.93
  191.65        2958.75           1348          22.00        68.00
  191.68        2959.00           1352          17.00        46.21
  191.70        2959.25           1355          20.00        59.29
  191.73        2959.50           1358          20.00        59.29
  191.76        2959.75           1362          21.00        63.64
  191.79        2960.00           1365          29.00        98.52
  191.81        2960.25           1368          30.00       102.88
  191.84        2960.50           1372          39.00       142.11
  191.87        2960.75           1375          53.00       203.14
  191.89        2961.00           1378         178.00       748.05
  191.92        2961.25           1382         817.00      3533.92
  191.95        2961.50           1385        1897.00      8243.40
  191.98        2961.75           1388        3729.00     16234.93
  192.00        2962.00           1392        7361.00     32088.98
  192.03        2962.25           1395       10227.00     44609.30
  192.06        2962.50           1398       13393.00     58450.42
  192.09        2962.75           1402       17443.00     76171.88
  192.11        2963.00           1405       20730.00     90567.66
  192.14        2963.25           1408       23813.00    104080.60
  192.17        2963.50           1412       27681.00    121048.60
  192.20        2963.75           1415       30954.00    135419.20
  192.22        2964.00           1418       34252.00    149911.30
  192.25        2964.25           1422       38588.00    168982.50
  192.28        2964.50           1425       41445.00    181559.70
  192.31        2964.75           1428       44986.00    197160.40
  192.33        2965.00           1431       48361.00    212042.50
  192.36        2965.25           1435       52523.00    230412.00
  192.39        2965.50           1438       55580.00    243916.50
  192.42        2965.75           1441       58799.00    258147.80
  192.44        2966.00           1445       62789.00    275803.50
  192.47        2966.25           1448       65331.00    287061.00
  192.50        2966.50           1451       67045.00    294655.50
  192.53        2966.75           1455       68359.00    300480.00
  192.55        2967.00           1458       68903.00    302891.90
  192.58        2967.25           1461       68874.00    302763.30
  192.61        2967.50           1465       68737.00    302155.90
  192.64        2967.75           1468       67749.00    297775.90
  192.66        2968.00           1471       65941.00    289763.50
  192.69        2968.25           1475       62936.00    276454.30
  192.72        2968.50           1478       59945.00    263217.00
  192.75        2968.75           1481       56605.00    248446.90
  192.78        2969.00           1485       52221.00    229078.50
  192.80        2969.25           1488       48920.00    214508.60
  192.83        2969.50           1491       45733.00    200453.20
  192.86        2969.75           1495       41270.00    180789.10
  192.89        2970.00           1498       38203.00    167288.30
  192.91        2970.25           1501       34809.00    152360.00
  192.94        2970.50           1505       30671.00    134176.20
  192.97        2970.75           1508       27349.00    119591.60
  192.99        2971.00           1511       23981.00    104817.20
  193.02        2971.25           1515       19740.00     86230.62
  193.05        2971.50           1518       16544.00     72236.63
  193.08        2971.75           1521       13685.00     59727.53
  193.10        2972.00           1525        9675.00     42197.17
  193.13        2972.25           1528        6541.00     28508.36
  193.16        2972.50           1531        3967.00     17273.39
  193.19        2972.75           1535        1523.00      6612.38
  193.21        2973.00           1538         534.00      2300.06
  193.24        2973.25           1541         148.00       617.27
  193.27        2973.50           1545          52.00       198.78
  193.30        2973.75           1548          41.00       150.83
  193.32        2974.00           1551          36.00       129.03
  193.35        2974.25           1555          29.00        98.52
  193.38        2974.50           1558          30.00       102.88
  193.41        2974.75           1561          23.00        72.36
  193.43        2975.00           1565          30.00       102.88
  193.46        2975.25           1568          24.00        76.72
  193.49        2975.50           1571          22.00        68.00
  193.52        2975.75           1575          24.00        76.72
  193.54        2976.00           1578          23.00        72.36
  193.57        2976.25           1581          30.00       102.88
  193.60        2976.50           1585          24.00        76.72
  193.62        2976.75           1588          22.00        68.00
  193.65        2977.00           1591          25.00        81.08
  193.68        2977.25           1595          23.00        72.36
  193.71        2977.50           1598          24.00        76.72
  193.73        2977.75           1601          22.00        68.00
  193.76        2978.00           1605          22.00        68.00
  193.79        2978.25           1608          23.00        72.36
  193.82        2978.50           1611          21.00        63.64
  193.84        2978.75           1615          24.00        76.72
  193.87        2979.00           1618          20.00        59.29
  193.90        2979.25           1621          24.00        76.72
  193.92        2979.50           1625          23.00        72.36
  193.95        2979.75           1628          25.00        81.08
  193.98        2980.00           1631          19.00        54.93
  194.01        2980.25           1635          22.00        68.00
  194.03        2980.50           1638          22.00        68.00
  194.06        2980.75           1641          17.00        46.21
  194.09        2981.00           1645          27.00        89.80
  194.12        2981.25           1648          23.00        72.36
  194.14        2981.50           1651          20.00        59.29
  194.17        2981.75           1655          22.00        68.00
  194.20        2982.00           1658          24.00        76.72
  194.23        2982.25           1661          20.00        59.29
  194.25        2982.50           1665          22.00        68.00
  194.28        2982.75           1668          22.00        68.00
  194.31        2983.00           1671          21.00        63.64
  194.34        2983.25           1675          22.00        68.00
  194.36        2983.50           1678          21.00        63.64
  194.39        2983.75           1681          23.00        72.36
  194.42        2984.00           1685          17.00        46.21
HS scan finished at 03:14:36
end
