************************************************************
  HS Scan of (1) Internal mercury lamp
************************************************************
Integration time is 0.2294 seconds per sample
dh090717Tamanrasset 22.79-5.529 3.373494pr865
************************************************************
Dead Time -------------------------  2.8E-08 
Number of Cycles Used -------------  4 
Starting Wavelength (Angstroms) ---  2950 
Final Wavelength (Angstoms) -------  2984 
Wavelength Increment (Angstroms) --  .25 
Filter Wheel #1 Position ---------- (1) Ground quartz diffuser (ND=2.32)
Filter Wheel #2 Position ---------- (1) Neutral Density 0.494



************************************************************
HS scan start time = 03:09:19
Dark Count =  6 


Time (GMT)  Wavelength (Ang)  Step Number  Raw Counts  Counts/Second

  189.67        2950.00           1233          21.00        65.39
  189.74        2950.25           1236          18.00        52.31
  189.76        2950.50           1239          21.00        65.39
  189.79        2950.75           1242          18.00        52.31
  189.82        2951.00           1246          16.00        43.59
  189.84        2951.25           1249          17.00        47.95
  189.87        2951.50           1252          19.00        56.67
  189.90        2951.75           1256          17.00        47.95
  189.93        2952.00           1259          21.00        65.39
  189.95        2952.25           1262          20.00        61.03
  189.98        2952.50           1266          20.00        61.03
  190.01        2952.75           1269          19.00        56.67
  190.04        2953.00           1272          21.00        65.39
  190.06        2953.25           1276          19.00        56.67
  190.09        2953.50           1279          21.00        65.39
  190.12        2953.75           1282          22.00        69.75
  190.15        2954.00           1286          19.00        56.67
  190.17        2954.25           1289          24.00        78.47
  190.20        2954.50           1292          18.00        52.31
  190.23        2954.75           1295          18.00        52.31
  190.26        2955.00           1299          18.00        52.31
  190.28        2955.25           1302          17.00        47.95
  190.31        2955.50           1305          18.00        52.31
  190.34        2955.75           1309          17.00        47.95
  190.36        2956.00           1312          19.00        56.67
  190.39        2956.25           1315          19.00        56.67
  190.42        2956.50           1319          18.00        52.31
  190.45        2956.75           1322          18.00        52.31
  190.47        2957.00           1325          22.00        69.75
  190.50        2957.25           1329          20.00        61.03
  190.53        2957.50           1332          16.00        43.59
  190.55        2957.75           1335          18.00        52.31
  190.58        2958.00           1339          18.00        52.31
  190.61        2958.25           1342          18.00        52.31
  190.64        2958.50           1345          22.00        69.75
  190.66        2958.75           1348          22.00        69.75
  190.69        2959.00           1352          22.00        69.75
  190.72        2959.25           1355          21.00        65.39
  190.75        2959.50           1358          24.00        78.47
  190.77        2959.75           1362          22.00        69.75
  190.80        2960.00           1365          28.00        95.90
  190.83        2960.25           1368          31.00       108.98
  190.86        2960.50           1372          36.00       130.78
  190.88        2960.75           1375          47.00       178.73
  190.91        2961.00           1378         150.00       627.74
  190.94        2961.25           1382         725.00      3134.54
  190.96        2961.50           1385        1709.00      7425.26
  190.99        2961.75           1388        3501.00     15241.90
  191.02        2962.00           1392        6780.00     29553.65
  191.05        2962.25           1395        9753.00     42539.74
  191.07        2962.50           1398       13010.00     56777.20
  191.10        2962.75           1402       17127.00     74790.28
  191.13        2963.00           1405       20142.00     87993.34
  191.16        2963.25           1408       23398.00    102262.80
  191.18        2963.50           1412       27463.00    120093.70
  191.21        2963.75           1415       30522.00    133523.60
  191.24        2964.00           1418       33794.00    147899.80
  191.27        2964.25           1422       37918.00    166036.10
  191.29        2964.50           1425       40977.00    179500.60
  191.32        2964.75           1428       44094.00    193231.00
  191.35        2965.00           1431       47415.00    207871.60
  191.38        2965.25           1435       51688.00    226726.90
  191.40        2965.50           1438       54674.00    239914.90
  191.43        2965.75           1441       57922.00    254271.20
  191.46        2966.00           1445       62072.00    272631.30
  191.49        2966.25           1448       64417.00    283014.20
  191.51        2966.50           1451       66407.00    291830.00
  191.54        2966.75           1455       67846.00    298207.60
  191.57        2967.00           1458       68512.00    301160.10
  191.60        2967.25           1461       68485.00    301040.40
  191.62        2967.50           1465       68072.00    299209.50
  191.65        2967.75           1468       67348.00    296000.30
  191.68        2968.00           1471       66051.00    290252.60
  191.71        2968.25           1475       63078.00    277084.80
  191.73        2968.50           1478       59900.00    263019.70
  191.76        2968.75           1481       57197.00    251065.70
  191.79        2969.00           1485       52267.00    229283.30
  191.82        2969.25           1488       48901.00    214426.50
  191.84        2969.50           1491       45840.00    200926.70
  191.87        2969.75           1495       41327.00    181041.80
  191.90        2970.00           1498       38184.00    167206.50
  191.93        2970.25           1501       35157.00    153891.90
  191.95        2970.50           1505       30617.00    133940.80
  191.98        2970.75           1508       27673.00    121015.30
  192.01        2971.00           1511       24603.00    107546.60
  192.04        2971.25           1515       20319.00     88768.75
  192.06        2971.50           1518       17079.00     74580.16
  192.09        2971.75           1521       14088.00     61492.01
  192.12        2972.00           1525        9941.00     43361.25
  192.15        2972.25           1528        7141.00     31130.00
  192.17        2972.50           1531        4377.00     19064.23
  192.20        2972.75           1535        1671.00      7259.54
  192.23        2973.00           1538         604.00      2606.99
  192.26        2973.25           1541         168.00       706.20
  192.28        2973.50           1545          55.00       213.60
  192.31        2973.75           1548          40.00       148.21
  192.34        2974.00           1551          41.00       152.57
  192.37        2974.25           1555          32.00       113.34
  192.39        2974.50           1558          30.00       104.62
  192.42        2974.75           1561          28.00        95.90
  192.45        2975.00           1565          25.00        82.82
  192.48        2975.25           1568          25.00        82.82
  192.50        2975.50           1571          27.00        91.54
  192.53        2975.75           1575          26.00        87.18
  192.56        2976.00           1578          24.00        78.47
  192.58        2976.25           1581          22.00        69.75
  192.61        2976.50           1585          23.00        74.11
  192.64        2976.75           1588          20.00        61.03
  192.67        2977.00           1591          26.00        87.18
  192.69        2977.25           1595          20.00        61.03
  192.72        2977.50           1598          24.00        78.47
  192.75        2977.75           1601          21.00        65.39
  192.78        2978.00           1605          23.00        74.11
  192.80        2978.25           1608          24.00        78.47
  192.83        2978.50           1611          26.00        87.18
  192.86        2978.75           1615          22.00        69.75
  192.89        2979.00           1618          24.00        78.47
  192.91        2979.25           1621          21.00        65.39
  192.94        2979.50           1625          20.00        61.03
  192.97        2979.75           1628          20.00        61.03
  192.99        2980.00           1631          21.00        65.39
  193.02        2980.25           1635          23.00        74.11
  193.05        2980.50           1638          20.00        61.03
  193.08        2980.75           1641          16.00        43.59
  193.10        2981.00           1645          21.00        65.39
  193.13        2981.25           1648          21.00        65.39
  193.16        2981.50           1651          21.00        65.39
  193.19        2981.75           1655          21.00        65.39
  193.21        2982.00           1658          22.00        69.75
  193.24        2982.25           1661          17.00        47.95
  193.27        2982.50           1665          28.00        95.90
  193.30        2982.75           1668          20.00        61.03
  193.32        2983.00           1671          17.00        47.95
  193.35        2983.25           1675          24.00        78.47
  193.38        2983.50           1678          23.00        74.11
  193.40        2983.75           1681          20.00        61.03
  193.43        2984.00           1685          22.00        69.75
HS scan finished at 03:13:37
end
