************************************************************
  HS Scan of (1) Internal mercury lamp
************************************************************
Integration time is 0.2294 seconds per sample
dh160717Tamanrasset 22.79-5.529 3.256233pr865
************************************************************
Dead Time -------------------------  2.8E-08 
Number of Cycles Used -------------  4 
Starting Wavelength (Angstroms) ---  2950 
Final Wavelength (Angstoms) -------  2984 
Wavelength Increment (Angstroms) --  .25 
Filter Wheel #1 Position ---------- (1) Ground quartz diffuser (ND=2.32)
Filter Wheel #2 Position ---------- (1) Neutral Density 0.494



************************************************************
HS scan start time = 03:12:16
Dark Count =  5.3 


Time (GMT)  Wavelength (Ang)  Step Number  Raw Counts  Counts/Second

  192.62        2950.00           1233          22.00        72.80
  192.68        2950.25           1236          18.00        55.36
  192.71        2950.50           1239          21.00        68.44
  192.74        2950.75           1242          19.00        59.72
  192.76        2951.00           1246          20.00        64.08
  192.79        2951.25           1249          19.00        59.72
  192.82        2951.50           1252          26.00        90.24
  192.84        2951.75           1256          20.00        64.08
  192.87        2952.00           1259          18.00        55.36
  192.90        2952.25           1262          16.00        46.64
  192.93        2952.50           1266          19.00        59.72
  192.95        2952.75           1269          16.00        46.64
  192.98        2953.00           1272          17.00        51.00
  193.01        2953.25           1276          21.00        68.44
  193.04        2953.50           1279          18.00        55.36
  193.06        2953.75           1282          17.00        51.00
  193.09        2954.00           1286          22.00        72.80
  193.12        2954.25           1289          20.00        64.08
  193.14        2954.50           1292          21.00        68.44
  193.17        2954.75           1295          19.00        59.72
  193.20        2955.00           1299          22.00        72.80
  193.23        2955.25           1302          21.00        68.44
  193.25        2955.50           1305          14.00        37.93
  193.28        2955.75           1309          20.00        64.08
  193.31        2956.00           1312          17.00        51.00
  193.33        2956.25           1315          19.00        59.72
  193.36        2956.50           1319          21.00        68.44
  193.39        2956.75           1322          20.00        64.08
  193.42        2957.00           1325          14.00        37.93
  193.44        2957.25           1329          19.00        59.72
  193.47        2957.50           1332          19.00        59.72
  193.50        2957.75           1335          18.00        55.36
  193.52        2958.00           1339          14.00        37.93
  193.55        2958.25           1342          21.00        68.44
  193.58        2958.50           1345          20.00        64.08
  193.61        2958.75           1348          20.00        64.08
  193.63        2959.00           1352          19.00        59.72
  193.66        2959.25           1355          18.00        55.36
  193.69        2959.50           1358          22.00        72.80
  193.71        2959.75           1362          27.00        94.59
  193.74        2960.00           1365          26.00        90.24
  193.77        2960.25           1368          31.00       112.03
  193.80        2960.50           1372          29.00       103.31
  193.82        2960.75           1375          42.00       159.98
  193.85        2961.00           1378         142.00       595.91
  193.88        2961.25           1382         618.00      2671.08
  193.90        2961.50           1385        1546.00      6717.48
  193.93        2961.75           1388        3039.00     13229.40
  193.96        2962.00           1392        6125.00     26696.93
  193.99        2962.25           1395        8848.00     38588.76
  194.01        2962.50           1398       11848.00     51699.46
  194.04        2962.75           1402       15802.00     68994.10
  194.07        2963.00           1405       18831.00     82254.18
  194.10        2963.25           1408       22029.00     96264.78
  194.12        2963.50           1412       25669.00    112225.20
  194.15        2963.75           1415       28651.00    125311.20
  194.18        2964.00           1418       31779.00    139048.10
  194.21        2964.25           1422       35776.00    156616.90
  194.23        2964.50           1425       38716.00    169550.60
  194.26        2964.75           1428       42074.00    184334.80
  194.29        2965.00           1431       45222.00    198205.50
  194.32        2965.25           1435       49235.00    215903.30
  194.34        2965.50           1438       52133.00    228694.70
  194.37        2965.75           1441       55283.00    242608.90
  194.40        2966.00           1445       59269.00    260231.50
  194.42        2966.25           1448       61796.00    271412.70
  194.45        2966.50           1451       63480.00    278867.80
  194.48        2966.75           1455       65253.00    286720.30
  194.51        2967.00           1458       65681.00    288616.40
  194.53        2967.25           1461       65693.00    288669.60
  194.56        2967.50           1465       65653.00    288492.40
  194.59        2967.75           1468       64670.00    284137.80
  194.62        2968.00           1471       63225.00    277738.70
  194.64        2968.25           1475       60081.00    263823.60
  194.67        2968.50           1478       57391.00    251926.50
  194.70        2968.75           1481       54474.00    239034.40
  194.73        2969.00           1485       50145.00    219918.90
  194.75        2969.25           1488       47078.00    206388.50
  194.78        2969.50           1491       43712.00    191550.80
  194.81        2969.75           1495       39692.00    173846.40
  194.84        2970.00           1498       36735.00    160834.70
  194.86        2970.25           1501       33377.00    146070.00
  194.89        2970.50           1505       29368.00    128459.00
  194.92        2970.75           1508       26283.00    114918.90
  194.95        2971.00           1511       23112.00    101012.00
  194.97        2971.25           1515       18934.00     82705.25
  195.00        2971.50           1518       16138.00     70464.53
  195.03        2971.75           1521       13318.00     58127.23
  195.05        2972.00           1525        9299.00     40559.11
  195.08        2972.25           1528        6413.00     27954.31
  195.11        2972.50           1531        3941.00     17164.74
  195.14        2972.75           1535        1539.00      6686.95
  195.16        2973.00           1538         593.00      2562.08
  195.19        2973.25           1541         158.00       665.66
  195.22        2973.50           1545          50.00       194.86
  195.25        2973.75           1548          36.00       133.83
  195.27        2974.00           1551          31.00       112.03
  195.30        2974.25           1555          26.00        90.24
  195.33        2974.50           1558          27.00        94.59
  195.35        2974.75           1561          22.00        72.80
  195.38        2975.00           1565          25.00        85.88
  195.41        2975.25           1568          26.00        90.24
  195.44        2975.50           1571          23.00        77.16
  195.46        2975.75           1575          21.00        68.44
  195.49        2976.00           1578          22.00        72.80
  195.52        2976.25           1581          30.00       107.67
  195.54        2976.50           1585          22.00        72.80
  195.57        2976.75           1588          22.00        72.80
  195.60        2977.00           1591          22.00        72.80
  195.63        2977.25           1595          21.00        68.44
  195.65        2977.50           1598          20.00        64.08
  195.68        2977.75           1601          20.00        64.08
  195.71        2978.00           1605          19.00        59.72
  195.73        2978.25           1608          22.00        72.80
  195.76        2978.50           1611          20.00        64.08
  195.79        2978.75           1615          18.00        55.36
  195.82        2979.00           1618          22.00        72.80
  195.84        2979.25           1621          21.00        68.44
  195.87        2979.50           1625          20.00        64.08
  195.90        2979.75           1628          21.00        68.44
  195.93        2980.00           1631          20.00        64.08
  195.95        2980.25           1635          18.00        55.36
  195.98        2980.50           1638          20.00        64.08
  196.01        2980.75           1641          19.00        59.72
  196.03        2981.00           1645          22.00        72.80
  196.06        2981.25           1648          20.00        64.08
  196.09        2981.50           1651          21.00        68.44
  196.12        2981.75           1655          21.00        68.44
  196.14        2982.00           1658          20.00        64.08
  196.17        2982.25           1661          20.00        64.08
  196.20        2982.50           1665          19.00        59.72
  196.22        2982.75           1668          19.00        59.72
  196.25        2983.00           1671          19.00        59.72
  196.28        2983.25           1675          22.00        72.80
  196.31        2983.50           1678          22.00        72.80
  196.33        2983.75           1681          19.00        59.72
  196.36        2984.00           1685          18.00        55.36
HS scan finished at 03:16:33
end
