************************************************************
  HS Scan of (1) Internal mercury lamp
************************************************************
Integration time is 0.2294 seconds per sample
dh110717Tamanrasset 22.79-5.529 3.404084pr865
************************************************************
Dead Time -------------------------  2.8E-08 
Number of Cycles Used -------------  4 
Starting Wavelength (Angstroms) ---  2950 
Final Wavelength (Angstoms) -------  2984 
Wavelength Increment (Angstroms) --  .25 
Filter Wheel #1 Position ---------- (1) Ground quartz diffuser (ND=2.32)
Filter Wheel #2 Position ---------- (1) Neutral Density 0.494



************************************************************
HS scan start time = 03:10:16
Dark Count =  5.4 


Time (GMT)  Wavelength (Ang)  Step Number  Raw Counts  Counts/Second

  190.63        2950.00           1233          14.00        37.49
  190.70        2950.25           1236          21.00        68.00
  190.72        2950.50           1239          18.00        54.93
  190.75        2950.75           1242          18.00        54.93
  190.78        2951.00           1246          25.00        85.44
  190.81        2951.25           1249          21.00        68.00
  190.83        2951.50           1252          20.00        63.64
  190.86        2951.75           1256          18.00        54.93
  190.89        2952.00           1259          16.00        46.21
  190.91        2952.25           1262          22.00        72.36
  190.94        2952.50           1266          23.00        76.72
  190.97        2952.75           1269          18.00        54.93
  191.00        2953.00           1272          22.00        72.36
  191.02        2953.25           1276          19.00        59.29
  191.05        2953.50           1279          19.00        59.29
  191.08        2953.75           1282          23.00        76.72
  191.11        2954.00           1286          20.00        63.64
  191.13        2954.25           1289          18.00        54.93
  191.16        2954.50           1292          16.00        46.21
  191.19        2954.75           1295          17.00        50.57
  191.21        2955.00           1299          20.00        63.64
  191.24        2955.25           1302          26.00        89.80
  191.27        2955.50           1305          20.00        63.64
  191.30        2955.75           1309          20.00        63.64
  191.32        2956.00           1312          20.00        63.64
  191.35        2956.25           1315          22.00        72.36
  191.38        2956.50           1319          20.00        63.64
  191.41        2956.75           1322          16.00        46.21
  191.43        2957.00           1325          19.00        59.29
  191.46        2957.25           1329          21.00        68.00
  191.49        2957.50           1332          20.00        63.64
  191.51        2957.75           1335          18.00        54.93
  191.54        2958.00           1339          21.00        68.00
  191.57        2958.25           1342          21.00        68.00
  191.60        2958.50           1345          21.00        68.00
  191.62        2958.75           1348          18.00        54.93
  191.65        2959.00           1352          18.00        54.93
  191.68        2959.25           1355          22.00        72.36
  191.71        2959.50           1358          19.00        59.29
  191.73        2959.75           1362          24.00        81.08
  191.76        2960.00           1365          26.00        89.80
  191.79        2960.25           1368          25.00        85.44
  191.82        2960.50           1372          38.00       142.11
  191.84        2960.75           1375          55.00       216.22
  191.87        2961.00           1378         194.00       822.16
  191.90        2961.25           1382         850.00      3682.16
  191.92        2961.50           1385        1903.00      8273.93
  191.95        2961.75           1388        3586.00     15615.37
  191.98        2962.00           1392        6959.00     30337.88
  192.01        2962.25           1395        9922.00     43280.84
  192.03        2962.50           1398       13021.00     56827.92
  192.06        2962.75           1402       17261.00     75379.51
  192.09        2963.00           1405       20279.00     88596.13
  192.12        2963.25           1408       23512.00    102765.20
  192.14        2963.50           1412       27642.00    120881.90
  192.17        2963.75           1415       30626.00    133982.90
  192.20        2964.00           1418       33953.00    148601.30
  192.23        2964.25           1422       38140.00    167015.50
  192.25        2964.50           1425       41180.00    180397.10
  192.28        2964.75           1428       44215.00    193766.90
  192.31        2965.00           1431       47590.00    208646.10
  192.34        2965.25           1435       51861.00    227493.30
  192.36        2965.50           1438       55058.00    241614.20
  192.39        2965.75           1441       58235.00    255658.00
  192.42        2966.00           1445       62159.00    273019.00
  192.45        2966.25           1448       64517.00    283459.70
  192.47        2966.50           1451       66716.00    293202.00
  192.50        2966.75           1455       67943.00    298640.30
  192.53        2967.00           1458       68268.00    300081.00
  192.56        2967.25           1461       68595.00    301530.70
  192.58        2967.50           1465       67946.00    298653.50
  192.61        2967.75           1468       67193.00    295316.00
  192.64        2968.00           1471       65756.00    288948.20
  192.67        2968.25           1475       62343.00    273833.50
  192.69        2968.50           1478       59602.00    261704.10
  192.72        2968.75           1481       56450.00    247766.10
  192.75        2969.00           1485       52121.00    228641.30
  192.78        2969.25           1488       49107.00    215338.10
  192.80        2969.50           1491       45822.00    200850.00
  192.83        2969.75           1495       41394.00    181339.50
  192.86        2970.00           1498       37967.00    166254.30
  192.89        2970.25           1501       34770.00    152193.00
  192.91        2970.50           1505       30274.00    132437.00
  192.94        2970.75           1508       27243.00    119130.80
  192.97        2971.00           1511       24132.00    105483.70
  193.00        2971.25           1515       19867.00     86791.31
  193.02        2971.50           1518       16790.00     73317.75
  193.05        2971.75           1521       13816.00     60304.88
  193.08        2972.00           1525        9482.00     41358.24
  193.11        2972.25           1528        6690.00     29163.30
  193.13        2972.50           1531        4062.00     17692.29
  193.16        2972.75           1535        1508.00      6551.33
  193.19        2973.00           1538         517.00      2230.30
  193.22        2973.25           1541         160.00       673.94
  193.24        2973.50           1545          59.00       233.65
  193.27        2973.75           1548          39.00       146.47
  193.30        2974.00           1551          40.00       150.83
  193.33        2974.25           1555          30.00       107.24
  193.35        2974.50           1558          30.00       107.24
  193.38        2974.75           1561          25.00        85.44
  193.41        2975.00           1565          24.00        81.08
  193.43        2975.25           1568          23.00        76.72
  193.46        2975.50           1571          27.00        94.16
  193.49        2975.75           1575          24.00        81.08
  193.52        2976.00           1578          22.00        72.36
  193.54        2976.25           1581          24.00        81.08
  193.57        2976.50           1585          25.00        85.44
  193.60        2976.75           1588          28.00        98.52
  193.63        2977.00           1591          26.00        89.80
  193.65        2977.25           1595          30.00       107.24
  193.68        2977.50           1598          22.00        72.36
  193.71        2977.75           1601          23.00        76.72
  193.73        2978.00           1605          22.00        72.36
  193.76        2978.25           1608          23.00        76.72
  193.79        2978.50           1611          22.00        72.36
  193.82        2978.75           1615          22.00        72.36
  193.84        2979.00           1618          21.00        68.00
  193.87        2979.25           1621          20.00        63.64
  193.90        2979.50           1625          25.00        85.44
  193.93        2979.75           1628          20.00        63.64
  193.95        2980.00           1631          25.00        85.44
  193.98        2980.25           1635          20.00        63.64
  194.01        2980.50           1638          25.00        85.44
  194.03        2980.75           1641          24.00        81.08
  194.06        2981.00           1645          23.00        76.72
  194.09        2981.25           1648          23.00        76.72
  194.12        2981.50           1651          20.00        63.64
  194.14        2981.75           1655          20.00        63.64
  194.17        2982.00           1658          24.00        81.08
  194.20        2982.25           1661          21.00        68.00
  194.23        2982.50           1665          25.00        85.44
  194.25        2982.75           1668          20.00        63.64
  194.28        2983.00           1671          20.00        63.64
  194.31        2983.25           1675          24.00        81.08
  194.34        2983.50           1678          21.00        68.00
  194.36        2983.75           1681          21.00        68.00
  194.39        2984.00           1685          27.00        94.16
HS scan finished at 03:14:35
end
