************************************************************
  HS Scan of (1) Internal mercury lamp
************************************************************
Integration time is 0.2294 seconds per sample
dh120717Tamanrasset 22.79-5.529 3.322511pr865
************************************************************
Dead Time -------------------------  2.8E-08 
Number of Cycles Used -------------  4 
Starting Wavelength (Angstroms) ---  2950 
Final Wavelength (Angstoms) -------  2984 
Wavelength Increment (Angstroms) --  .25 
Filter Wheel #1 Position ---------- (1) Ground quartz diffuser (ND=2.32)
Filter Wheel #2 Position ---------- (1) Neutral Density 0.494



************************************************************
HS scan start time = 03:11:17
Dark Count =  5.3 


Time (GMT)  Wavelength (Ang)  Step Number  Raw Counts  Counts/Second

  191.63        2950.00           1233          21.00        68.44
  191.70        2950.25           1236          20.00        64.08
  191.73        2950.50           1239          20.00        64.08
  191.75        2950.75           1242          21.00        68.44
  191.78        2951.00           1246          18.00        55.36
  191.81        2951.25           1249          18.00        55.36
  191.84        2951.50           1252          18.00        55.36
  191.86        2951.75           1256          22.00        72.80
  191.89        2952.00           1259          21.00        68.44
  191.92        2952.25           1262          20.00        64.08
  191.94        2952.50           1266          22.00        72.80
  191.97        2952.75           1269          23.00        77.16
  192.00        2953.00           1272          24.00        81.52
  192.03        2953.25           1276          18.00        55.36
  192.05        2953.50           1279          23.00        77.16
  192.08        2953.75           1282          17.00        51.00
  192.11        2954.00           1286          22.00        72.80
  192.14        2954.25           1289          22.00        72.80
  192.16        2954.50           1292          20.00        64.08
  192.19        2954.75           1295          18.00        55.36
  192.22        2955.00           1299          20.00        64.08
  192.24        2955.25           1302          18.00        55.36
  192.27        2955.50           1305          19.00        59.72
  192.30        2955.75           1309          20.00        64.08
  192.33        2956.00           1312          20.00        64.08
  192.35        2956.25           1315          21.00        68.44
  192.38        2956.50           1319          18.00        55.36
  192.41        2956.75           1322          18.00        55.36
  192.44        2957.00           1325          20.00        64.08
  192.46        2957.25           1329          19.00        59.72
  192.49        2957.50           1332          20.00        64.08
  192.52        2957.75           1335          17.00        51.00
  192.54        2958.00           1339          15.00        42.28
  192.57        2958.25           1342          21.00        68.44
  192.60        2958.50           1345          23.00        77.16
  192.63        2958.75           1348          18.00        55.36
  192.65        2959.00           1352          22.00        72.80
  192.68        2959.25           1355          19.00        59.72
  192.71        2959.50           1358          22.00        72.80
  192.74        2959.75           1362          23.00        77.16
  192.76        2960.00           1365          26.00        90.24
  192.79        2960.25           1368          33.00       120.75
  192.82        2960.50           1372          34.00       125.11
  192.85        2960.75           1375          44.00       168.70
  192.87        2961.00           1378         147.00       617.71
  192.90        2961.25           1382         658.00      2845.48
  192.93        2961.50           1385        1566.00      6804.70
  192.96        2961.75           1388        3128.00     13617.66
  192.98        2962.00           1392        6184.00     26954.51
  193.01        2962.25           1395        9045.00     39449.40
  193.04        2962.50           1398       12114.00     52862.41
  193.07        2962.75           1402       16013.00     69917.48
  193.09        2963.00           1405       19031.00     83130.06
  193.12        2963.25           1408       22198.00     97005.49
  193.15        2963.50           1412       26082.00    114037.00
  193.18        2963.75           1415       29119.00    127365.80
  193.20        2964.00           1418       32317.00    141411.90
  193.23        2964.25           1422       36244.00    158675.10
  193.26        2964.50           1425       39532.00    173142.10
  193.29        2964.75           1428       42447.00    185977.70
  193.31        2965.00           1431       45513.00    199488.30
  193.34        2965.25           1435       49717.00    218030.10
  193.37        2965.50           1438       52802.00    231648.90
  193.39        2965.75           1441       55752.00    244681.50
  193.42        2966.00           1445       60379.00    265142.00
  193.45        2966.25           1448       62876.00    276193.50
  193.48        2966.50           1451       64796.00    284696.00
  193.51        2966.75           1455       66511.00    292294.00
  193.53        2967.00           1458       66831.00    293712.00
  193.56        2967.25           1461       67163.00    295183.40
  193.59        2967.50           1465       67023.00    294562.90
  193.62        2967.75           1468       66000.00    290029.70
  193.64        2968.00           1471       65181.00    286401.30
  193.67        2968.25           1475       62086.00    272696.30
  193.70        2968.50           1478       59042.00    259227.40
  193.73        2968.75           1481       56171.00    246533.40
  193.75        2969.00           1485       51569.00    226204.60
  193.78        2969.25           1488       48566.00    212951.70
  193.81        2969.50           1491       45314.00    198611.00
  193.84        2969.75           1495       40822.00    178821.20
  193.86        2970.00           1498       37514.00    164261.60
  193.89        2970.25           1501       34477.00    150905.30
  193.92        2970.50           1505       30147.00    131879.70
  193.95        2970.75           1508       26881.00    117542.70
  193.97        2971.00           1511       23850.00    104247.60
  194.00        2971.25           1515       19630.00     85753.61
  194.03        2971.50           1518       16619.00     72569.72
  194.05        2971.75           1521       13759.00     60056.01
  194.08        2972.00           1525        9621.00     41966.03
  194.11        2972.25           1528        6653.00     29002.18
  194.14        2972.50           1531        3968.00     17282.56
  194.16        2972.75           1535        1580.00      6865.75
  194.19        2973.00           1538         594.00      2566.44
  194.22        2973.25           1541         168.00       709.26
  194.25        2973.50           1545          53.00       207.93
  194.27        2973.75           1548          43.00       164.34
  194.30        2974.00           1551          39.00       146.91
  194.33        2974.25           1555          32.00       116.39
  194.36        2974.50           1558          25.00        85.88
  194.38        2974.75           1561          27.00        94.59
  194.41        2975.00           1565          25.00        85.88
  194.44        2975.25           1568          30.00       107.67
  194.47        2975.50           1571          20.00        64.08
  194.49        2975.75           1575          24.00        81.52
  194.52        2976.00           1578          25.00        85.88
  194.55        2976.25           1581          23.00        77.16
  194.57        2976.50           1585          30.00       107.67
  194.60        2976.75           1588          23.00        77.16
  194.63        2977.00           1591          24.00        81.52
  194.66        2977.25           1595          22.00        72.80
  194.68        2977.50           1598          20.00        64.08
  194.71        2977.75           1601          24.00        81.52
  194.74        2978.00           1605          18.00        55.36
  194.77        2978.25           1608          22.00        72.80
  194.79        2978.50           1611          24.00        81.52
  194.82        2978.75           1615          19.00        59.72
  194.85        2979.00           1618          21.00        68.44
  194.88        2979.25           1621          20.00        64.08
  194.90        2979.50           1625          23.00        77.16
  194.93        2979.75           1628          19.00        59.72
  194.96        2980.00           1631          23.00        77.16
  194.98        2980.25           1635          23.00        77.16
  195.01        2980.50           1638          26.00        90.24
  195.04        2980.75           1641          22.00        72.80
  195.07        2981.00           1645          17.00        51.00
  195.09        2981.25           1648          21.00        68.44
  195.12        2981.50           1651          21.00        68.44
  195.15        2981.75           1655          16.00        46.64
  195.18        2982.00           1658          24.00        81.52
  195.20        2982.25           1661          23.00        77.16
  195.23        2982.50           1665          18.00        55.36
  195.26        2982.75           1668          16.00        46.64
  195.28        2983.00           1671          21.00        68.44
  195.31        2983.25           1675          18.00        55.36
  195.34        2983.50           1678          22.00        72.80
  195.37        2983.75           1681          19.00        59.72
  195.39        2984.00           1685          23.00        77.16
HS scan finished at 03:15:35
end
