************************************************************
  HS Scan of (1) Internal mercury lamp
************************************************************
Integration time is 0.2294 seconds per sample
dh140717Tamanrasset 22.79-5.529 3.26643pr865
************************************************************
Dead Time -------------------------  2.8E-08 
Number of Cycles Used -------------  4 
Starting Wavelength (Angstroms) ---  2950 
Final Wavelength (Angstoms) -------  2984 
Wavelength Increment (Angstroms) --  .25 
Filter Wheel #1 Position ---------- (1) Ground quartz diffuser (ND=2.32)
Filter Wheel #2 Position ---------- (1) Neutral Density 0.494



************************************************************
HS scan start time = 03:11:29
Dark Count =  4.9 


Time (GMT)  Wavelength (Ang)  Step Number  Raw Counts  Counts/Second

  191.84        2950.00           1233          20.00        65.82
  191.91        2950.25           1236          20.00        65.82
  191.93        2950.50           1239          21.00        70.18
  191.96        2950.75           1242          19.00        61.46
  191.99        2951.00           1246          23.00        78.90
  192.01        2951.25           1249          18.00        57.11
  192.04        2951.50           1252          18.00        57.11
  192.07        2951.75           1256          24.00        83.26
  192.10        2952.00           1259          20.00        65.82
  192.12        2952.25           1262          19.00        61.46
  192.15        2952.50           1266          19.00        61.46
  192.18        2952.75           1269          17.00        52.75
  192.20        2953.00           1272          21.00        70.18
  192.23        2953.25           1276          20.00        65.82
  192.26        2953.50           1279          23.00        78.90
  192.29        2953.75           1282          16.00        48.39
  192.31        2954.00           1286          20.00        65.82
  192.34        2954.25           1289          19.00        61.46
  192.37        2954.50           1292          16.00        48.39
  192.39        2954.75           1295          18.00        57.11
  192.42        2955.00           1299          23.00        78.90
  192.45        2955.25           1302          18.00        57.11
  192.48        2955.50           1305          19.00        61.46
  192.50        2955.75           1309          16.00        48.39
  192.53        2956.00           1312          19.00        61.46
  192.56        2956.25           1315          15.00        44.03
  192.58        2956.50           1319          20.00        65.82
  192.61        2956.75           1322          20.00        65.82
  192.64        2957.00           1325          23.00        78.90
  192.67        2957.25           1329          20.00        65.82
  192.69        2957.50           1332          18.00        57.11
  192.72        2957.75           1335          22.00        74.54
  192.75        2958.00           1339          23.00        78.90
  192.77        2958.25           1342          18.00        57.11
  192.80        2958.50           1345          20.00        65.82
  192.83        2958.75           1348          16.00        48.39
  192.86        2959.00           1352          18.00        57.11
  192.88        2959.25           1355          26.00        91.98
  192.91        2959.50           1358          20.00        65.82
  192.94        2959.75           1362          29.00       105.06
  192.96        2960.00           1365          26.00        91.98
  192.99        2960.25           1368          26.00        91.98
  193.02        2960.50           1372          33.00       122.49
  193.05        2960.75           1375          46.00       179.16
  193.07        2961.00           1378          95.00       392.77
  193.10        2961.25           1382         524.00      2263.00
  193.13        2961.50           1385        1346.00      5847.08
  193.16        2961.75           1388        2717.00     11826.50
  193.18        2962.00           1392        5625.00     24515.95
  193.21        2962.25           1395        8268.00     36056.87
  193.24        2962.50           1398       11327.00     49423.63
  193.26        2962.75           1402       14960.00     65311.57
  193.29        2963.00           1405       18077.00     78954.21
  193.32        2963.25           1408       21230.00     92765.05
  193.35        2963.50           1412       25205.00    110191.70
  193.37        2963.75           1415       28028.00    122578.20
  193.40        2964.00           1418       31137.00    136229.60
  193.43        2964.25           1422       35159.00    153905.50
  193.46        2964.50           1425       38336.00    167880.20
  193.48        2964.75           1428       41329.00    181055.50
  193.51        2965.00           1431       44320.00    194231.80
  193.54        2965.25           1435       48558.00    212918.20
  193.57        2965.50           1438       51959.00    227928.20
  193.59        2965.75           1441       54675.00    239924.20
  193.62        2966.00           1445       58936.00    258760.40
  193.65        2966.25           1448       61428.00    269785.80
  193.68        2966.50           1451       63384.00    278444.50
  193.70        2966.75           1455       65406.00    287399.80
  193.73        2967.00           1458       66184.00    290846.80
  193.76        2967.25           1461       66670.00    293000.30
  193.79        2967.50           1465       66351.00    291586.80
  193.81        2967.75           1468       65798.00    289136.50
  193.84        2968.00           1471       64637.00    283993.50
  193.87        2968.25           1475       62070.00    272627.30
  193.89        2968.50           1478       59517.00    261330.30
  193.92        2968.75           1481       56306.00    247131.80
  193.95        2969.00           1485       52527.00    230436.30
  193.98        2969.25           1488       49011.00    214916.70
  194.00        2969.50           1491       45444.00    199185.90
  194.03        2969.75           1495       41178.00    180390.50
  194.06        2970.00           1498       38245.00    167479.70
  194.09        2970.25           1501       35106.00    153672.50
  194.11        2970.50           1505       30892.00    135153.50
  194.14        2970.75           1508       27774.00    121463.40
  194.17        2971.00           1511       24677.00    107875.90
  194.20        2971.25           1515       20676.00     90337.62
  194.22        2971.50           1518       17229.00     75241.60
  194.25        2971.75           1521       14428.00     62984.13
  194.28        2972.00           1525       10159.00     44318.69
  194.31        2972.25           1528        7299.00     31824.77
  194.33        2972.50           1531        4553.00     19837.08
  194.36        2972.75           1535        1896.00      8245.58
  194.39        2973.00           1538         709.00      3069.58
  194.41        2973.25           1541         211.00       898.45
  194.44        2973.50           1545          58.00       231.47
  194.47        2973.75           1548          35.00       131.21
  194.50        2974.00           1551          27.00        96.34
  194.52        2974.25           1555          30.00       109.42
  194.55        2974.50           1558          28.00       100.70
  194.58        2974.75           1561          23.00        78.90
  194.60        2975.00           1565          19.00        61.46
  194.63        2975.25           1568          20.00        65.82
  194.66        2975.50           1571          23.00        78.90
  194.69        2975.75           1575          26.00        91.98
  194.71        2976.00           1578          23.00        78.90
  194.74        2976.25           1581          24.00        83.26
  194.77        2976.50           1585          25.00        87.62
  194.80        2976.75           1588          23.00        78.90
  194.82        2977.00           1591          22.00        74.54
  194.85        2977.25           1595          22.00        74.54
  194.88        2977.50           1598          19.00        61.46
  194.90        2977.75           1601          22.00        74.54
  194.93        2978.00           1605          27.00        96.34
  194.96        2978.25           1608          19.00        61.46
  194.99        2978.50           1611          20.00        65.82
  195.01        2978.75           1615          24.00        83.26
  195.04        2979.00           1618          26.00        91.98
  195.07        2979.25           1621          23.00        78.90
  195.09        2979.50           1625          18.00        57.11
  195.12        2979.75           1628          22.00        74.54
  195.15        2980.00           1631          21.00        70.18
  195.18        2980.25           1635          23.00        78.90
  195.20        2980.50           1638          23.00        78.90
  195.23        2980.75           1641          20.00        65.82
  195.26        2981.00           1645          22.00        74.54
  195.28        2981.25           1648          19.00        61.46
  195.31        2981.50           1651          17.00        52.75
  195.34        2981.75           1655          22.00        74.54
  195.37        2982.00           1658          24.00        83.26
  195.39        2982.25           1661          22.00        74.54
  195.42        2982.50           1665          20.00        65.82
  195.45        2982.75           1668          22.00        74.54
  195.47        2983.00           1671          17.00        52.75
  195.50        2983.25           1675          20.00        65.82
  195.53        2983.50           1678          21.00        70.18
  195.56        2983.75           1681          21.00        70.18
  195.58        2984.00           1685          19.00        61.46
HS scan finished at 03:15:46
end
