************************************************************
  HS Scan of (1) Internal mercury lamp
************************************************************
Integration time is 0.2294 seconds per sample
dh130717Tamanrasset 22.79-5.529 3.322511pr865
************************************************************
Dead Time -------------------------  2.8E-08 
Number of Cycles Used -------------  4 
Starting Wavelength (Angstroms) ---  2950 
Final Wavelength (Angstoms) -------  2984 
Wavelength Increment (Angstroms) --  .25 
Filter Wheel #1 Position ---------- (1) Ground quartz diffuser (ND=2.32)
Filter Wheel #2 Position ---------- (1) Neutral Density 0.494



************************************************************
HS scan start time = 03:11:30
Dark Count =  5.1 


Time (GMT)  Wavelength (Ang)  Step Number  Raw Counts  Counts/Second

  191.86        2950.00           1233          14.00        38.80
  191.93        2950.25           1236          19.00        60.59
  191.95        2950.50           1239          15.00        43.16
  191.98        2950.75           1242          20.00        64.95
  192.01        2951.00           1246          21.00        69.31
  192.03        2951.25           1249          21.00        69.31
  192.06        2951.50           1252          22.00        73.67
  192.09        2951.75           1256          25.00        86.75
  192.12        2952.00           1259          14.00        38.80
  192.14        2952.25           1262          18.00        56.23
  192.17        2952.50           1266          22.00        73.67
  192.20        2952.75           1269          22.00        73.67
  192.22        2953.00           1272          23.00        78.03
  192.25        2953.25           1276          20.00        64.95
  192.28        2953.50           1279          19.00        60.59
  192.31        2953.75           1282          16.00        47.52
  192.33        2954.00           1286          19.00        60.59
  192.36        2954.25           1289          17.00        51.87
  192.39        2954.50           1292          19.00        60.59
  192.41        2954.75           1295          19.00        60.59
  192.44        2955.00           1299          20.00        64.95
  192.47        2955.25           1302          21.00        69.31
  192.50        2955.50           1305          16.00        47.52
  192.52        2955.75           1309          20.00        64.95
  192.55        2956.00           1312          20.00        64.95
  192.58        2956.25           1315          20.00        64.95
  192.60        2956.50           1319          22.00        73.67
  192.63        2956.75           1322          24.00        82.39
  192.66        2957.00           1325          21.00        69.31
  192.69        2957.25           1329          23.00        78.03
  192.71        2957.50           1332          19.00        60.59
  192.74        2957.75           1335          16.00        47.52
  192.77        2958.00           1339          22.00        73.67
  192.80        2958.25           1342          18.00        56.23
  192.82        2958.50           1345          20.00        64.95
  192.85        2958.75           1348          18.00        56.23
  192.88        2959.00           1352          21.00        69.31
  192.90        2959.25           1355          20.00        64.95
  192.93        2959.50           1358          25.00        86.75
  192.96        2959.75           1362          22.00        73.67
  192.99        2960.00           1365          25.00        86.75
  193.01        2960.25           1368          27.00        95.47
  193.04        2960.50           1372          34.00       125.98
  193.07        2960.75           1375          58.00       230.60
  193.09        2961.00           1378         183.00       775.52
  193.12        2961.25           1382         854.00      3700.91
  193.15        2961.50           1385        1940.00      8436.61
  193.18        2961.75           1388        3742.00     16297.32
  193.20        2962.00           1392        7171.00     31264.94
  193.23        2962.25           1395       10062.00     43893.94
  193.26        2962.50           1398       13256.00     57856.96
  193.29        2962.75           1402       17156.00     74921.18
  193.31        2963.00           1405       20205.00     88273.28
  193.34        2963.25           1408       23338.00    102003.70
  193.37        2963.50           1412       27163.00    118781.10
  193.40        2963.75           1415       29897.00    130782.80
  193.42        2964.00           1418       33317.00    145807.20
  193.45        2964.25           1422       37420.00    163848.90
  193.48        2964.50           1425       40255.00    176325.70
  193.50        2964.75           1428       43694.00    191472.40
  193.53        2965.00           1431       46802.00    205172.30
  193.56        2965.25           1435       51111.00    224183.60
  193.59        2965.50           1438       53976.00    236835.20
  193.61        2965.75           1441       57137.00    250804.40
  193.64        2966.00           1445       61094.00    268306.70
  193.67        2966.25           1448       63172.00    277505.00
  193.70        2966.50           1451       65162.00    286318.00
  193.72        2966.75           1455       66571.00    292560.70
  193.75        2967.00           1458       66408.00    291838.40
  193.78        2967.25           1461       66567.00    292543.00
  193.81        2967.50           1465       66394.00    291776.40
  193.83        2967.75           1468       65795.00    289122.30
  193.86        2968.00           1471       64491.00    283345.90
  193.89        2968.25           1475       61266.00    269067.90
  193.91        2968.50           1478       58326.00    256061.70
  193.94        2968.75           1481       55354.00    242923.60
  193.97        2969.00           1485       50556.00    221733.80
  194.00        2969.25           1488       47867.00    209869.20
  194.02        2969.50           1491       44515.00    195090.20
  194.05        2969.75           1495       40422.00    177060.90
  194.08        2970.00           1498       37149.00    162656.70
  194.11        2970.25           1501       33952.00    148598.30
  194.13        2970.50           1505       29787.00    130299.70
  194.16        2970.75           1508       26634.00    116459.80
  194.19        2971.00           1511       23668.00    103450.50
  194.22        2971.25           1515       19402.00     84755.83
  194.24        2971.50           1518       16352.00     71401.99
  194.27        2971.75           1521       13558.00     59177.75
  194.30        2972.00           1525        9520.00     41525.59
  194.33        2972.25           1528        6535.00     28487.84
  194.35        2972.50           1531        3991.00     17383.79
  194.38        2972.75           1535        1526.00      6631.14
  194.41        2973.00           1538         515.00      2222.89
  194.44        2973.25           1541         144.00       605.50
  194.46        2973.50           1545          50.00       195.73
  194.49        2973.75           1548          45.00       173.93
  194.52        2974.00           1551          34.00       125.98
  194.54        2974.25           1555          31.00       112.90
  194.57        2974.50           1558          28.00        99.83
  194.60        2974.75           1561          25.00        86.75
  194.63        2975.00           1565          21.00        69.31
  194.65        2975.25           1568          26.00        91.11
  194.68        2975.50           1571          24.00        82.39
  194.71        2975.75           1575          23.00        78.03
  194.73        2976.00           1578          23.00        78.03
  194.76        2976.25           1581          23.00        78.03
  194.79        2976.50           1585          24.00        82.39
  194.82        2976.75           1588          21.00        69.31
  194.84        2977.00           1591          21.00        69.31
  194.87        2977.25           1595          25.00        86.75
  194.90        2977.50           1598          20.00        64.95
  194.92        2977.75           1601          22.00        73.67
  194.95        2978.00           1605          22.00        73.67
  194.98        2978.25           1608          21.00        69.31
  195.01        2978.50           1611          18.00        56.23
  195.03        2978.75           1615          21.00        69.31
  195.06        2979.00           1618          18.00        56.23
  195.09        2979.25           1621          22.00        73.67
  195.11        2979.50           1625          19.00        60.59
  195.14        2979.75           1628          20.00        64.95
  195.17        2980.00           1631          21.00        69.31
  195.20        2980.25           1635          20.00        64.95
  195.22        2980.50           1638          19.00        60.59
  195.25        2980.75           1641          23.00        78.03
  195.28        2981.00           1645          20.00        64.95
  195.30        2981.25           1648          17.00        51.87
  195.33        2981.50           1651          22.00        73.67
  195.36        2981.75           1655          17.00        51.87
  195.39        2982.00           1658          20.00        64.95
  195.41        2982.25           1661          17.00        51.87
  195.44        2982.50           1665          21.00        69.31
  195.47        2982.75           1668          13.00        34.44
  195.49        2983.00           1671          21.00        69.31
  195.52        2983.25           1675          23.00        78.03
  195.55        2983.50           1678          21.00        69.31
  195.58        2983.75           1681          20.00        64.95
  195.60        2984.00           1685          20.00        64.95
HS scan finished at 03:15:47
end
