************************************************************
  HS Scan of (1) Internal mercury lamp
************************************************************
Integration time is 0.2294 seconds per sample
dh180717Tamanrasset 22.79-5.529 3.220544pr865
************************************************************
Dead Time -------------------------  2.8E-08 
Number of Cycles Used -------------  4 
Starting Wavelength (Angstroms) ---  2950 
Final Wavelength (Angstoms) -------  2984 
Wavelength Increment (Angstroms) --  .25 
Filter Wheel #1 Position ---------- (1) Ground quartz diffuser (ND=2.32)
Filter Wheel #2 Position ---------- (1) Neutral Density 0.494



************************************************************
HS scan start time = 03:13:17
Dark Count =  4.4 


Time (GMT)  Wavelength (Ang)  Step Number  Raw Counts  Counts/Second

  193.65        2950.00           1233          17.00        54.93
  193.71        2950.25           1236          21.00        72.36
  193.74        2950.50           1239          17.00        54.93
  193.76        2950.75           1242          19.00        63.64
  193.79        2951.00           1246          18.00        59.29
  193.82        2951.25           1249          22.00        76.72
  193.85        2951.50           1252          17.00        54.93
  193.87        2951.75           1256          18.00        59.29
  193.90        2952.00           1259          17.00        54.93
  193.93        2952.25           1262          17.00        54.93
  193.95        2952.50           1266          19.00        63.64
  193.98        2952.75           1269          16.00        50.57
  194.01        2953.00           1272          19.00        63.64
  194.04        2953.25           1276          18.00        59.29
  194.06        2953.50           1279          22.00        76.72
  194.09        2953.75           1282          15.00        46.21
  194.12        2954.00           1286          21.00        72.36
  194.14        2954.25           1289          22.00        76.72
  194.17        2954.50           1292          18.00        59.29
  194.20        2954.75           1295          17.00        54.93
  194.23        2955.00           1299          18.00        59.29
  194.25        2955.25           1302          20.00        68.00
  194.28        2955.50           1305          20.00        68.00
  194.31        2955.75           1309          21.00        72.36
  194.34        2956.00           1312          17.00        54.93
  194.36        2956.25           1315          16.00        50.57
  194.39        2956.50           1319          20.00        68.00
  194.42        2956.75           1322          17.00        54.93
  194.44        2957.00           1325          19.00        63.64
  194.47        2957.25           1329          21.00        72.36
  194.50        2957.50           1332          18.00        59.29
  194.53        2957.75           1335          15.00        46.21
  194.55        2958.00           1339          20.00        68.00
  194.58        2958.25           1342          16.00        50.57
  194.61        2958.50           1345          23.00        81.08
  194.63        2958.75           1348          19.00        63.64
  194.66        2959.00           1352          19.00        63.64
  194.69        2959.25           1355          20.00        68.00
  194.72        2959.50           1358          21.00        72.36
  194.74        2959.75           1362          21.00        72.36
  194.77        2960.00           1365          25.00        89.80
  194.80        2960.25           1368          32.00       120.31
  194.82        2960.50           1372          40.00       155.19
  194.85        2960.75           1375          42.00       163.91
  194.88        2961.00           1378          98.00       408.03
  194.91        2961.25           1382         536.00      2317.50
  194.93        2961.50           1385        1295.00      5626.87
  194.96        2961.75           1388        2826.00     12304.15
  194.99        2962.00           1392        5725.00     24954.66
  195.01        2962.25           1395        8386.00     36574.49
  195.04        2962.50           1398       11321.00     49399.58
  195.07        2962.75           1402       15022.00     65585.03
  195.10        2963.00           1405       17881.00     78098.24
  195.12        2963.25           1408       20983.00     91684.94
  195.15        2963.50           1412       24895.00    108834.20
  195.18        2963.75           1415       27681.00    121057.40
  195.21        2964.00           1418       30643.00    134062.00
  195.23        2964.25           1422       34525.00    151120.20
  195.26        2964.50           1425       37656.00    164890.30
  195.29        2964.75           1428       40598.00    177838.90
  195.32        2965.00           1431       43542.00    190805.70
  195.34        2965.25           1435       47799.00    209572.30
  195.37        2965.50           1438       50713.00    222429.80
  195.40        2965.75           1441       53841.00    236242.00
  195.43        2966.00           1445       57481.00    252328.40
  195.45        2966.25           1448       60311.00    264845.10
  195.48        2966.50           1451       62314.00    273709.60
  195.51        2966.75           1455       63896.00    280713.90
  195.53        2967.00           1458       64757.00    284527.20
  195.56        2967.25           1461       64886.00    285098.60
  195.59        2967.50           1465       64859.00    284979.00
  195.62        2967.75           1468       64318.00    282582.80
  195.64        2968.00           1471       63462.00    278792.10
  195.67        2968.25           1475       60738.00    266734.50
  195.70        2968.50           1478       58226.00    255622.60
  195.73        2968.75           1481       54925.00    241031.00
  195.75        2969.00           1485       50807.00    222844.80
  195.78        2969.25           1488       47634.00    208844.50
  195.81        2969.50           1491       44176.00    193599.40
  195.84        2969.75           1495       40027.00    175325.00
  195.86        2970.00           1498       37068.00    162303.50
  195.89        2970.25           1501       34333.00    150276.20
  195.92        2970.50           1505       30038.00    131405.00
  195.94        2970.75           1508       27013.00    118125.90
  195.97        2971.00           1511       24025.00    105018.90
  196.00        2971.25           1515       19877.00     86839.49
  196.03        2971.50           1518       16955.00     74044.38
  196.05        2971.75           1521       14132.00     61691.48
  196.08        2972.00           1525        9956.00     43433.78
  196.11        2972.25           1528        7045.00     30717.78
  196.14        2972.50           1531        4603.00     20057.47
  196.16        2972.75           1535        1932.00      8404.77
  196.19        2973.00           1538         722.00      3128.43
  196.22        2973.25           1541         209.00       891.91
  196.25        2973.50           1545          52.00       207.50
  196.27        2973.75           1548          41.00       159.55
  196.30        2974.00           1551          33.00       124.67
  196.33        2974.25           1555          31.00       115.96
  196.35        2974.50           1558          29.00       107.24
  196.38        2974.75           1561          21.00        72.36
  196.41        2975.00           1565          25.00        89.80
  196.44        2975.25           1568          25.00        89.80
  196.46        2975.50           1571          21.00        72.36
  196.49        2975.75           1575          25.00        89.80
  196.52        2976.00           1578          29.00       107.24
  196.54        2976.25           1581          20.00        68.00
  196.57        2976.50           1585          20.00        68.00
  196.60        2976.75           1588          25.00        89.80
  196.63        2977.00           1591          29.00       107.24
  196.65        2977.25           1595          16.00        50.57
  196.68        2977.50           1598          23.00        81.08
  196.71        2977.75           1601          18.00        59.29
  196.73        2978.00           1605          22.00        76.72
  196.76        2978.25           1608          22.00        76.72
  196.79        2978.50           1611          24.00        85.44
  196.82        2978.75           1615          18.00        59.29
  196.84        2979.00           1618          21.00        72.36
  196.87        2979.25           1621          21.00        72.36
  196.90        2979.50           1625          24.00        85.44
  196.92        2979.75           1628          27.00        98.52
  196.95        2980.00           1631          24.00        85.44
  196.98        2980.25           1635          23.00        81.08
  197.01        2980.50           1638          22.00        76.72
  197.03        2980.75           1641          25.00        89.80
  197.06        2981.00           1645          18.00        59.29
  197.09        2981.25           1648          23.00        81.08
  197.12        2981.50           1651          20.00        68.00
  197.14        2981.75           1655          21.00        72.36
  197.17        2982.00           1658          21.00        72.36
  197.20        2982.25           1661          16.00        50.57
  197.22        2982.50           1665          19.00        63.64
  197.25        2982.75           1668          20.00        68.00
  197.28        2983.00           1671          17.00        54.93
  197.31        2983.25           1675          22.00        76.72
  197.33        2983.50           1678          23.00        81.08
  197.36        2983.75           1681          21.00        72.36
  197.39        2984.00           1685          21.00        72.36
HS scan finished at 03:17:35
end
