************************************************************
  HS Scan of (1) Internal mercury lamp
************************************************************
Integration time is 0.2294 seconds per sample
dh260718Tamanrasset 22.79-5.529 4.974364pr865
************************************************************
Dead Time -------------------------  2.8E-08 
Number of Cycles Used -------------  4 
Starting Wavelength (Angstroms) ---  2950 
Final Wavelength (Angstoms) -------  2984 
Wavelength Increment (Angstroms) --  .25 
Filter Wheel #1 Position ---------- (1) Ground quartz diffuser (ND=2.32)
Filter Wheel #2 Position ---------- (1) Neutral Density 0.494



************************************************************
HS scan start time = 03:16:09
Dark Count =  6.1 


Time (GMT)  Wavelength (Ang)  Step Number  Raw Counts  Counts/Second

  196.51        2950.00           1233          21.00        64.95
  196.58        2950.25           1236          22.00        69.31
  196.61        2950.50           1239          20.00        60.59
  196.63        2950.75           1242          21.00        64.95
  196.66        2951.00           1246          22.00        69.31
  196.69        2951.25           1249          20.00        60.59
  196.71        2951.50           1252          22.00        69.31
  196.74        2951.75           1256          16.00        43.16
  196.77        2952.00           1259          18.00        51.87
  196.80        2952.25           1262          21.00        64.95
  196.82        2952.50           1266          19.00        56.23
  196.85        2952.75           1269          18.00        51.87
  196.88        2953.00           1272          16.00        43.16
  196.91        2953.25           1276          15.00        38.80
  196.93        2953.50           1279          22.00        69.31
  196.96        2953.75           1282          19.00        56.23
  196.99        2954.00           1286          19.00        56.23
  197.01        2954.25           1289          23.00        73.67
  197.04        2954.50           1292          20.00        60.59
  197.07        2954.75           1295          21.00        64.95
  197.10        2955.00           1299          19.00        56.23
  197.12        2955.25           1302          19.00        56.23
  197.15        2955.50           1305          23.00        73.67
  197.18        2955.75           1309          24.00        78.03
  197.21        2956.00           1312          22.00        69.31
  197.23        2956.25           1315          20.00        60.59
  197.26        2956.50           1319          21.00        64.95
  197.29        2956.75           1322          17.00        47.52
  197.31        2957.00           1325          21.00        64.95
  197.34        2957.25           1329          19.00        56.23
  197.37        2957.50           1332          19.00        56.23
  197.40        2957.75           1335          24.00        78.03
  197.42        2958.00           1339          16.00        43.16
  197.45        2958.25           1342          20.00        60.59
  197.48        2958.50           1345          21.00        64.95
  197.51        2958.75           1348          13.00        30.08
  197.53        2959.00           1352          21.00        64.95
  197.56        2959.25           1355          18.00        51.87
  197.59        2959.50           1358          21.00        64.95
  197.62        2959.75           1362          17.00        47.52
  197.64        2960.00           1365          25.00        82.39
  197.67        2960.25           1368          33.00       117.26
  197.70        2960.50           1372          39.00       143.42
  197.72        2960.75           1375          60.00       234.96
  197.75        2961.00           1378         189.00       797.32
  197.78        2961.25           1382         789.00      3413.14
  197.81        2961.50           1385        1809.00      7860.93
  197.83        2961.75           1388        3499.00     15232.74
  197.86        2962.00           1392        6759.00     29461.52
  197.89        2962.25           1395        9611.00     41918.84
  197.92        2962.50           1398       12576.00     54878.95
  197.94        2962.75           1402       16696.00     72903.25
  197.97        2963.00           1405       19748.00     86266.98
  198.00        2963.25           1408       22773.00     99522.38
  198.03        2963.50           1412       26481.00    115784.10
  198.05        2963.75           1415       29447.00    128802.40
  198.08        2964.00           1418       32857.00    143781.30
  198.11        2964.25           1422       36528.00    159920.70
  198.14        2964.50           1425       39827.00    174437.10
  198.16        2964.75           1428       42954.00    188207.60
  198.19        2965.00           1431       46099.00    202068.10
  198.22        2965.25           1435       50580.00    221835.30
  198.25        2965.50           1438       53483.00    234653.10
  198.27        2965.75           1441       56333.00    247245.90
  198.30        2966.00           1445       60493.00    265642.90
  198.33        2966.25           1448       62927.00    276415.80
  198.35        2966.50           1451       65099.00    286034.50
  198.38        2966.75           1455       66503.00    292255.00
  198.41        2967.00           1458       67037.00    294621.40
  198.44        2967.25           1461       67141.00    295082.30
  198.46        2967.50           1465       66927.00    294133.90
  198.49        2967.75           1468       66069.00    290331.90
  198.52        2968.00           1471       64793.00    284679.10
  198.55        2968.25           1475       62188.00    273144.30
  198.57        2968.50           1478       59274.00    260250.10
  198.60        2968.75           1481       56120.00    246304.40
  198.63        2969.00           1485       52318.00    229508.10
  198.66        2969.25           1488       48744.00    213733.40
  198.68        2969.50           1491       45315.00    198611.90
  198.71        2969.75           1495       41139.00    180213.50
  198.74        2970.00           1498       37878.00    165859.60
  198.77        2970.25           1501       34932.00    152902.10
  198.79        2970.50           1505       30450.00    133206.90
  198.82        2970.75           1508       27318.00    119456.90
  198.85        2971.00           1511       24173.00    105660.40
  198.88        2971.25           1515       19942.00     87116.78
  198.90        2971.50           1518       17105.00     74693.54
  198.93        2971.75           1521       13988.00     61054.16
  198.96        2972.00           1525        9745.00     42504.35
  198.99        2972.25           1528        6702.00     29212.64
  199.01        2972.50           1531        4047.00     17623.78
  199.04        2972.75           1535        1671.00      7259.10
  199.07        2973.00           1538         629.00      2715.55
  199.10        2973.25           1541         166.00       697.05
  199.12        2973.50           1545          53.00       204.45
  199.15        2973.75           1548          41.00       152.14
  199.18        2974.00           1551          31.00       108.54
  199.21        2974.25           1555          26.00        86.75
  199.23        2974.50           1558          26.00        86.75
  199.26        2974.75           1561          26.00        86.75
  199.29        2975.00           1565          27.00        91.11
  199.31        2975.25           1568          31.00       108.54
  199.34        2975.50           1571          23.00        73.67
  199.37        2975.75           1575          25.00        82.39
  199.40        2976.00           1578          27.00        91.11
  199.42        2976.25           1581          24.00        78.03
  199.45        2976.50           1585          21.00        64.95
  199.48        2976.75           1588          21.00        64.95
  199.51        2977.00           1591          21.00        64.95
  199.53        2977.25           1595          22.00        69.31
  199.56        2977.50           1598          23.00        73.67
  199.59        2977.75           1601          19.00        56.23
  199.62        2978.00           1605          23.00        73.67
  199.64        2978.25           1608          29.00        99.83
  199.67        2978.50           1611          22.00        69.31
  199.70        2978.75           1615          21.00        64.95
  199.72        2979.00           1618          20.00        60.59
  199.75        2979.25           1621          22.00        69.31
  199.78        2979.50           1625          20.00        60.59
  199.81        2979.75           1628          26.00        86.75
  199.83        2980.00           1631          24.00        78.03
  199.86        2980.25           1635          22.00        69.31
  199.89        2980.50           1638          23.00        73.67
  199.92        2980.75           1641          18.00        51.87
  199.94        2981.00           1645          22.00        69.31
  199.97        2981.25           1648          23.00        73.67
  200.00        2981.50           1651          20.00        60.59
  200.02        2981.75           1655          25.00        82.39
  200.05        2982.00           1658          23.00        73.67
  200.08        2982.25           1661          17.00        47.52
  200.11        2982.50           1665          25.00        82.39
  200.13        2982.75           1668          19.00        56.23
  200.16        2983.00           1671          21.00        64.95
  200.19        2983.25           1675          25.00        82.39
  200.22        2983.50           1678          22.00        69.31
  200.24        2983.75           1681          21.00        64.95
  200.27        2984.00           1685          24.00        78.03
HS scan finished at 03:20:27
end
