************************************************************
  HS Scan of (1) Internal mercury lamp
************************************************************
Integration time is 0.2294 seconds per sample
dh210717Tamanrasset 22.79-5.529 3.240938pr865
************************************************************
Dead Time -------------------------  2.8E-08 
Number of Cycles Used -------------  4 
Starting Wavelength (Angstroms) ---  2950 
Final Wavelength (Angstoms) -------  2984 
Wavelength Increment (Angstroms) --  .25 
Filter Wheel #1 Position ---------- (1) Ground quartz diffuser (ND=2.32)
Filter Wheel #2 Position ---------- (1) Neutral Density 0.494



************************************************************
HS scan start time = 03:15:16
Dark Count =  4.8 


Time (GMT)  Wavelength (Ang)  Step Number  Raw Counts  Counts/Second

  195.62        2950.00           1233          19.00        61.90
  195.69        2950.25           1236          18.00        57.54
  195.71        2950.50           1239          20.00        66.26
  195.74        2950.75           1242          20.00        66.26
  195.77        2951.00           1246          20.00        66.26
  195.80        2951.25           1249          21.00        70.62
  195.82        2951.50           1252          23.00        79.34
  195.85        2951.75           1256          19.00        61.90
  195.88        2952.00           1259          18.00        57.54
  195.91        2952.25           1262          17.00        53.18
  195.93        2952.50           1266          23.00        79.34
  195.96        2952.75           1269          20.00        66.26
  195.99        2953.00           1272          20.00        66.26
  196.01        2953.25           1276          17.00        53.18
  196.04        2953.50           1279          20.00        66.26
  196.07        2953.75           1282          16.00        48.82
  196.10        2954.00           1286          17.00        53.18
  196.12        2954.25           1289          23.00        79.34
  196.15        2954.50           1292          17.00        53.18
  196.18        2954.75           1295          16.00        48.82
  196.20        2955.00           1299          17.00        53.18
  196.23        2955.25           1302          20.00        66.26
  196.26        2955.50           1305          15.00        44.46
  196.29        2955.75           1309          19.00        61.90
  196.31        2956.00           1312          20.00        66.26
  196.34        2956.25           1315          21.00        70.62
  196.37        2956.50           1319          15.00        44.46
  196.39        2956.75           1322          22.00        74.98
  196.42        2957.00           1325          22.00        74.98
  196.45        2957.25           1329          17.00        53.18
  196.48        2957.50           1332          18.00        57.54
  196.50        2957.75           1335          16.00        48.82
  196.53        2958.00           1339          19.00        61.90
  196.56        2958.25           1342          20.00        66.26
  196.58        2958.50           1345          20.00        66.26
  196.61        2958.75           1348          18.00        57.54
  196.64        2959.00           1352          17.00        53.18
  196.67        2959.25           1355          23.00        79.34
  196.69        2959.50           1358          21.00        70.62
  196.72        2959.75           1362          29.00       105.49
  196.75        2960.00           1365          26.00        92.42
  196.77        2960.25           1368          33.00       122.93
  196.80        2960.50           1372          29.00       105.49
  196.83        2960.75           1375          40.00       153.44
  196.86        2961.00           1378         144.00       606.81
  196.88        2961.25           1382         653.00      2825.86
  196.91        2961.50           1385        1609.00      6994.40
  196.94        2961.75           1388        3207.00     13964.48
  196.97        2962.00           1392        6131.00     26725.31
  196.99        2962.25           1395        8988.00     39202.56
  197.02        2962.50           1398       12039.00     52536.69
  197.05        2962.75           1402       15949.00     69639.59
  197.07        2963.00           1405       19024.00     83101.60
  197.10        2963.25           1408       21997.00     96126.74
  197.13        2963.50           1412       25647.00    112130.90
  197.16        2963.75           1415       28863.00    126244.10
  197.18        2964.00           1418       31731.00    138839.50
  197.21        2964.25           1422       35545.00    155603.20
  197.24        2964.50           1425       38525.00    168712.30
  197.27        2964.75           1428       41544.00    182002.70
  197.29        2965.00           1431       44361.00    194412.90
  197.32        2965.25           1435       48460.00    212486.30
  197.35        2965.50           1438       51598.00    226334.80
  197.38        2965.75           1441       54570.00    239460.70
  197.40        2966.00           1445       58547.00    257040.40
  197.43        2966.25           1448       60775.00    266896.50
  197.46        2966.50           1451       62991.00    276704.90
  197.49        2966.75           1455       64231.00    282195.70
  197.51        2967.00           1458       64784.00    284645.00
  197.54        2967.25           1461       64951.00    285384.70
  197.57        2967.50           1465       64680.00    284184.40
  197.59        2967.75           1468       64218.00    282138.10
  197.62        2968.00           1471       62847.00    276067.30
  197.65        2968.25           1475       60019.00    263551.50
  197.68        2968.50           1478       57191.00    251044.40
  197.70        2968.75           1481       54075.00    237273.90
  197.73        2969.00           1485       49984.00    219210.60
  197.76        2969.25           1488       46771.00    205036.90
  197.79        2969.50           1491       43903.00    192394.60
  197.81        2969.75           1495       39613.00    173500.80
  197.84        2970.00           1498       36419.00    159447.00
  197.87        2970.25           1501       33572.00    146929.30
  197.90        2970.50           1505       29294.00    128136.30
  197.92        2970.75           1508       26185.00    114491.10
  197.95        2971.00           1511       23072.00    100838.80
  197.98        2971.25           1515       18946.00     82760.00
  198.01        2971.50           1518       16004.00     69880.28
  198.03        2971.75           1521       12983.00     56664.38
  198.06        2972.00           1525        9128.00     39814.20
  198.09        2972.25           1528        6391.00     27860.43
  198.11        2972.50           1531        3815.00     16617.15
  198.14        2972.75           1535        1493.00      6488.54
  198.17        2973.00           1538         526.00      2272.16
  198.20        2973.25           1541         150.00       632.97
  198.22        2973.50           1545          49.00       192.68
  198.25        2973.75           1548          34.00       127.29
  198.28        2974.00           1551          31.00       114.21
  198.30        2974.25           1555          25.00        88.06
  198.33        2974.50           1558          29.00       105.49
  198.36        2974.75           1561          22.00        74.98
  198.39        2975.00           1565          21.00        70.62
  198.41        2975.25           1568          26.00        92.42
  198.44        2975.50           1571          21.00        70.62
  198.47        2975.75           1575          18.00        57.54
  198.50        2976.00           1578          23.00        79.34
  198.52        2976.25           1581          20.00        66.26
  198.55        2976.50           1585          25.00        88.06
  198.58        2976.75           1588          22.00        74.98
  198.60        2977.00           1591          22.00        74.98
  198.63        2977.25           1595          19.00        61.90
  198.66        2977.50           1598          20.00        66.26
  198.69        2977.75           1601          26.00        92.42
  198.71        2978.00           1605          20.00        66.26
  198.74        2978.25           1608          22.00        74.98
  198.77        2978.50           1611          21.00        70.62
  198.79        2978.75           1615          22.00        74.98
  198.82        2979.00           1618          23.00        79.34
  198.85        2979.25           1621          24.00        83.70
  198.88        2979.50           1625          22.00        74.98
  198.90        2979.75           1628          24.00        83.70
  198.93        2980.00           1631          18.00        57.54
  198.96        2980.25           1635          22.00        74.98
  198.98        2980.50           1638          16.00        48.82
  199.01        2980.75           1641          17.00        53.18
  199.04        2981.00           1645          19.00        61.90
  199.07        2981.25           1648          19.00        61.90
  199.09        2981.50           1651          22.00        74.98
  199.12        2981.75           1655          18.00        57.54
  199.15        2982.00           1658          20.00        66.26
  199.17        2982.25           1661          22.00        74.98
  199.20        2982.50           1665          17.00        53.18
  199.23        2982.75           1668          21.00        70.62
  199.26        2983.00           1671          18.00        57.54
  199.28        2983.25           1675          20.00        66.26
  199.31        2983.50           1678          21.00        70.62
  199.34        2983.75           1681          19.00        61.90
  199.36        2984.00           1685          20.00        66.26
HS scan finished at 03:19:33
end
