************************************************************
  HS Scan of (1) Internal mercury lamp
************************************************************
Integration time is 0.2294 seconds per sample
dh220717Tamanrasset 22.79-5.529 3.44487pr865
************************************************************
Dead Time -------------------------  2.8E-08 
Number of Cycles Used -------------  4 
Starting Wavelength (Angstroms) ---  2950 
Final Wavelength (Angstoms) -------  2984 
Wavelength Increment (Angstroms) --  .25 
Filter Wheel #1 Position ---------- (1) Ground quartz diffuser (ND=2.32)
Filter Wheel #2 Position ---------- (1) Neutral Density 0.494



************************************************************
HS scan start time = 03:15:18
Dark Count =  6.2 


Time (GMT)  Wavelength (Ang)  Step Number  Raw Counts  Counts/Second

  195.66        2950.00           1233          22.00        68.88
  195.73        2950.25           1236          21.00        64.52
  195.75        2950.50           1239          17.00        47.08
  195.78        2950.75           1242          18.00        51.44
  195.81        2951.00           1246          21.00        64.52
  195.84        2951.25           1249          19.00        55.80
  195.86        2951.50           1252          20.00        60.16
  195.89        2951.75           1256          17.00        47.08
  195.92        2952.00           1259          24.00        77.59
  195.95        2952.25           1262          21.00        64.52
  195.97        2952.50           1266          21.00        64.52
  196.00        2952.75           1269          21.00        64.52
  196.03        2953.00           1272          21.00        64.52
  196.05        2953.25           1276          16.00        42.72
  196.08        2953.50           1279          19.00        55.80
  196.11        2953.75           1282          20.00        60.16
  196.13        2954.00           1286          17.00        47.08
  196.16        2954.25           1289          15.00        38.36
  196.19        2954.50           1292          23.00        73.23
  196.22        2954.75           1295          22.00        68.88
  196.24        2955.00           1299          16.00        42.72
  196.27        2955.25           1302          20.00        60.16
  196.30        2955.50           1305          22.00        68.88
  196.33        2955.75           1309          18.00        51.44
  196.35        2956.00           1312          23.00        73.23
  196.38        2956.25           1315          20.00        60.16
  196.41        2956.50           1319          21.00        64.52
  196.43        2956.75           1322          20.00        60.16
  196.46        2957.00           1325          20.00        60.16
  196.49        2957.25           1329          19.00        55.80
  196.52        2957.50           1332          24.00        77.59
  196.54        2957.75           1335          21.00        64.52
  196.57        2958.00           1339          22.00        68.88
  196.60        2958.25           1342          21.00        64.52
  196.62        2958.50           1345          21.00        64.52
  196.65        2958.75           1348          18.00        51.44
  196.68        2959.00           1352          16.00        42.72
  196.71        2959.25           1355          23.00        73.23
  196.73        2959.50           1358          20.00        60.16
  196.76        2959.75           1362          20.00        60.16
  196.79        2960.00           1365          30.00       103.75
  196.81        2960.25           1368          36.00       129.90
  196.84        2960.50           1372          37.00       134.26
  196.87        2960.75           1375          45.00       169.14
  196.90        2961.00           1378         117.00       483.01
  196.92        2961.25           1382         509.00      2191.94
  196.95        2961.50           1385        1335.00      5793.44
  196.98        2961.75           1388        2915.00     12684.54
  197.01        2962.00           1392        5946.00     25911.56
  197.03        2962.25           1395        8728.00     38060.59
  197.06        2962.50           1398       12047.00     52565.55
  197.09        2962.75           1402       16042.00     70040.45
  197.11        2963.00           1405       19284.00     84234.18
  197.14        2963.25           1408       22464.00     98167.46
  197.17        2963.50           1412       26660.00    116569.10
  197.20        2963.75           1415       29759.00    130172.00
  197.22        2964.00           1418       32963.00    144246.60
  197.25        2964.25           1422       36861.00    161385.00
  197.28        2964.50           1425       40037.00    175361.10
  197.31        2964.75           1428       43629.00    191181.10
  197.33        2965.00           1431       46567.00    204131.20
  197.36        2965.25           1435       50908.00    223282.60
  197.39        2965.50           1438       54223.00    237921.50
  197.42        2965.75           1441       57389.00    251913.60
  197.44        2966.00           1445       61889.00    271820.40
  197.47        2966.25           1448       64629.00    283952.30
  197.50        2966.50           1451       66592.00    292648.90
  197.53        2966.75           1455       68689.00    301944.00
  197.55        2967.00           1458       69419.00    305180.80
  197.58        2967.25           1461       69780.00    306781.80
  197.61        2967.50           1465       69429.00    305225.20
  197.63        2967.75           1468       68983.00    303247.50
  197.66        2968.00           1471       67931.00    298583.50
  197.69        2968.25           1475       65317.00    286999.80
  197.72        2968.50           1478       62627.00    275087.20
  197.74        2968.75           1481       59402.00    260815.80
  197.77        2969.00           1485       55041.00    241535.60
  197.80        2969.25           1488       51430.00    225587.00
  197.83        2969.50           1491       48040.00    210627.40
  197.85        2969.75           1495       43780.00    191846.40
  197.88        2970.00           1498       40289.00    176470.50
  197.91        2970.25           1501       37178.00    162779.50
  197.94        2970.50           1505       32702.00    143099.70
  197.96        2970.75           1508       29308.00    128191.70
  197.99        2971.00           1511       26174.00    114436.70
  198.02        2971.25           1515       21993.00     96103.07
  198.05        2971.50           1518       18826.00     82228.35
  198.07        2971.75           1521       15843.00     69169.58
  198.10        2972.00           1525       11404.00     49754.54
  198.13        2972.25           1528        8196.00     35736.70
  198.16        2972.50           1531        5511.00     24012.65
  198.18        2972.75           1535        2373.00     10320.33
  198.21        2973.00           1538         933.00      4040.56
  198.24        2973.25           1541         255.00      1084.60
  198.26        2973.50           1545          70.00       278.12
  198.29        2973.75           1548          40.00       147.34
  198.32        2974.00           1551          33.00       116.83
  198.35        2974.25           1555          34.00       121.19
  198.37        2974.50           1558          30.00       103.75
  198.40        2974.75           1561          31.00       108.11
  198.43        2975.00           1565          27.00        90.67
  198.45        2975.25           1568          21.00        64.52
  198.48        2975.50           1571          23.00        73.23
  198.51        2975.75           1575          24.00        77.59
  198.54        2976.00           1578          22.00        68.88
  198.56        2976.25           1581          25.00        81.95
  198.59        2976.50           1585          26.00        86.31
  198.62        2976.75           1588          24.00        77.59
  198.64        2977.00           1591          24.00        77.59
  198.67        2977.25           1595          20.00        60.16
  198.70        2977.50           1598          19.00        55.80
  198.73        2977.75           1601          23.00        73.23
  198.75        2978.00           1605          26.00        86.31
  198.78        2978.25           1608          26.00        86.31
  198.81        2978.50           1611          21.00        64.52
  198.83        2978.75           1615          21.00        64.52
  198.86        2979.00           1618          17.00        47.08
  198.89        2979.25           1621          25.00        81.95
  198.92        2979.50           1625          22.00        68.88
  198.94        2979.75           1628          24.00        77.59
  198.97        2980.00           1631          18.00        51.44
  199.00        2980.25           1635          20.00        60.16
  199.02        2980.50           1638          17.00        47.08
  199.05        2980.75           1641          20.00        60.16
  199.08        2981.00           1645          21.00        64.52
  199.11        2981.25           1648          17.00        47.08
  199.13        2981.50           1651          26.00        86.31
  199.16        2981.75           1655          22.00        68.88
  199.19        2982.00           1658          22.00        68.88
  199.22        2982.25           1661          22.00        68.88
  199.24        2982.50           1665          19.00        55.80
  199.27        2982.75           1668          25.00        81.95
  199.30        2983.00           1671          22.00        68.88
  199.32        2983.25           1675          21.00        64.52
  199.35        2983.50           1678          25.00        81.95
  199.38        2983.75           1681          21.00        64.52
  199.41        2984.00           1685          21.00        64.52
HS scan finished at 03:19:36
end
