************************************************************
  HS Scan of (1) Internal mercury lamp
************************************************************
Integration time is 0.2294 seconds per sample
dh260717Tamanrasset 22.79-5.529 3.164463pr865
************************************************************
Dead Time -------------------------  2.8E-08 
Number of Cycles Used -------------  4 
Starting Wavelength (Angstroms) ---  2950 
Final Wavelength (Angstoms) -------  2984 
Wavelength Increment (Angstroms) --  .25 
Filter Wheel #1 Position ---------- (1) Ground quartz diffuser (ND=2.32)
Filter Wheel #2 Position ---------- (1) Neutral Density 0.494



************************************************************
HS scan start time = 03:17:17
Dark Count =  5.8 


Time (GMT)  Wavelength (Ang)  Step Number  Raw Counts  Counts/Second

  197.63        2950.00           1233          19.00        57.54
  197.70        2950.25           1236          17.00        48.82
  197.72        2950.50           1239          20.00        61.90
  197.75        2950.75           1242          18.00        53.18
  197.78        2951.00           1246          21.00        66.26
  197.81        2951.25           1249          17.00        48.82
  197.83        2951.50           1252          21.00        66.26
  197.86        2951.75           1256          18.00        53.18
  197.89        2952.00           1259          18.00        53.18
  197.91        2952.25           1262          23.00        74.98
  197.94        2952.50           1266          22.00        70.62
  197.97        2952.75           1269          17.00        48.82
  197.99        2953.00           1272          18.00        53.18
  198.02        2953.25           1276          20.00        61.90
  198.05        2953.50           1279          19.00        57.54
  198.08        2953.75           1282          18.00        53.18
  198.10        2954.00           1286          16.00        44.46
  198.13        2954.25           1289          21.00        66.26
  198.16        2954.50           1292          25.00        83.70
  198.19        2954.75           1295          19.00        57.54
  198.21        2955.00           1299          20.00        61.90
  198.24        2955.25           1302          18.00        53.18
  198.27        2955.50           1305          21.00        66.26
  198.29        2955.75           1309          17.00        48.82
  198.32        2956.00           1312          17.00        48.82
  198.35        2956.25           1315          21.00        66.26
  198.38        2956.50           1319          22.00        70.62
  198.40        2956.75           1322          18.00        53.18
  198.43        2957.00           1325          21.00        66.26
  198.46        2957.25           1329          21.00        66.26
  198.48        2957.50           1332          16.00        44.46
  198.51        2957.75           1335          14.00        35.75
  198.54        2958.00           1339          15.00        40.10
  198.57        2958.25           1342          22.00        70.62
  198.59        2958.50           1345          16.00        44.46
  198.62        2958.75           1348          19.00        57.54
  198.65        2959.00           1352          21.00        66.26
  198.68        2959.25           1355          19.00        57.54
  198.70        2959.50           1358          25.00        83.70
  198.73        2959.75           1362          21.00        66.26
  198.76        2960.00           1365          24.00        79.34
  198.78        2960.25           1368          28.00        96.77
  198.81        2960.50           1372          39.00       144.73
  198.84        2960.75           1375          54.00       210.11
  198.87        2961.00           1378         131.00       545.78
  198.89        2961.25           1382         657.00      2838.94
  198.92        2961.50           1385        1555.00      6754.55
  198.95        2961.75           1388        3093.00     13462.79
  198.98        2962.00           1392        6086.00     26524.49
  199.00        2962.25           1395        8866.00     38665.21
  199.03        2962.50           1398       11780.00     51399.99
  199.06        2962.75           1402       15361.00     67062.16
  199.08        2963.00           1405       18417.00     80439.03
  199.11        2963.25           1408       21580.00     94294.84
  199.14        2963.50           1412       25329.00    110731.60
  199.17        2963.75           1415       28273.00    123649.70
  199.19        2964.00           1418       31115.00    136129.00
  199.22        2964.25           1422       35008.00    153237.60
  199.25        2964.50           1425       37902.00    165966.50
  199.28        2964.75           1428       41118.00    180122.40
  199.30        2965.00           1431       43842.00    192121.40
  199.33        2965.25           1435       47921.00    210104.30
  199.36        2965.50           1438       50803.00    222820.90
  199.39        2965.75           1441       54012.00    236991.10
  199.41        2966.00           1445       57750.00    253511.60
  199.44        2966.25           1448       59780.00    262489.70
  199.47        2966.50           1451       61842.00    271614.10
  199.50        2966.75           1455       63077.00    277081.20
  199.52        2967.00           1458       63492.00    278918.70
  199.55        2967.25           1461       63919.00    280809.50
  199.58        2967.50           1465       63352.00    278298.80
  199.60        2967.75           1468       62870.00    276164.70
  199.63        2968.00           1471       61629.00    270671.30
  199.66        2968.25           1475       58603.00    257283.60
  199.69        2968.50           1478       55767.00    244745.60
  199.72        2968.75           1481       52997.00    232507.90
  199.74        2969.00           1485       49173.00    215627.50
  199.77        2969.25           1488       45991.00    201593.30
  199.80        2969.50           1491       42965.00    188257.40
  199.82        2969.75           1495       38708.00    169513.20
  199.85        2970.00           1498       35706.00    156306.80
  199.88        2970.25           1501       32673.00    142974.00
  199.91        2970.50           1505       28756.00    125769.90
  199.93        2970.75           1508       25608.00    111955.50
  199.96        2971.00           1511       23012.00    100571.40
  199.99        2971.25           1515       18902.00     82562.93
  200.02        2971.50           1518       15933.00     69565.19
  200.04        2971.75           1521       13260.00     57871.39
  200.07        2972.00           1525        9501.00     41439.51
  200.10        2972.25           1528        6630.00     28899.58
  200.13        2972.50           1531        4024.00     17524.73
  200.15        2972.75           1535        1640.00      7125.22
  200.18        2973.00           1538         620.00      2677.62
  200.21        2973.25           1541         184.00       776.83
  200.23        2973.50           1545          52.00       201.40
  200.26        2973.75           1548          40.00       149.09
  200.29        2974.00           1551          31.00       109.85
  200.32        2974.25           1555          32.00       114.21
  200.34        2974.50           1558          27.00        92.42
  200.37        2974.75           1561          26.00        88.06
  200.40        2975.00           1565          27.00        92.42
  200.42        2975.25           1568          24.00        79.34
  200.45        2975.50           1571          25.00        83.70
  200.48        2975.75           1575          27.00        92.42
  200.51        2976.00           1578          23.00        74.98
  200.53        2976.25           1581          20.00        61.90
  200.56        2976.50           1585          24.00        79.34
  200.59        2976.75           1588          19.00        57.54
  200.61        2977.00           1591          17.00        48.82
  200.64        2977.25           1595          28.00        96.77
  200.67        2977.50           1598          24.00        79.34
  200.70        2977.75           1601          23.00        74.98
  200.72        2978.00           1605          21.00        66.26
  200.75        2978.25           1608          21.00        66.26
  200.78        2978.50           1611          23.00        74.98
  200.81        2978.75           1615          22.00        70.62
  200.83        2979.00           1618          21.00        66.26
  200.86        2979.25           1621          22.00        70.62
  200.89        2979.50           1625          22.00        70.62
  200.91        2979.75           1628          22.00        70.62
  200.94        2980.00           1631          23.00        74.98
  200.97        2980.25           1635          19.00        57.54
  201.00        2980.50           1638          17.00        48.82
  201.02        2980.75           1641          22.00        70.62
  201.05        2981.00           1645          19.00        57.54
  201.08        2981.25           1648          23.00        74.98
  201.10        2981.50           1651          22.00        70.62
  201.13        2981.75           1655          22.00        70.62
  201.16        2982.00           1658          22.00        70.62
  201.19        2982.25           1661          23.00        74.98
  201.21        2982.50           1665          21.00        66.26
  201.24        2982.75           1668          18.00        53.18
  201.27        2983.00           1671          19.00        57.54
  201.29        2983.25           1675          21.00        66.26
  201.32        2983.50           1678          17.00        48.82
  201.35        2983.75           1681          21.00        66.26
  201.38        2984.00           1685          17.00        48.82
HS scan finished at 03:21:34
end
