************************************************************
  HS Scan of (1) Internal mercury lamp
************************************************************
Integration time is 0.2294 seconds per sample
dh250718Tamanrasset 22.79-5.529 4.974364pr865
************************************************************
Dead Time -------------------------  2.8E-08 
Number of Cycles Used -------------  4 
Starting Wavelength (Angstroms) ---  2950 
Final Wavelength (Angstoms) -------  2984 
Wavelength Increment (Angstroms) --  .25 
Filter Wheel #1 Position ---------- (1) Ground quartz diffuser (ND=2.32)
Filter Wheel #2 Position ---------- (1) Neutral Density 0.494



************************************************************
HS scan start time = 03:17:33
Dark Count =  7 


Time (GMT)  Wavelength (Ang)  Step Number  Raw Counts  Counts/Second

  197.90        2950.00           1233          21.00        61.03
  197.97        2950.25           1236          20.00        56.67
  197.99        2950.50           1239          19.00        52.31
  198.02        2950.75           1242          24.00        74.11
  198.05        2951.00           1246          18.00        47.95
  198.07        2951.25           1249          19.00        52.31
  198.10        2951.50           1252          18.00        47.95
  198.13        2951.75           1256          21.00        61.03
  198.16        2952.00           1259          21.00        61.03
  198.18        2952.25           1262          18.00        47.95
  198.21        2952.50           1266          24.00        74.11
  198.24        2952.75           1269          17.00        43.59
  198.27        2953.00           1272          22.00        65.39
  198.29        2953.25           1276          17.00        43.59
  198.32        2953.50           1279          20.00        56.67
  198.35        2953.75           1282          23.00        69.75
  198.37        2954.00           1286          17.00        43.59
  198.40        2954.25           1289          21.00        61.03
  198.43        2954.50           1292          13.00        26.16
  198.46        2954.75           1295          20.00        56.67
  198.48        2955.00           1299          19.00        52.31
  198.51        2955.25           1302          18.00        47.95
  198.54        2955.50           1305          15.00        34.87
  198.57        2955.75           1309          20.00        56.67
  198.59        2956.00           1312          19.00        52.31
  198.62        2956.25           1315          16.00        39.23
  198.65        2956.50           1319          20.00        56.67
  198.68        2956.75           1322          18.00        47.95
  198.70        2957.00           1325          20.00        56.67
  198.73        2957.25           1329          21.00        61.03
  198.76        2957.50           1332          23.00        69.75
  198.78        2957.75           1335          18.00        47.95
  198.81        2958.00           1339          26.00        82.82
  198.84        2958.25           1342          18.00        47.95
  198.87        2958.50           1345          19.00        52.31
  198.89        2958.75           1348          21.00        61.03
  198.92        2959.00           1352          20.00        56.67
  198.95        2959.25           1355          19.00        52.31
  198.98        2959.50           1358          24.00        74.11
  199.00        2959.75           1362          21.00        61.03
  199.03        2960.00           1365          25.00        78.47
  199.06        2960.25           1368          35.00       122.06
  199.08        2960.50           1372          39.00       139.49
  199.11        2960.75           1375          44.00       161.29
  199.14        2961.00           1378          84.00       335.66
  199.17        2961.25           1382         469.00      2014.06
  199.19        2961.50           1385        1235.00      5353.90
  199.22        2961.75           1388        2576.00     11202.29
  199.25        2962.00           1392        5595.00     24375.83
  199.28        2962.25           1395        8176.00     35645.85
  199.30        2962.50           1398       11087.00     48365.37
  199.33        2962.75           1402       15007.00     65508.02
  199.36        2963.00           1405       18013.00     78664.80
  199.39        2963.25           1408       21028.00     91870.72
  199.41        2963.50           1412       24910.00    108888.60
  199.44        2963.75           1415       27824.00    121673.60
  199.47        2964.00           1418       31179.00    136404.90
  199.50        2964.25           1422       35177.00    153975.40
  199.52        2964.50           1425       38188.00    167219.70
  199.55        2964.75           1428       41172.00    180354.90
  199.58        2965.00           1431       44607.00    195487.30
  199.61        2965.25           1435       48644.00    213288.30
  199.63        2965.50           1438       51524.00    225998.40
  199.66        2965.75           1441       54955.00    241152.10
  199.69        2966.00           1445       58588.00    257212.00
  199.72        2966.25           1448       61588.00    270484.60
  199.74        2966.50           1451       63653.00    279626.40
  199.77        2966.75           1455       65433.00    287510.10
  199.80        2967.00           1458       66199.00    290903.90
  199.83        2967.25           1461       66516.00    292308.60
  199.85        2967.50           1465       66739.00    293296.80
  199.88        2967.75           1468       66071.00    290336.80
  199.91        2968.00           1471       65043.00    285782.50
  199.94        2968.25           1475       62526.00    274636.50
  199.96        2968.50           1478       59962.00    263289.60
  199.99        2968.75           1481       57155.00    250875.60
  200.02        2969.00           1485       53005.00    232538.00
  200.05        2969.25           1488       49555.00    217307.80
  200.07        2969.50           1491       46384.00    203320.70
  200.10        2969.75           1495       42210.00    184926.30
  200.13        2970.00           1498       38908.00    170388.10
  200.16        2970.25           1501       35681.00    156191.60
  200.18        2970.50           1505       31764.00    138974.80
  200.21        2970.75           1508       28396.00    124184.30
  200.24        2971.00           1511       25425.00    111147.50
  200.27        2971.25           1515       21092.00     92151.16
  200.29        2971.50           1518       18113.00     79102.65
  200.32        2971.75           1521       15027.00     65595.52
  200.35        2972.00           1525       11130.00     48553.32
  200.38        2972.25           1528        8196.00     35733.21
  200.40        2972.50           1531        5474.00     23847.66
  200.43        2972.75           1535        2530.00     11001.65
  200.46        2973.00           1538         976.00      4224.56
  200.48        2973.25           1541         319.00      1360.12
  200.51        2973.50           1545          67.00       261.55
  200.54        2973.75           1548          40.00       143.85
  200.57        2974.00           1551          38.00       135.14
  200.59        2974.25           1555          34.00       117.70
  200.62        2974.50           1558          31.00       104.62
  200.65        2974.75           1561          24.00        74.11
  200.68        2975.00           1565          25.00        78.47
  200.70        2975.25           1568          20.00        56.67
  200.73        2975.50           1571          24.00        74.11
  200.76        2975.75           1575          26.00        82.82
  200.79        2976.00           1578          21.00        61.03
  200.81        2976.25           1581          22.00        65.39
  200.84        2976.50           1585          27.00        87.18
  200.87        2976.75           1588          22.00        65.39
  200.89        2977.00           1591          17.00        43.59
  200.92        2977.25           1595          23.00        69.75
  200.95        2977.50           1598          24.00        74.11
  200.98        2977.75           1601          21.00        61.03
  201.00        2978.00           1605          19.00        52.31
  201.03        2978.25           1608          23.00        69.75
  201.06        2978.50           1611          16.00        39.23
  201.09        2978.75           1615          24.00        74.11
  201.11        2979.00           1618          24.00        74.11
  201.14        2979.25           1621          22.00        65.39
  201.17        2979.50           1625          23.00        69.75
  201.19        2979.75           1628          23.00        69.75
  201.22        2980.00           1631          19.00        52.31
  201.25        2980.25           1635          19.00        52.31
  201.28        2980.50           1638          24.00        74.11
  201.30        2980.75           1641          22.00        65.39
  201.33        2981.00           1645          18.00        47.95
  201.36        2981.25           1648          24.00        74.11
  201.39        2981.50           1651          20.00        56.67
  201.41        2981.75           1655          24.00        74.11
  201.44        2982.00           1658          22.00        65.39
  201.47        2982.25           1661          23.00        69.75
  201.49        2982.50           1665          20.00        56.67
  201.52        2982.75           1668          24.00        74.11
  201.55        2983.00           1671          23.00        69.75
  201.58        2983.25           1675          21.00        61.03
  201.60        2983.50           1678          17.00        43.59
  201.63        2983.75           1681          24.00        74.11
  201.66        2984.00           1685          20.00        56.67
HS scan finished at 03:21:51
end
