************************************************************
  HS Scan of (1) Internal mercury lamp
************************************************************
Integration time is 0.2294 seconds per sample
dh270717Tamanrasset 22.79-5.529 3.332708pr865
************************************************************
Dead Time -------------------------  2.8E-08 
Number of Cycles Used -------------  4 
Starting Wavelength (Angstroms) ---  2950 
Final Wavelength (Angstoms) -------  2984 
Wavelength Increment (Angstroms) --  .25 
Filter Wheel #1 Position ---------- (1) Ground quartz diffuser (ND=2.32)
Filter Wheel #2 Position ---------- (1) Neutral Density 0.494



************************************************************
HS scan start time = 03:17:19
Dark Count =  5.2 


Time (GMT)  Wavelength (Ang)  Step Number  Raw Counts  Counts/Second

  197.67        2950.00           1233          23.00        77.59
  197.73        2950.25           1236          22.00        73.23
  197.76        2950.50           1239          17.00        51.44
  197.79        2950.75           1242          17.00        51.44
  197.82        2951.00           1246          19.00        60.16
  197.84        2951.25           1249          22.00        73.23
  197.87        2951.50           1252          23.00        77.59
  197.90        2951.75           1256          23.00        77.59
  197.92        2952.00           1259          21.00        68.88
  197.95        2952.25           1262          19.00        60.16
  197.98        2952.50           1266          22.00        73.23
  198.01        2952.75           1269          19.00        60.16
  198.03        2953.00           1272          17.00        51.44
  198.06        2953.25           1276          23.00        77.59
  198.09        2953.50           1279          22.00        73.23
  198.11        2953.75           1282          19.00        60.16
  198.14        2954.00           1286          19.00        60.16
  198.17        2954.25           1289          15.00        42.72
  198.20        2954.50           1292          20.00        64.52
  198.22        2954.75           1295          21.00        68.88
  198.25        2955.00           1299          18.00        55.80
  198.28        2955.25           1302          17.00        51.44
  198.31        2955.50           1305          21.00        68.88
  198.33        2955.75           1309          19.00        60.16
  198.36        2956.00           1312          20.00        64.52
  198.39        2956.25           1315          22.00        73.23
  198.41        2956.50           1319          19.00        60.16
  198.44        2956.75           1322          25.00        86.31
  198.47        2957.00           1325          20.00        64.52
  198.50        2957.25           1329          24.00        81.95
  198.52        2957.50           1332          18.00        55.80
  198.55        2957.75           1335          20.00        64.52
  198.58        2958.00           1339          20.00        64.52
  198.60        2958.25           1342          24.00        81.95
  198.63        2958.50           1345          20.00        64.52
  198.66        2958.75           1348          18.00        55.80
  198.69        2959.00           1352          23.00        77.59
  198.71        2959.25           1355          20.00        64.52
  198.74        2959.50           1358          25.00        86.31
  198.77        2959.75           1362          20.00        64.52
  198.79        2960.00           1365          24.00        81.95
  198.82        2960.25           1368          27.00        95.03
  198.85        2960.50           1372          35.00       129.90
  198.88        2960.75           1375          53.00       208.37
  198.90        2961.00           1378         167.00       705.33
  198.93        2961.25           1382         728.00      3151.11
  198.96        2961.50           1385        1740.00      7563.94
  198.98        2961.75           1388        3442.00     14987.98
  199.01        2962.00           1392        6667.00     29063.75
  199.04        2962.25           1395        9615.00     41940.24
  199.07        2962.50           1398       12721.00     55516.92
  199.09        2962.75           1402       16755.00     73165.43
  199.12        2963.00           1405       19760.00     86323.48
  199.15        2963.25           1408       23142.00    101143.90
  199.18        2963.50           1412       27073.00    118385.70
  199.20        2963.75           1415       29998.00    131225.80
  199.23        2964.00           1418       32988.00    144360.90
  199.26        2964.25           1422       37205.00    162902.60
  199.29        2964.50           1425       40353.00    176756.70
  199.31        2964.75           1428       43566.00    190907.90
  199.34        2965.00           1431       46670.00    204589.80
  199.37        2965.25           1435       51020.00    223781.40
  199.40        2965.50           1438       54297.00    238252.80
  199.42        2965.75           1441       57302.00    251533.40
  199.45        2966.00           1445       61218.00    268855.00
  199.48        2966.25           1448       63782.00    280205.60
  199.51        2966.50           1451       65587.00    288200.40
  199.53        2966.75           1455       66814.00    293637.10
  199.56        2967.00           1458       67532.00    296819.30
  199.59        2967.25           1461       67318.00    295870.80
  199.61        2967.50           1465       67027.00    294581.10
  199.64        2967.75           1468       66235.00    291071.40
  199.67        2968.00           1471       64820.00    284802.70
  199.70        2968.25           1475       61564.00    270386.30
  199.72        2968.50           1478       58781.00    258073.50
  199.75        2968.75           1481       55557.00    243820.20
  199.78        2969.00           1485       51200.00    224576.00
  199.81        2969.25           1488       48166.00    211187.60
  199.83        2969.50           1491       44753.00    196138.80
  199.86        2969.75           1495       40461.00    177232.20
  199.89        2970.00           1498       37183.00    162805.90
  199.92        2970.25           1501       34021.00    148901.10
  199.94        2970.50           1505       29877.00    130694.50
  199.97        2970.75           1508       26810.00    117231.60
  200.00        2971.00           1511       23689.00    103542.10
  200.02        2971.25           1515       19537.00     85346.69
  200.05        2971.50           1518       16310.00     71217.72
  200.08        2971.75           1521       13343.00     58237.00
  200.11        2972.00           1525        9502.00     41446.50
  200.13        2972.25           1528        6561.00     28600.93
  200.16        2972.50           1531        3991.00     17383.35
  200.19        2972.75           1535        1547.00      6722.28
  200.22        2973.00           1538         556.00      2401.21
  200.24        2973.25           1541         144.00       605.07
  200.27        2973.50           1545          42.00       160.42
  200.30        2973.75           1548          45.00       173.50
  200.33        2974.00           1551          35.00       129.90
  200.35        2974.25           1555          28.00        99.39
  200.38        2974.50           1558          31.00       112.47
  200.41        2974.75           1561          28.00        99.39
  200.43        2975.00           1565          19.00        60.16
  200.46        2975.25           1568          27.00        95.03
  200.49        2975.50           1571          22.00        73.23
  200.52        2975.75           1575          22.00        73.23
  200.54        2976.00           1578          21.00        68.88
  200.57        2976.25           1581          22.00        73.23
  200.60        2976.50           1585          26.00        90.67
  200.62        2976.75           1588          26.00        90.67
  200.65        2977.00           1591          18.00        55.80
  200.68        2977.25           1595          24.00        81.95
  200.71        2977.50           1598          25.00        86.31
  200.73        2977.75           1601          25.00        86.31
  200.76        2978.00           1605          23.00        77.59
  200.79        2978.25           1608          22.00        73.23
  200.81        2978.50           1611          18.00        55.80
  200.84        2978.75           1615          22.00        73.23
  200.87        2979.00           1618          27.00        95.03
  200.90        2979.25           1621          25.00        86.31
  200.92        2979.50           1625          24.00        81.95
  200.95        2979.75           1628          25.00        86.31
  200.98        2980.00           1631          21.00        68.88
  201.00        2980.25           1635          22.00        73.23
  201.03        2980.50           1638          20.00        64.52
  201.06        2980.75           1641          22.00        73.23
  201.09        2981.00           1645          19.00        60.16
  201.11        2981.25           1648          21.00        68.88
  201.14        2981.50           1651          22.00        73.23
  201.17        2981.75           1655          20.00        64.52
  201.19        2982.00           1658          17.00        51.44
  201.22        2982.25           1661          21.00        68.88
  201.25        2982.50           1665          22.00        73.23
  201.28        2982.75           1668          18.00        55.80
  201.30        2983.00           1671          24.00        81.95
  201.33        2983.25           1675          19.00        60.16
  201.36        2983.50           1678          18.00        55.80
  201.38        2983.75           1681          20.00        64.52
  201.41        2984.00           1685          22.00        73.23
HS scan finished at 03:21:36
end
