************************************************************
  HS Scan of (1) Internal mercury lamp
************************************************************
Integration time is 0.2294 seconds per sample
dh200717Tamanrasset 22.79-5.529 3.337806pr865
************************************************************
Dead Time -------------------------  2.8E-08 
Number of Cycles Used -------------  4 
Starting Wavelength (Angstroms) ---  2950 
Final Wavelength (Angstoms) -------  2984 
Wavelength Increment (Angstroms) --  .25 
Filter Wheel #1 Position ---------- (1) Ground quartz diffuser (ND=2.32)
Filter Wheel #2 Position ---------- (1) Neutral Density 0.494



************************************************************
HS scan start time = 03:14:18
Dark Count =  5.4 


Time (GMT)  Wavelength (Ang)  Step Number  Raw Counts  Counts/Second

  194.66        2950.00           1233          17.00        50.57
  194.72        2950.25           1236          19.00        59.29
  194.75        2950.50           1239          18.00        54.93
  194.78        2950.75           1242          19.00        59.29
  194.80        2951.00           1246          22.00        72.36
  194.83        2951.25           1249          24.00        81.08
  194.86        2951.50           1252          20.00        63.64
  194.88        2951.75           1256          19.00        59.29
  194.91        2952.00           1259          17.00        50.57
  194.94        2952.25           1262          26.00        89.80
  194.97        2952.50           1266          22.00        72.36
  194.99        2952.75           1269          23.00        76.72
  195.02        2953.00           1272          18.00        54.93
  195.05        2953.25           1276          23.00        76.72
  195.07        2953.50           1279          21.00        68.00
  195.10        2953.75           1282          18.00        54.93
  195.13        2954.00           1286          19.00        59.29
  195.16        2954.25           1289          19.00        59.29
  195.18        2954.50           1292          16.00        46.21
  195.21        2954.75           1295          22.00        72.36
  195.24        2955.00           1299          24.00        81.08
  195.27        2955.25           1302          15.00        41.85
  195.29        2955.50           1305          18.00        54.93
  195.32        2955.75           1309          19.00        59.29
  195.35        2956.00           1312          19.00        59.29
  195.37        2956.25           1315          18.00        54.93
  195.40        2956.50           1319          19.00        59.29
  195.43        2956.75           1322          21.00        68.00
  195.46        2957.00           1325          20.00        63.64
  195.48        2957.25           1329          18.00        54.93
  195.51        2957.50           1332          19.00        59.29
  195.54        2957.75           1335          20.00        63.64
  195.56        2958.00           1339          17.00        50.57
  195.59        2958.25           1342          21.00        68.00
  195.62        2958.50           1345          21.00        68.00
  195.65        2958.75           1348          20.00        63.64
  195.67        2959.00           1352          20.00        63.64
  195.70        2959.25           1355          19.00        59.29
  195.73        2959.50           1358          23.00        76.72
  195.75        2959.75           1362          24.00        81.08
  195.78        2960.00           1365          31.00       111.60
  195.81        2960.25           1368          27.00        94.16
  195.84        2960.50           1372          39.00       146.47
  195.86        2960.75           1375          46.00       176.98
  195.89        2961.00           1378         157.00       660.87
  195.92        2961.25           1382         708.00      3063.04
  195.94        2961.50           1385        1664.00      7231.63
  195.97        2961.75           1388        3390.00     14760.24
  196.00        2962.00           1392        6602.00     28779.07
  196.03        2962.25           1395        9386.00     40938.79
  196.05        2962.50           1398       12543.00     54737.71
  196.08        2962.75           1402       16655.00     72726.85
  196.11        2963.00           1405       19939.00     87106.71
  196.14        2963.25           1408       23156.00    101204.40
  196.16        2963.50           1412       26884.00    117555.50
  196.19        2963.75           1415       29843.00    130544.30
  196.22        2964.00           1418       32952.00    144201.80
  196.25        2964.25           1422       37112.00    162492.70
  196.27        2964.50           1425       40381.00    176879.10
  196.30        2964.75           1428       43497.00    190603.00
  196.33        2965.00           1431       46589.00    204231.70
  196.35        2965.25           1435       50911.00    223299.40
  196.38        2965.50           1438       54183.00    237748.30
  196.41        2965.75           1441       56898.00    249746.50
  196.44        2966.00           1445       61092.00    268296.60
  196.46        2966.25           1448       63598.00    279389.90
  196.49        2966.50           1451       65761.00    288970.40
  196.52        2966.75           1455       67094.00    294877.20
  196.55        2967.00           1458       67673.00    297443.50
  196.57        2967.25           1461       67871.00    298321.10
  196.60        2967.50           1465       67498.00    296667.80
  196.63        2967.75           1468       66778.00    293476.70
  196.66        2968.00           1471       65347.00    287136.30
  196.68        2968.25           1475       62417.00    274161.10
  196.71        2968.50           1478       59721.00    262230.50
  196.74        2968.75           1481       56470.00    247854.50
  196.77        2969.00           1485       52133.00    228694.30
  196.79        2969.25           1488       48905.00    214446.90
  196.82        2969.50           1491       45521.00    199523.10
  196.85        2969.75           1495       41140.00    180221.00
  196.88        2970.00           1498       37983.00    166324.70
  196.90        2970.25           1501       34904.00    152782.10
  196.93        2970.50           1505       30690.00    134264.10
  196.96        2970.75           1508       27342.00    119565.30
  196.98        2971.00           1511       24325.00    106330.10
  197.01        2971.25           1515       20272.00     88565.47
  197.04        2971.50           1518       17236.00     75270.06
  197.07        2971.75           1521       14176.00     61879.57
  197.09        2972.00           1525       10040.00     43796.48
  197.12        2972.25           1528        7139.00     31123.89
  197.15        2972.50           1531        4351.00     18953.39
  197.18        2972.75           1535        1746.00      7589.23
  197.20        2973.00           1538         650.00      2810.16
  197.23        2973.25           1541         184.00       778.57
  197.26        2973.50           1545          52.00       203.14
  197.28        2973.75           1548          45.00       172.63
  197.31        2974.00           1551          35.00       129.03
  197.34        2974.25           1555          30.00       107.24
  197.37        2974.50           1558          23.00        76.72
  197.39        2974.75           1561          29.00       102.88
  197.42        2975.00           1565          24.00        81.08
  197.45        2975.25           1568          23.00        76.72
  197.47        2975.50           1571          28.00        98.52
  197.50        2975.75           1575          23.00        76.72
  197.53        2976.00           1578          24.00        81.08
  197.56        2976.25           1581          22.00        72.36
  197.58        2976.50           1585          19.00        59.29
  197.61        2976.75           1588          19.00        59.29
  197.64        2977.00           1591          19.00        59.29
  197.67        2977.25           1595          24.00        81.08
  197.69        2977.50           1598          24.00        81.08
  197.72        2977.75           1601          28.00        98.52
  197.75        2978.00           1605          20.00        63.64
  197.77        2978.25           1608          21.00        68.00
  197.80        2978.50           1611          21.00        68.00
  197.83        2978.75           1615          24.00        81.08
  197.86        2979.00           1618          19.00        59.29
  197.88        2979.25           1621          23.00        76.72
  197.91        2979.50           1625          26.00        89.80
  197.94        2979.75           1628          26.00        89.80
  197.96        2980.00           1631          21.00        68.00
  197.99        2980.25           1635          23.00        76.72
  198.02        2980.50           1638          21.00        68.00
  198.05        2980.75           1641          20.00        63.64
  198.07        2981.00           1645          20.00        63.64
  198.10        2981.25           1648          21.00        68.00
  198.13        2981.50           1651          22.00        72.36
  198.15        2981.75           1655          20.00        63.64
  198.18        2982.00           1658          25.00        85.44
  198.21        2982.25           1661          21.00        68.00
  198.24        2982.50           1665          22.00        72.36
  198.26        2982.75           1668          25.00        85.44
  198.29        2983.00           1671          21.00        68.00
  198.32        2983.25           1675          19.00        59.29
  198.34        2983.50           1678          20.00        63.64
  198.37        2983.75           1681          22.00        72.36
  198.40        2984.00           1685          19.00        59.29
HS scan finished at 03:18:35
end
