************************************************************
  HS Scan of (1) Internal mercury lamp
************************************************************
Integration time is 0.2294 seconds per sample
dh280717Tamanrasset 22.79-5.529 3.291921pr865
************************************************************
Dead Time -------------------------  2.8E-08 
Number of Cycles Used -------------  4 
Starting Wavelength (Angstroms) ---  2950 
Final Wavelength (Angstoms) -------  2984 
Wavelength Increment (Angstroms) --  .25 
Filter Wheel #1 Position ---------- (1) Ground quartz diffuser (ND=2.32)
Filter Wheel #2 Position ---------- (1) Neutral Density 0.494



************************************************************
HS scan start time = 03:18:54
Dark Count =  6.4 


Time (GMT)  Wavelength (Ang)  Step Number  Raw Counts  Counts/Second

  199.26        2950.00           1233          18.00        50.57
  199.32        2950.25           1236          15.00        37.49
  199.35        2950.50           1239          21.00        63.64
  199.37        2950.75           1242          22.00        68.00
  199.40        2951.00           1246          25.00        81.08
  199.43        2951.25           1249          22.00        68.00
  199.46        2951.50           1252          19.00        54.93
  199.48        2951.75           1256          21.00        63.64
  199.51        2952.00           1259          21.00        63.64
  199.54        2952.25           1262          19.00        54.93
  199.56        2952.50           1266          22.00        68.00
  199.59        2952.75           1269          22.00        68.00
  199.62        2953.00           1272          19.00        54.93
  199.65        2953.25           1276          18.00        50.57
  199.67        2953.50           1279          22.00        68.00
  199.70        2953.75           1282          22.00        68.00
  199.73        2954.00           1286          17.00        46.21
  199.75        2954.25           1289          18.00        50.57
  199.78        2954.50           1292          20.00        59.29
  199.81        2954.75           1295          20.00        59.29
  199.84        2955.00           1299          18.00        50.57
  199.86        2955.25           1302          26.00        85.44
  199.89        2955.50           1305          20.00        59.29
  199.92        2955.75           1309          24.00        76.72
  199.94        2956.00           1312          23.00        72.36
  199.97        2956.25           1315          18.00        50.57
  200.00        2956.50           1319          20.00        59.29
  200.03        2956.75           1322          19.00        54.93
  200.05        2957.00           1325          20.00        59.29
  200.08        2957.25           1329          21.00        63.64
  200.11        2957.50           1332          19.00        54.93
  200.14        2957.75           1335          18.00        50.57
  200.16        2958.00           1339          21.00        63.64
  200.19        2958.25           1342          19.00        54.93
  200.22        2958.50           1345          24.00        76.72
  200.24        2958.75           1348          21.00        63.64
  200.27        2959.00           1352          21.00        63.64
  200.30        2959.25           1355          24.00        76.72
  200.33        2959.50           1358          22.00        68.00
  200.35        2959.75           1362          27.00        89.80
  200.38        2960.00           1365          23.00        72.36
  200.41        2960.25           1368          26.00        85.44
  200.43        2960.50           1372          33.00       115.96
  200.46        2960.75           1375          44.00       163.91
  200.49        2961.00           1378         154.00       643.43
  200.52        2961.25           1382         704.00      3041.24
  200.54        2961.50           1385        1624.00      7052.83
  200.57        2961.75           1388        3243.00     14114.56
  200.60        2962.00           1392        6379.00     27801.06
  200.62        2962.25           1395        9178.00     40025.66
  200.65        2962.50           1398       12211.00     53281.70
  200.68        2962.75           1402       16042.00     70039.57
  200.71        2963.00           1405       19030.00     83120.87
  200.73        2963.25           1408       22385.00     97820.31
  200.76        2963.50           1412       26180.00    114462.20
  200.79        2963.75           1415       29104.00    127295.10
  200.82        2964.00           1418       32056.00    140260.30
  200.84        2964.25           1422       36261.00    158745.00
  200.87        2964.50           1425       39025.00    170905.70
  200.90        2964.75           1428       42323.00    185426.70
  200.93        2965.00           1431       45487.00    199368.80
  200.95        2965.25           1435       49651.00    217734.10
  200.98        2965.50           1438       52663.00    231030.20
  201.01        2965.75           1441       55857.00    245140.70
  201.03        2966.00           1445       59635.00    261845.70
  201.06        2966.25           1448       61961.00    272138.10
  201.09        2966.50           1451       64415.00    283003.50
  201.12        2966.75           1455       65664.00    288536.20
  201.14        2967.00           1458       66411.00    291846.00
  201.17        2967.25           1461       66334.00    291504.80
  201.20        2967.50           1465       66403.00    291810.50
  201.23        2967.75           1468       65507.00    287840.60
  201.25        2968.00           1471       64091.00    281568.60
  201.28        2968.25           1475       61974.00    272195.70
  201.31        2968.50           1478       58798.00    258143.40
  201.34        2968.75           1481       55787.00    244831.40
  201.36        2969.00           1485       51241.00    224751.70
  201.39        2969.25           1488       48376.00    212108.70
  201.42        2969.50           1491       45160.00    197927.40
  201.45        2969.75           1495       40974.00    179485.70
  201.47        2970.00           1498       37691.00    165035.50
  201.50        2970.25           1501       34490.00    150957.60
  201.53        2970.50           1505       30362.00    132819.10
  201.55        2970.75           1508       27201.00    118942.10
  201.58        2971.00           1511       24170.00    105646.00
  201.61        2971.25           1515       19924.00     87036.61
  201.64        2971.50           1518       16654.00     72718.09
  201.66        2971.75           1521       13577.00     59255.16
  201.69        2972.00           1525        9874.00     43066.73
  201.72        2972.25           1528        7046.00     30713.41
  201.75        2972.50           1531        4269.00     18591.19
  201.77        2972.75           1535        1694.00      7358.10
  201.80        2973.00           1538         634.00      2736.04
  201.83        2973.25           1541         179.00       752.41
  201.85        2973.50           1545          56.00       216.22
  201.88        2973.75           1548          39.00       142.11
  201.91        2974.00           1551          33.00       115.96
  201.94        2974.25           1555          28.00        94.16
  201.96        2974.50           1558          24.00        76.72
  201.99        2974.75           1561          23.00        72.36
  202.02        2975.00           1565          25.00        81.08
  202.04        2975.25           1568          27.00        89.80
  202.07        2975.50           1571          23.00        72.36
  202.10        2975.75           1575          22.00        68.00
  202.13        2976.00           1578          23.00        72.36
  202.15        2976.25           1581          18.00        50.57
  202.18        2976.50           1585          24.00        76.72
  202.21        2976.75           1588          25.00        81.08
  202.23        2977.00           1591          27.00        89.80
  202.26        2977.25           1595          23.00        72.36
  202.29        2977.50           1598          25.00        81.08
  202.32        2977.75           1601          21.00        63.64
  202.34        2978.00           1605          23.00        72.36
  202.37        2978.25           1608          26.00        85.44
  202.40        2978.50           1611          19.00        54.93
  202.42        2978.75           1615          22.00        68.00
  202.45        2979.00           1618          24.00        76.72
  202.48        2979.25           1621          21.00        63.64
  202.51        2979.50           1625          23.00        72.36
  202.53        2979.75           1628          23.00        72.36
  202.56        2980.00           1631          21.00        63.64
  202.59        2980.25           1635          24.00        76.72
  202.62        2980.50           1638          17.00        46.21
  202.64        2980.75           1641          24.00        76.72
  202.67        2981.00           1645          21.00        63.64
  202.70        2981.25           1648          24.00        76.72
  202.72        2981.50           1651          22.00        68.00
  202.75        2981.75           1655          18.00        50.57
  202.78        2982.00           1658          20.00        59.29
  202.81        2982.25           1661          16.00        41.85
  202.83        2982.50           1665          18.00        50.57
  202.86        2982.75           1668          21.00        63.64
  202.89        2983.00           1671          24.00        76.72
  202.91        2983.25           1675          19.00        54.93
  202.94        2983.50           1678          26.00        85.44
  202.97        2983.75           1681          13.00        28.77
  202.99        2984.00           1685          21.00        63.64
HS scan finished at 03:23:11
end
