************************************************************
  HS Scan of (1) Internal mercury lamp
************************************************************
Integration time is 0.2294 seconds per sample
dh270718Tamanrasset 22.79-5.529 4.974364pr865
************************************************************
Dead Time -------------------------  2.8E-08 
Number of Cycles Used -------------  4 
Starting Wavelength (Angstroms) ---  2950 
Final Wavelength (Angstoms) -------  2984 
Wavelength Increment (Angstroms) --  .25 
Filter Wheel #1 Position ---------- (1) Ground quartz diffuser (ND=2.32)
Filter Wheel #2 Position ---------- (1) Neutral Density 0.494



************************************************************
HS scan start time = 03:17:14
Dark Count =  5.5 


Time (GMT)  Wavelength (Ang)  Step Number  Raw Counts  Counts/Second

  197.58        2950.00           1233          20.00        63.21
  197.65        2950.25           1236          16.00        45.77
  197.68        2950.50           1239          23.00        76.29
  197.70        2950.75           1242          20.00        63.21
  197.73        2951.00           1246          23.00        76.29
  197.76        2951.25           1249          21.00        67.57
  197.78        2951.50           1252          24.00        80.65
  197.81        2951.75           1256          17.00        50.13
  197.84        2952.00           1259          22.00        71.93
  197.87        2952.25           1262          18.00        54.49
  197.89        2952.50           1266          22.00        71.93
  197.92        2952.75           1269          21.00        67.57
  197.95        2953.00           1272          23.00        76.29
  197.98        2953.25           1276          17.00        50.13
  198.00        2953.50           1279          17.00        50.13
  198.03        2953.75           1282          19.00        58.85
  198.06        2954.00           1286          21.00        67.57
  198.08        2954.25           1289          21.00        67.57
  198.11        2954.50           1292          22.00        71.93
  198.14        2954.75           1295          24.00        80.65
  198.17        2955.00           1299          22.00        71.93
  198.19        2955.25           1302          23.00        76.29
  198.22        2955.50           1305          24.00        80.65
  198.25        2955.75           1309          22.00        71.93
  198.28        2956.00           1312          18.00        54.49
  198.30        2956.25           1315          21.00        67.57
  198.33        2956.50           1319          19.00        58.85
  198.36        2956.75           1322          22.00        71.93
  198.38        2957.00           1325          17.00        50.13
  198.41        2957.25           1329          24.00        80.65
  198.44        2957.50           1332          19.00        58.85
  198.47        2957.75           1335          27.00        93.72
  198.49        2958.00           1339          19.00        58.85
  198.52        2958.25           1342          23.00        76.29
  198.55        2958.50           1345          23.00        76.29
  198.57        2958.75           1348          20.00        63.21
  198.60        2959.00           1352          17.00        50.13
  198.63        2959.25           1355          21.00        67.57
  198.66        2959.50           1358          25.00        85.00
  198.68        2959.75           1362          25.00        85.00
  198.71        2960.00           1365          21.00        67.57
  198.74        2960.25           1368          37.00       137.32
  198.77        2960.50           1372          30.00       106.80
  198.79        2960.75           1375          54.00       211.42
  198.82        2961.00           1378         178.00       751.98
  198.85        2961.25           1382         743.00      3215.20
  198.88        2961.50           1385        1809.00      7863.54
  198.90        2961.75           1388        3435.00     14956.13
  198.93        2962.00           1392        6606.00     28796.10
  198.96        2962.25           1395        9504.00     41453.93
  198.98        2962.50           1398       12342.00     53858.41
  199.01        2962.75           1402       16438.00     71776.63
  199.04        2963.00           1405       19496.00     85165.80
  199.07        2963.25           1408       22547.00     98534.34
  199.09        2963.50           1412       26440.00    115606.80
  199.12        2963.75           1415       29235.00    127874.20
  199.15        2964.00           1418       32251.00    141121.00
  199.18        2964.25           1422       36514.00    159861.80
  199.20        2964.50           1425       39264.00    171961.60
  199.23        2964.75           1428       42600.00    186650.80
  199.26        2965.00           1431       45826.00    200867.20
  199.29        2965.25           1435       50008.00    219313.40
  199.31        2965.50           1438       53072.00    232840.50
  199.34        2965.75           1441       56040.00    245953.50
  199.37        2966.00           1445       59767.00    262433.60
  199.40        2966.25           1448       62216.00    273270.90
  199.42        2966.50           1451       64168.00    281913.60
  199.45        2966.75           1455       65728.00    288823.70
  199.48        2967.00           1458       66364.00    291641.70
  199.51        2967.25           1461       66329.00    291486.60
  199.53        2967.50           1465       65953.00    289820.60
  199.56        2967.75           1468       65386.00    287308.50
  199.59        2968.00           1471       63984.00    281098.70
  199.62        2968.25           1475       61088.00    268278.50
  199.64        2968.50           1478       58614.00    257333.60
  199.67        2968.75           1481       55408.00    243160.40
  199.70        2969.00           1485       51302.00    225025.00
  199.73        2969.25           1488       48051.00    210679.00
  199.75        2969.50           1491       44615.00    195529.20
  199.78        2969.75           1495       40595.00    177820.90
  199.81        2970.00           1498       37287.00    163262.10
  199.84        2970.25           1501       34342.00    150310.90
  199.86        2970.50           1505       29782.00    130276.00
  199.89        2970.75           1508       26757.00    116997.70
  199.92        2971.00           1511       23665.00    103435.60
  199.95        2971.25           1515       19347.00     84513.18
  199.97        2971.50           1518       16387.00     71553.41
  200.00        2971.75           1521       13582.00     59280.98
  200.03        2972.00           1525        9786.00     42686.13
  200.06        2972.25           1528        6716.00     29276.39
  200.08        2972.50           1531        4141.00     18036.57
  200.11        2972.75           1535        1627.00      7069.84
  200.14        2973.00           1538         576.00      2487.10
  200.17        2973.25           1541         154.00       647.35
  200.19        2973.50           1545          43.00       163.47
  200.22        2973.75           1548          43.00       163.47
  200.25        2974.00           1551          32.00       115.52
  200.27        2974.25           1555          28.00        98.08
  200.30        2974.50           1558          25.00        85.00
  200.33        2974.75           1561          23.00        76.29
  200.36        2975.00           1565          24.00        80.65
  200.38        2975.25           1568          25.00        85.00
  200.41        2975.50           1571          23.00        76.29
  200.44        2975.75           1575          16.00        45.77
  200.47        2976.00           1578          23.00        76.29
  200.49        2976.25           1581          19.00        58.85
  200.52        2976.50           1585          28.00        98.08
  200.55        2976.75           1588          25.00        85.00
  200.57        2977.00           1591          22.00        71.93
  200.60        2977.25           1595          21.00        67.57
  200.63        2977.50           1598          23.00        76.29
  200.66        2977.75           1601          25.00        85.00
  200.68        2978.00           1605          27.00        93.72
  200.71        2978.25           1608          20.00        63.21
  200.74        2978.50           1611          22.00        71.93
  200.77        2978.75           1615          19.00        58.85
  200.79        2979.00           1618          19.00        58.85
  200.82        2979.25           1621          21.00        67.57
  200.85        2979.50           1625          23.00        76.29
  200.87        2979.75           1628          20.00        63.21
  200.90        2980.00           1631          24.00        80.65
  200.93        2980.25           1635          18.00        54.49
  200.96        2980.50           1638          22.00        71.93
  200.98        2980.75           1641          21.00        67.57
  201.01        2981.00           1645          16.00        45.77
  201.04        2981.25           1648          18.00        54.49
  201.07        2981.50           1651          23.00        76.29
  201.09        2981.75           1655          22.00        71.93
  201.12        2982.00           1658          17.00        50.13
  201.15        2982.25           1661          22.00        71.93
  201.17        2982.50           1665          21.00        67.57
  201.20        2982.75           1668          17.00        50.13
  201.23        2983.00           1671          23.00        76.29
  201.26        2983.25           1675          20.00        63.21
  201.28        2983.50           1678          24.00        80.65
  201.31        2983.75           1681          26.00        89.36
  201.34        2984.00           1685          22.00        71.93
HS scan finished at 03:21:32
end
