************************************************************
  HS Scan of (1) Internal mercury lamp
************************************************************
Integration time is 0.2294 seconds per sample
dh230717Tamanrasset 22.79-5.529 3.322511pr865
************************************************************
Dead Time -------------------------  2.8E-08 
Number of Cycles Used -------------  4 
Starting Wavelength (Angstroms) ---  2950 
Final Wavelength (Angstoms) -------  2984 
Wavelength Increment (Angstroms) --  .25 
Filter Wheel #1 Position ---------- (1) Ground quartz diffuser (ND=2.32)
Filter Wheel #2 Position ---------- (1) Neutral Density 0.494



************************************************************
HS scan start time = 03:16:17
Dark Count =  5.3 


Time (GMT)  Wavelength (Ang)  Step Number  Raw Counts  Counts/Second

  196.64        2950.00           1233          16.00        46.64
  196.70        2950.25           1236          25.00        85.88
  196.73        2950.50           1239          24.00        81.52
  196.76        2950.75           1242          19.00        59.72
  196.79        2951.00           1246          20.00        64.08
  196.81        2951.25           1249          19.00        59.72
  196.84        2951.50           1252          15.00        42.28
  196.87        2951.75           1256          17.00        51.00
  196.90        2952.00           1259          22.00        72.80
  196.92        2952.25           1262          22.00        72.80
  196.95        2952.50           1266          21.00        68.44
  196.98        2952.75           1269          20.00        64.08
  197.00        2953.00           1272          22.00        72.80
  197.03        2953.25           1276          18.00        55.36
  197.06        2953.50           1279          17.00        51.00
  197.09        2953.75           1282          21.00        68.44
  197.11        2954.00           1286          25.00        85.88
  197.14        2954.25           1289          19.00        59.72
  197.17        2954.50           1292          16.00        46.64
  197.19        2954.75           1295          20.00        64.08
  197.22        2955.00           1299          20.00        64.08
  197.25        2955.25           1302          20.00        64.08
  197.28        2955.50           1305          18.00        55.36
  197.30        2955.75           1309          19.00        59.72
  197.33        2956.00           1312          20.00        64.08
  197.36        2956.25           1315          20.00        64.08
  197.38        2956.50           1319          19.00        59.72
  197.41        2956.75           1322          17.00        51.00
  197.44        2957.00           1325          19.00        59.72
  197.47        2957.25           1329          19.00        59.72
  197.49        2957.50           1332          23.00        77.16
  197.52        2957.75           1335          18.00        55.36
  197.55        2958.00           1339          18.00        55.36
  197.57        2958.25           1342          21.00        68.44
  197.60        2958.50           1345          24.00        81.52
  197.63        2958.75           1348          21.00        68.44
  197.66        2959.00           1352          24.00        81.52
  197.68        2959.25           1355          18.00        55.36
  197.71        2959.50           1358          22.00        72.80
  197.74        2959.75           1362          22.00        72.80
  197.76        2960.00           1365          27.00        94.59
  197.79        2960.25           1368          28.00        98.95
  197.82        2960.50           1372          36.00       133.83
  197.85        2960.75           1375          60.00       238.45
  197.87        2961.00           1378         168.00       709.26
  197.90        2961.25           1382         768.00      3325.07
  197.93        2961.50           1385        1757.00      7637.64
  197.96        2961.75           1388        3426.00     14917.74
  197.98        2962.00           1392        6745.00     29403.89
  198.01        2962.25           1395        9722.00     42407.35
  198.04        2962.50           1398       13006.00     56762.77
  198.06        2962.75           1402       17025.00     74346.85
  198.09        2963.00           1405       20043.00     87562.72
  198.12        2963.25           1408       23318.00    101915.10
  198.15        2963.50           1412       27229.00    119069.80
  198.17        2963.75           1415       30109.00    131712.90
  198.20        2964.00           1418       33293.00    145700.90
  198.23        2964.25           1422       37537.00    164362.80
  198.26        2964.50           1425       40427.00    177082.00
  198.28        2964.75           1428       43629.00    191185.10
  198.31        2965.00           1431       46674.00    204606.90
  198.34        2965.25           1435       50984.00    223622.10
  198.36        2965.50           1438       54177.00    237722.30
  198.39        2965.75           1441       57455.00    252209.40
  198.42        2966.00           1445       61517.00    270177.90
  198.45        2966.25           1448       63806.00    280311.40
  198.47        2966.50           1451       65497.00    287801.20
  198.50        2966.75           1455       67110.00    294948.50
  198.53        2967.00           1458       67620.00    297209.00
  198.56        2967.25           1461       67504.00    296694.80
  198.58        2967.50           1465       67094.00    294877.60
  198.61        2967.75           1468       66473.00    292125.60
  198.64        2968.00           1471       65290.00    286884.20
  198.67        2968.25           1475       62075.00    272647.60
  198.69        2968.50           1478       59233.00    260072.20
  198.72        2968.75           1481       56187.00    246604.10
  198.75        2969.00           1485       52129.00    228677.10
  198.78        2969.25           1488       48554.00    212898.70
  198.80        2969.50           1491       45135.00    197822.00
  198.83        2969.75           1495       40679.00    178191.60
  198.86        2970.00           1498       37739.00    165251.50
  198.88        2970.25           1501       34774.00    152211.00
  198.91        2970.50           1505       30299.00    132547.30
  198.94        2970.75           1508       27059.00    118323.80
  198.97        2971.00           1511       24141.00    105523.60
  198.99        2971.25           1515       19842.00     86682.24
  199.02        2971.50           1518       16826.00     73475.77
  199.05        2971.75           1521       13859.00     60493.40
  199.08        2972.00           1525        9828.00     42870.53
  199.10        2972.25           1528        6896.00     30063.22
  199.13        2972.50           1531        4178.00     18198.90
  199.16        2972.75           1535        1653.00      7184.10
  199.19        2973.00           1538         582.00      2514.13
  199.21        2973.25           1541         167.00       704.90
  199.24        2973.50           1545          47.00       181.78
  199.27        2973.75           1548          36.00       133.83
  199.29        2974.00           1551          30.00       107.67
  199.32        2974.25           1555          29.00       103.31
  199.35        2974.50           1558          30.00       107.67
  199.38        2974.75           1561          23.00        77.16
  199.40        2975.00           1565          23.00        77.16
  199.43        2975.25           1568          25.00        85.88
  199.46        2975.50           1571          27.00        94.59
  199.48        2975.75           1575          24.00        81.52
  199.51        2976.00           1578          24.00        81.52
  199.54        2976.25           1581          21.00        68.44
  199.57        2976.50           1585          24.00        81.52
  199.59        2976.75           1588          21.00        68.44
  199.62        2977.00           1591          24.00        81.52
  199.65        2977.25           1595          22.00        72.80
  199.67        2977.50           1598          22.00        72.80
  199.70        2977.75           1601          23.00        77.16
  199.73        2978.00           1605          19.00        59.72
  199.76        2978.25           1608          27.00        94.59
  199.78        2978.50           1611          25.00        85.88
  199.81        2978.75           1615          22.00        72.80
  199.84        2979.00           1618          23.00        77.16
  199.86        2979.25           1621          23.00        77.16
  199.89        2979.50           1625          22.00        72.80
  199.92        2979.75           1628          26.00        90.24
  199.95        2980.00           1631          21.00        68.44
  199.97        2980.25           1635          24.00        81.52
  200.00        2980.50           1638          21.00        68.44
  200.03        2980.75           1641          22.00        72.80
  200.05        2981.00           1645          26.00        90.24
  200.08        2981.25           1648          21.00        68.44
  200.11        2981.50           1651          20.00        64.08
  200.14        2981.75           1655          20.00        64.08
  200.16        2982.00           1658          24.00        81.52
  200.19        2982.25           1661          23.00        77.16
  200.22        2982.50           1665          19.00        59.72
  200.24        2982.75           1668          22.00        72.80
  200.27        2983.00           1671          21.00        68.44
  200.30        2983.25           1675          23.00        77.16
  200.33        2983.50           1678          14.00        37.93
  200.35        2983.75           1681          21.00        68.44
  200.38        2984.00           1685          24.00        81.52
HS scan finished at 03:20:34
end
