************************************************************
  HS Scan of (1) Internal mercury lamp
************************************************************
Integration time is 0.2294 seconds per sample
dh240718Tamanrasset 22.79-5.529 4.974364pr865
************************************************************
Dead Time -------------------------  2.8E-08 
Number of Cycles Used -------------  4 
Starting Wavelength (Angstroms) ---  2950 
Final Wavelength (Angstoms) -------  2984 
Wavelength Increment (Angstroms) --  .25 
Filter Wheel #1 Position ---------- (1) Ground quartz diffuser (ND=2.32)
Filter Wheel #2 Position ---------- (1) Neutral Density 0.494



************************************************************
HS scan start time = 03:16:08
Dark Count =  5 


Time (GMT)  Wavelength (Ang)  Step Number  Raw Counts  Counts/Second

  196.50        2950.00           1233          20.00        65.39
  196.56        2950.25           1236          21.00        69.75
  196.59        2950.50           1239          21.00        69.75
  196.61        2950.75           1242          21.00        69.75
  196.64        2951.00           1246          16.00        47.95
  196.67        2951.25           1249          24.00        82.82
  196.70        2951.50           1252          20.00        65.39
  196.72        2951.75           1256          19.00        61.03
  196.75        2952.00           1259          23.00        78.47
  196.78        2952.25           1262          24.00        82.82
  196.80        2952.50           1266          21.00        69.75
  196.83        2952.75           1269          19.00        61.03
  196.86        2953.00           1272          20.00        65.39
  196.89        2953.25           1276          22.00        74.11
  196.91        2953.50           1279          16.00        47.95
  196.94        2953.75           1282          26.00        91.54
  196.97        2954.00           1286          20.00        65.39
  197.00        2954.25           1289          20.00        65.39
  197.02        2954.50           1292          26.00        91.54
  197.05        2954.75           1295          18.00        56.67
  197.08        2955.00           1299          16.00        47.95
  197.10        2955.25           1302          18.00        56.67
  197.13        2955.50           1305          20.00        65.39
  197.16        2955.75           1309          21.00        69.75
  197.19        2956.00           1312          23.00        78.47
  197.21        2956.25           1315          20.00        65.39
  197.24        2956.50           1319          18.00        56.67
  197.27        2956.75           1322          19.00        61.03
  197.30        2957.00           1325          25.00        87.18
  197.32        2957.25           1329          23.00        78.47
  197.35        2957.50           1332          18.00        56.67
  197.38        2957.75           1335          19.00        61.03
  197.40        2958.00           1339          24.00        82.82
  197.43        2958.25           1342          23.00        78.47
  197.46        2958.50           1345          17.00        52.31
  197.49        2958.75           1348          18.00        56.67
  197.51        2959.00           1352          22.00        74.11
  197.54        2959.25           1355          17.00        52.31
  197.57        2959.50           1358          22.00        74.11
  197.59        2959.75           1362          21.00        69.75
  197.62        2960.00           1365          26.00        91.54
  197.65        2960.25           1368          32.00       117.70
  197.68        2960.50           1372          37.00       139.49
  197.70        2960.75           1375          45.00       174.37
  197.73        2961.00           1378         150.00       632.09
  197.76        2961.25           1382         700.00      3029.90
  197.79        2961.50           1385        1700.00      7390.37
  197.81        2961.75           1388        3353.00     14600.56
  197.84        2962.00           1392        6555.00     28575.60
  197.87        2962.25           1395        9475.00     41329.41
  197.90        2962.50           1398       12533.00     54695.74
  197.92        2962.75           1402       16323.00     71275.50
  197.95        2963.00           1405       19444.00     84940.24
  197.98        2963.25           1408       22569.00     98632.97
  198.01        2963.50           1412       26547.00    116078.50
  198.03        2963.75           1415       29487.00    128982.90
  198.06        2964.00           1418       32485.00    142151.40
  198.09        2964.25           1422       36762.00    160954.80
  198.11        2964.50           1425       39955.00    175005.40
  198.14        2964.75           1428       42959.00    188234.50
  198.17        2965.00           1431       46122.00    202174.40
  198.20        2965.25           1435       50418.00    221125.10
  198.22        2965.50           1438       53366.00    234141.20
  198.25        2965.75           1441       56608.00    248466.30
  198.28        2966.00           1445       60749.00    266780.50
  198.31        2966.25           1448       63157.00    277439.00
  198.33        2966.50           1451       65398.00    287364.00
  198.36        2966.75           1455       66421.00    291896.50
  198.39        2967.00           1458       67090.00    294861.20
  198.42        2967.25           1461       67291.00    295752.00
  198.44        2967.50           1465       66986.00    294400.30
  198.47        2967.75           1468       66345.00    291559.70
  198.50        2968.00           1471       64994.00    285574.30
  198.53        2968.25           1475       61872.00    271750.40
  198.55        2968.50           1478       59078.00    259388.00
  198.58        2968.75           1481       55933.00    245482.80
  198.61        2969.00           1485       51581.00    226258.90
  198.64        2969.25           1488       48419.00    212304.50
  198.66        2969.50           1491       44976.00    197122.50
  198.69        2969.75           1495       40776.00    178620.00
  198.72        2970.00           1498       37593.00    164610.50
  198.75        2970.25           1501       34208.00    149724.00
  198.77        2970.50           1505       30120.00    131762.50
  198.80        2970.75           1508       27043.00    118254.90
  198.83        2971.00           1511       23735.00    103744.70
  198.86        2971.25           1515       19662.00     85895.09
  198.88        2971.50           1518       16480.00     71962.65
  198.91        2971.75           1521       13372.00     58364.70
  198.94        2972.00           1525        9312.00     40617.22
  198.97        2972.25           1528        6371.00     27772.24
  198.99        2972.50           1531        3915.00     17052.60
  199.02        2972.75           1535        1461.00      6348.12
  199.05        2973.00           1538         478.00      2062.02
  199.08        2973.25           1541         151.00       636.45
  199.10        2973.50           1545          49.00       191.81
  199.13        2973.75           1548          45.00       174.37
  199.16        2974.00           1551          40.00       152.57
  199.18        2974.25           1555          31.00       113.34
  199.21        2974.50           1558          31.00       113.34
  199.24        2974.75           1561          23.00        78.47
  199.27        2975.00           1565          22.00        74.11
  199.29        2975.25           1568          28.00       100.26
  199.32        2975.50           1571          23.00        78.47
  199.35        2975.75           1575          25.00        87.18
  199.38        2976.00           1578          24.00        82.82
  199.40        2976.25           1581          25.00        87.18
  199.43        2976.50           1585          21.00        69.75
  199.46        2976.75           1588          30.00       108.98
  199.49        2977.00           1591          26.00        91.54
  199.51        2977.25           1595          24.00        82.82
  199.54        2977.50           1598          23.00        78.47
  199.57        2977.75           1601          23.00        78.47
  199.59        2978.00           1605          25.00        87.18
  199.62        2978.25           1608          20.00        65.39
  199.65        2978.50           1611          24.00        82.82
  199.68        2978.75           1615          19.00        61.03
  199.70        2979.00           1618          22.00        74.11
  199.73        2979.25           1621          21.00        69.75
  199.76        2979.50           1625          25.00        87.18
  199.79        2979.75           1628          20.00        65.39
  199.81        2980.00           1631          24.00        82.82
  199.84        2980.25           1635          20.00        65.39
  199.87        2980.50           1638          22.00        74.11
  199.89        2980.75           1641          19.00        61.03
  199.92        2981.00           1645          19.00        61.03
  199.95        2981.25           1648          20.00        65.39
  199.98        2981.50           1651          20.00        65.39
  200.00        2981.75           1655          19.00        61.03
  200.03        2982.00           1658          17.00        52.31
  200.06        2982.25           1661          17.00        52.31
  200.08        2982.50           1665          20.00        65.39
  200.11        2982.75           1668          21.00        69.75
  200.14        2983.00           1671          22.00        74.11
  200.17        2983.25           1675          21.00        69.75
  200.19        2983.50           1678          17.00        52.31
  200.22        2983.75           1681          22.00        74.11
  200.25        2984.00           1685          18.00        56.67
HS scan finished at 03:20:26
end
