************************************************************
  HS Scan of (1) Internal mercury lamp
************************************************************
Integration time is 0.2294 seconds per sample
dh280718Tamanrasset 22.79-5.529 4.974364pr865
************************************************************
Dead Time -------------------------  2.8E-08 
Number of Cycles Used -------------  4 
Starting Wavelength (Angstroms) ---  2950 
Final Wavelength (Angstoms) -------  2984 
Wavelength Increment (Angstroms) --  .25 
Filter Wheel #1 Position ---------- (1) Ground quartz diffuser (ND=2.32)
Filter Wheel #2 Position ---------- (1) Neutral Density 0.494



************************************************************
HS scan start time = 03:18:30
Dark Count =  6.4 


Time (GMT)  Wavelength (Ang)  Step Number  Raw Counts  Counts/Second

  198.85        2950.00           1233          24.00        76.72
  198.92        2950.25           1236          20.00        59.29
  198.94        2950.50           1239          22.00        68.00
  198.97        2950.75           1242          23.00        72.36
  199.00        2951.00           1246          22.00        68.00
  199.03        2951.25           1249          21.00        63.64
  199.05        2951.50           1252          17.00        46.21
  199.08        2951.75           1256          15.00        37.49
  199.11        2952.00           1259          22.00        68.00
  199.13        2952.25           1262          16.00        41.85
  199.16        2952.50           1266          17.00        46.21
  199.19        2952.75           1269          18.00        50.57
  199.22        2953.00           1272          18.00        50.57
  199.24        2953.25           1276          20.00        59.29
  199.27        2953.50           1279          27.00        89.80
  199.30        2953.75           1282          18.00        50.57
  199.32        2954.00           1286          23.00        72.36
  199.35        2954.25           1289          19.00        54.93
  199.38        2954.50           1292          19.00        54.93
  199.41        2954.75           1295          20.00        59.29
  199.43        2955.00           1299          19.00        54.93
  199.46        2955.25           1302          18.00        50.57
  199.49        2955.50           1305          20.00        59.29
  199.51        2955.75           1309          26.00        85.44
  199.54        2956.00           1312          23.00        72.36
  199.57        2956.25           1315          19.00        54.93
  199.60        2956.50           1319          22.00        68.00
  199.62        2956.75           1322          23.00        72.36
  199.65        2957.00           1325          21.00        63.64
  199.68        2957.25           1329          20.00        59.29
  199.70        2957.50           1332          18.00        50.57
  199.73        2957.75           1335          19.00        54.93
  199.76        2958.00           1339          22.00        68.00
  199.79        2958.25           1342          18.00        50.57
  199.81        2958.50           1345          19.00        54.93
  199.84        2958.75           1348          20.00        59.29
  199.87        2959.00           1352          19.00        54.93
  199.89        2959.25           1355          22.00        68.00
  199.92        2959.50           1358          27.00        89.80
  199.95        2959.75           1362          23.00        72.36
  199.98        2960.00           1365          25.00        81.08
  200.00        2960.25           1368          30.00       102.88
  200.03        2960.50           1372          35.00       124.67
  200.06        2960.75           1375          37.00       133.39
  200.08        2961.00           1378          93.00       377.51
  200.11        2961.25           1382         544.00      2343.66
  200.14        2961.50           1385        1357.00      5888.50
  200.17        2961.75           1388        2808.00     12216.91
  200.19        2962.00           1392        5813.00     25330.08
  200.22        2962.25           1395        8628.00     37622.88
  200.25        2962.50           1398       11515.00     50238.89
  200.28        2962.75           1402       15911.00     69466.28
  200.30        2963.00           1405       19067.00     83282.91
  200.33        2963.25           1408       22082.00     96492.26
  200.36        2963.50           1412       26073.00    113992.70
  200.39        2963.75           1415       29329.00    128283.00
  200.41        2964.00           1418       32274.00    141218.10
  200.44        2964.25           1422       36419.00    159439.90
  200.47        2964.50           1425       39574.00    173322.10
  200.49        2964.75           1428       42947.00    188175.40
  200.52        2965.00           1431       45900.00    201189.50
  200.55        2965.25           1435       50026.00    219388.90
  200.58        2965.50           1438       53560.00    234991.90
  200.60        2965.75           1441       56822.00    249406.10
  200.63        2966.00           1445       61333.00    269358.70
  200.66        2966.25           1448       63758.00    280093.90
  200.69        2966.50           1451       65914.00    289643.80
  200.71        2966.75           1455       68081.00    299247.60
  200.74        2967.00           1458       68812.00    302488.50
  200.77        2967.25           1461       68839.00    302608.10
  200.80        2967.50           1465       68621.00    301641.60
  200.82        2967.75           1468       68348.00    300431.20
  200.85        2968.00           1471       67267.00    295639.50
  200.88        2968.25           1475       64952.00    285382.10
  200.90        2968.50           1478       62053.00    272545.40
  200.93        2968.75           1481       58820.00    258240.70
  200.96        2969.00           1485       54535.00    239299.00
  200.99        2969.25           1488       50736.00    222522.50
  201.01        2969.50           1491       47304.00    207380.30
  201.04        2969.75           1495       43182.00    189210.80
  201.07        2970.00           1498       39881.00    174673.50
  201.10        2970.25           1501       36629.00    160363.60
  201.12        2970.50           1505       32673.00    142971.40
  201.15        2970.75           1508       29315.00    128221.50
  201.18        2971.00           1511       25949.00    113448.70
  201.21        2971.25           1515       21694.00     94791.80
  201.23        2971.50           1518       18471.00     80672.87
  201.26        2971.75           1521       15370.00     67098.93
  201.29        2972.00           1525       11181.00     48778.87
  201.32        2972.25           1528        7846.00     34207.12
  201.34        2972.50           1531        5046.00     21982.14
  201.37        2972.75           1535        2250.00      9782.98
  201.40        2973.00           1538         858.00      3712.68
  201.42        2973.25           1541         243.00      1031.42
  201.45        2973.50           1545          66.00       259.81
  201.48        2973.75           1548          47.00       176.98
  201.51        2974.00           1551          35.00       124.67
  201.53        2974.25           1555          36.00       129.03
  201.56        2974.50           1558          32.00       111.60
  201.59        2974.75           1561          25.00        81.08
  201.61        2975.00           1565          24.00        76.72
  201.64        2975.25           1568          28.00        94.16
  201.67        2975.50           1571          22.00        68.00
  201.70        2975.75           1575          25.00        81.08
  201.72        2976.00           1578          27.00        89.80
  201.75        2976.25           1581          23.00        72.36
  201.78        2976.50           1585          27.00        89.80
  201.80        2976.75           1588          24.00        76.72
  201.83        2977.00           1591          28.00        94.16
  201.86        2977.25           1595          28.00        94.16
  201.89        2977.50           1598          23.00        72.36
  201.91        2977.75           1601          23.00        72.36
  201.94        2978.00           1605          22.00        68.00
  201.97        2978.25           1608          21.00        63.64
  202.00        2978.50           1611          24.00        76.72
  202.02        2978.75           1615          24.00        76.72
  202.05        2979.00           1618          25.00        81.08
  202.08        2979.25           1621          23.00        72.36
  202.10        2979.50           1625          18.00        50.57
  202.13        2979.75           1628          29.00        98.52
  202.16        2980.00           1631          20.00        59.29
  202.19        2980.25           1635          19.00        54.93
  202.21        2980.50           1638          21.00        63.64
  202.24        2980.75           1641          23.00        72.36
  202.27        2981.00           1645          20.00        59.29
  202.29        2981.25           1648          22.00        68.00
  202.32        2981.50           1651          20.00        59.29
  202.35        2981.75           1655          26.00        85.44
  202.38        2982.00           1658          18.00        50.57
  202.40        2982.25           1661          23.00        72.36
  202.43        2982.50           1665          23.00        72.36
  202.46        2982.75           1668          21.00        63.64
  202.49        2983.00           1671          22.00        68.00
  202.51        2983.25           1675          21.00        63.64
  202.54        2983.50           1678          22.00        68.00
  202.57        2983.75           1681          20.00        59.29
  202.59        2984.00           1685          22.00        68.00
HS scan finished at 03:22:47
end
