************************************************************
  HS Scan of (1) Internal mercury lamp
************************************************************
Integration time is 0.2294 seconds per sample
dh190717Tamanrasset 22.79-5.529 3.368395pr865
************************************************************
Dead Time -------------------------  2.8E-08 
Number of Cycles Used -------------  4 
Starting Wavelength (Angstroms) ---  2950 
Final Wavelength (Angstoms) -------  2984 
Wavelength Increment (Angstroms) --  .25 
Filter Wheel #1 Position ---------- (1) Ground quartz diffuser (ND=2.32)
Filter Wheel #2 Position ---------- (1) Neutral Density 0.494



************************************************************
HS scan start time = 03:14:18
Dark Count =  5.7 


Time (GMT)  Wavelength (Ang)  Step Number  Raw Counts  Counts/Second

  194.66        2950.00           1233          20.00        62.34
  194.72        2950.25           1236          20.00        62.34
  194.75        2950.50           1239          21.00        66.70
  194.78        2950.75           1242          18.00        53.62
  194.81        2951.00           1246          20.00        62.34
  194.83        2951.25           1249          17.00        49.26
  194.86        2951.50           1252          23.00        75.41
  194.89        2951.75           1256          18.00        53.62
  194.91        2952.00           1259          20.00        62.34
  194.94        2952.25           1262          15.00        40.54
  194.97        2952.50           1266          19.00        57.98
  195.00        2952.75           1269          23.00        75.41
  195.02        2953.00           1272          21.00        66.70
  195.05        2953.25           1276          17.00        49.26
  195.08        2953.50           1279          21.00        66.70
  195.11        2953.75           1282          18.00        53.62
  195.13        2954.00           1286          15.00        40.54
  195.16        2954.25           1289          25.00        84.13
  195.19        2954.50           1292          19.00        57.98
  195.21        2954.75           1295          18.00        53.62
  195.24        2955.00           1299          17.00        49.26
  195.27        2955.25           1302          18.00        53.62
  195.30        2955.50           1305          18.00        53.62
  195.32        2955.75           1309          21.00        66.70
  195.35        2956.00           1312          19.00        57.98
  195.38        2956.25           1315          19.00        57.98
  195.40        2956.50           1319          20.00        62.34
  195.43        2956.75           1322          20.00        62.34
  195.46        2957.00           1325          24.00        79.77
  195.49        2957.25           1329          19.00        57.98
  195.51        2957.50           1332          21.00        66.70
  195.54        2957.75           1335          16.00        44.90
  195.57        2958.00           1339          18.00        53.62
  195.59        2958.25           1342          22.00        71.06
  195.62        2958.50           1345          16.00        44.90
  195.65        2958.75           1348          20.00        62.34
  195.68        2959.00           1352          18.00        53.62
  195.70        2959.25           1355          17.00        49.26
  195.73        2959.50           1358          19.00        57.98
  195.76        2959.75           1362          25.00        84.13
  195.78        2960.00           1365          24.00        79.77
  195.81        2960.25           1368          35.00       127.72
  195.84        2960.50           1372          32.00       114.65
  195.87        2960.75           1375          44.00       166.96
  195.89        2961.00           1378         135.00       563.65
  195.92        2961.25           1382         592.00      2555.98
  195.95        2961.50           1385        1405.00      6100.87
  195.97        2961.75           1388        2955.00     12861.21
  196.00        2962.00           1392        6141.00     26765.04
  196.03        2962.25           1395        8864.00     38656.90
  196.06        2962.50           1398       12171.00     53109.87
  196.08        2962.75           1402       15974.00     69745.06
  196.11        2963.00           1405       19038.00     83158.98
  196.14        2963.25           1408       22281.00     97367.54
  196.17        2963.50           1412       26197.00    114539.80
  196.19        2963.75           1415       28960.00    126666.00
  196.22        2964.00           1418       32269.00    141199.30
  196.25        2964.25           1422       36391.00    159319.90
  196.28        2964.50           1425       39324.00    172224.80
  196.30        2964.75           1428       42885.00    187905.40
  196.33        2965.00           1431       46156.00    202321.20
  196.36        2965.25           1435       50338.00    220769.00
  196.39        2965.50           1438       53708.00    235648.70
  196.41        2965.75           1441       56662.00    248701.90
  196.44        2966.00           1445       60995.00    267866.00
  196.47        2966.25           1448       63327.00    278188.60
  196.49        2966.50           1451       65527.00    287932.30
  196.52        2966.75           1455       67133.00    295048.60
  196.55        2967.00           1458       67876.00    298341.90
  196.58        2967.25           1461       68227.00    299897.90
  196.60        2967.50           1465       67686.00    297499.70
  196.63        2967.75           1468       67590.00    297074.20
  196.66        2968.00           1471       66415.00    291866.80
  196.69        2968.25           1475       63872.00    280601.90
  196.71        2968.50           1478       61140.00    268507.70
  196.74        2968.75           1481       58033.00    254763.40
  196.77        2969.00           1485       53677.00    235511.80
  196.80        2969.25           1488       49957.00    219087.50
  196.82        2969.50           1491       46628.00    204402.40
  196.85        2969.75           1495       42321.00    185421.00
  196.88        2970.00           1498       39132.00    171379.70
  196.91        2970.25           1501       36207.00    158510.60
  196.93        2970.50           1505       31665.00    138545.60
  196.96        2970.75           1508       28515.00    124712.40
  196.99        2971.00           1511       25385.00    110977.70
  197.01        2971.25           1515       21239.00     92800.99
  197.04        2971.50           1518       17955.00     78416.55
  197.07        2971.75           1521       14864.00     64888.06
  197.10        2972.00           1525       10815.00     47182.17
  197.12        2972.25           1528        7793.00     33978.70
  197.15        2972.50           1531        5109.00     22260.17
  197.18        2972.75           1535        2163.00      9406.58
  197.21        2973.00           1538         852.00      3689.57
  197.23        2973.25           1541         265.00      1130.38
  197.26        2973.50           1545          60.00       236.71
  197.29        2973.75           1548          38.00       140.80
  197.31        2974.00           1551          36.00       132.08
  197.34        2974.25           1555          32.00       114.65
  197.37        2974.50           1558          31.00       110.29
  197.40        2974.75           1561          32.00       114.65
  197.42        2975.00           1565          21.00        66.70
  197.45        2975.25           1568          22.00        71.06
  197.48        2975.50           1571          18.00        53.62
  197.50        2975.75           1575          20.00        62.34
  197.53        2976.00           1578          21.00        66.70
  197.56        2976.25           1581          27.00        92.85
  197.59        2976.50           1585          21.00        66.70
  197.61        2976.75           1588          30.00       105.93
  197.64        2977.00           1591          26.00        88.49
  197.67        2977.25           1595          25.00        84.13
  197.69        2977.50           1598          20.00        62.34
  197.72        2977.75           1601          28.00        97.21
  197.75        2978.00           1605          25.00        84.13
  197.78        2978.25           1608          25.00        84.13
  197.80        2978.50           1611          21.00        66.70
  197.83        2978.75           1615          21.00        66.70
  197.86        2979.00           1618          24.00        79.77
  197.88        2979.25           1621          26.00        88.49
  197.91        2979.50           1625          19.00        57.98
  197.94        2979.75           1628          21.00        66.70
  197.97        2980.00           1631          22.00        71.06
  197.99        2980.25           1635          24.00        79.77
  198.02        2980.50           1638          25.00        84.13
  198.05        2980.75           1641          19.00        57.98
  198.08        2981.00           1645          21.00        66.70
  198.10        2981.25           1648          22.00        71.06
  198.13        2981.50           1651          21.00        66.70
  198.16        2981.75           1655          20.00        62.34
  198.18        2982.00           1658          19.00        57.98
  198.21        2982.25           1661          18.00        53.62
  198.24        2982.50           1665          20.00        62.34
  198.26        2982.75           1668          18.00        53.62
  198.29        2983.00           1671          18.00        53.62
  198.32        2983.25           1675          20.00        62.34
  198.35        2983.50           1678          26.00        88.49
  198.37        2983.75           1681          21.00        66.70
  198.40        2984.00           1685          21.00        66.70
HS scan finished at 03:18:35
end
