************************************************************
  HS Scan of (1) Internal mercury lamp
************************************************************
Integration time is 0.2294 seconds per sample
dh240717Tamanrasset 22.79-5.529 3.271528pr865
************************************************************
Dead Time -------------------------  2.8E-08 
Number of Cycles Used -------------  4 
Starting Wavelength (Angstroms) ---  2950 
Final Wavelength (Angstoms) -------  2984 
Wavelength Increment (Angstroms) --  .25 
Filter Wheel #1 Position ---------- (1) Ground quartz diffuser (ND=2.32)
Filter Wheel #2 Position ---------- (1) Neutral Density 0.494



************************************************************
HS scan start time = 03:16:45
Dark Count =  6.3 


Time (GMT)  Wavelength (Ang)  Step Number  Raw Counts  Counts/Second

  197.11        2950.00           1233          18.00        51.00
  197.17        2950.25           1236          20.00        59.72
  197.20        2950.50           1239          16.00        42.28
  197.22        2950.75           1242          18.00        51.00
  197.25        2951.00           1246          22.00        68.44
  197.28        2951.25           1249          21.00        64.08
  197.31        2951.50           1252          16.00        42.28
  197.33        2951.75           1256          17.00        46.64
  197.36        2952.00           1259          22.00        68.44
  197.39        2952.25           1262          20.00        59.72
  197.41        2952.50           1266          17.00        46.64
  197.44        2952.75           1269          18.00        51.00
  197.47        2953.00           1272          15.00        37.93
  197.50        2953.25           1276          19.00        55.36
  197.52        2953.50           1279          23.00        72.80
  197.55        2953.75           1282          27.00        90.24
  197.58        2954.00           1286          21.00        64.08
  197.60        2954.25           1289          17.00        46.64
  197.63        2954.50           1292          22.00        68.44
  197.66        2954.75           1295          20.00        59.72
  197.69        2955.00           1299          20.00        59.72
  197.71        2955.25           1302          18.00        51.00
  197.74        2955.50           1305          21.00        64.08
  197.77        2955.75           1309          21.00        64.08
  197.79        2956.00           1312          17.00        46.64
  197.82        2956.25           1315          17.00        46.64
  197.85        2956.50           1319          21.00        64.08
  197.88        2956.75           1322          21.00        64.08
  197.90        2957.00           1325          21.00        64.08
  197.93        2957.25           1329          19.00        55.36
  197.96        2957.50           1332          19.00        55.36
  197.98        2957.75           1335          21.00        64.08
  198.01        2958.00           1339          17.00        46.64
  198.04        2958.25           1342          24.00        77.16
  198.07        2958.50           1345          21.00        64.08
  198.09        2958.75           1348          19.00        55.36
  198.12        2959.00           1352          19.00        55.36
  198.15        2959.25           1355          20.00        59.72
  198.18        2959.50           1358          17.00        46.64
  198.20        2959.75           1362          21.00        64.08
  198.23        2960.00           1365          26.00        85.88
  198.26        2960.25           1368          33.00       116.39
  198.28        2960.50           1372          36.00       129.47
  198.31        2960.75           1375          42.00       155.62
  198.34        2961.00           1378          85.00       343.07
  198.37        2961.25           1382         491.00      2113.03
  198.39        2961.50           1385        1248.00      5413.64
  198.42        2961.75           1388        2649.00     11523.77
  198.45        2962.00           1392        5495.00     23942.37
  198.47        2962.25           1395        8203.00     35766.84
  198.50        2962.50           1398       11222.00     48958.53
  198.53        2962.75           1402       15013.00     65537.34
  198.56        2963.00           1405       18146.00     79250.21
  198.58        2963.25           1408       21207.00     92658.13
  198.61        2963.50           1412       25052.00    109514.50
  198.64        2963.75           1415       28068.00    122747.70
  198.67        2964.00           1418       31068.00    135920.40
  198.69        2964.25           1422       35017.00    153275.00
  198.72        2964.50           1425       38141.00    167015.90
  198.75        2964.75           1428       41196.00    180463.60
  198.78        2965.00           1431       44343.00    194326.90
  198.80        2965.25           1435       48250.00    211553.30
  198.83        2965.50           1438       51395.00    225432.00
  198.86        2965.75           1441       54357.00    238513.00
  198.88        2966.00           1445       58621.00    257361.00
  198.91        2966.25           1448       61133.00    268474.00
  198.94        2966.50           1451       63326.00    278181.50
  198.97        2966.75           1455       65185.00    286414.60
  198.99        2967.00           1458       65703.00    288709.40
  199.02        2967.25           1461       65990.00    289981.00
  199.05        2967.50           1465       65808.00    289174.60
  199.08        2967.75           1468       65594.00    288226.50
  199.10        2968.00           1471       64342.00    282680.70
  199.13        2968.25           1475       61756.00    271231.20
  199.16        2968.50           1478       58923.00    258696.70
  199.19        2968.75           1481       55995.00    245751.00
  199.21        2969.00           1485       52138.00    228712.40
  199.24        2969.25           1488       48806.00    214006.10
  199.27        2969.50           1491       45546.00    199629.30
  199.30        2969.75           1495       41397.00    181348.80
  199.32        2970.00           1498       38132.00    166976.30
  199.35        2970.25           1501       34931.00    152896.90
  199.38        2970.50           1505       30694.00    134277.70
  199.41        2970.75           1508       27661.00    120961.30
  199.43        2971.00           1511       24442.00    106839.20
  199.46        2971.25           1515       20118.00     87886.89
  199.49        2971.50           1518       17118.00     74749.58
  199.51        2971.75           1521       14247.00     62186.22
  199.54        2972.00           1525       10293.00     44898.17
  199.57        2972.25           1528        7464.00     32539.22
  199.60        2972.50           1531        4768.00     20769.27
  199.62        2972.75           1535        2024.00      8797.72
  199.65        2973.00           1538         784.00      3390.47
  199.68        2973.25           1541         229.00       970.82
  199.71        2973.50           1545          54.00       207.93
  199.73        2973.75           1548          37.00       133.83
  199.76        2974.00           1551          33.00       116.39
  199.79        2974.25           1555          27.00        90.24
  199.82        2974.50           1558          33.00       116.39
  199.84        2974.75           1561          21.00        64.08
  199.87        2975.00           1565          23.00        72.80
  199.90        2975.25           1568          21.00        64.08
  199.92        2975.50           1571          21.00        64.08
  199.95        2975.75           1575          21.00        64.08
  199.98        2976.00           1578          24.00        77.16
  200.01        2976.25           1581          21.00        64.08
  200.03        2976.50           1585          26.00        85.88
  200.06        2976.75           1588          24.00        77.16
  200.09        2977.00           1591          18.00        51.00
  200.11        2977.25           1595          23.00        72.80
  200.14        2977.50           1598          16.00        42.28
  200.17        2977.75           1601           0.00         2.00
  200.20        2978.00           1605          26.00        85.88
  200.22        2978.25           1608          23.00        72.80
  200.25        2978.50           1611          20.00        59.72
  200.28        2978.75           1615          24.00        77.16
  200.31        2979.00           1618          20.00        59.72
  200.33        2979.25           1621          22.00        68.44
  200.36        2979.50           1625          17.00        46.64
  200.39        2979.75           1628          24.00        77.16
  200.41        2980.00           1631          23.00        72.80
  200.44        2980.25           1635          23.00        72.80
  200.47        2980.50           1638          26.00        85.88
  200.50        2980.75           1641          22.00        68.44
  200.52        2981.00           1645          23.00        72.80
  200.55        2981.25           1648          22.00        68.44
  200.58        2981.50           1651          18.00        51.00
  200.60        2981.75           1655          18.00        51.00
  200.63        2982.00           1658          21.00        64.08
  200.66        2982.25           1661          17.00        46.64
  200.69        2982.50           1665          18.00        51.00
  200.71        2982.75           1668          15.00        37.93
  200.74        2983.00           1671          22.00        68.44
  200.77        2983.25           1675          22.00        68.44
  200.79        2983.50           1678          23.00        72.80
  200.82        2983.75           1681          21.00        64.08
  200.85        2984.00           1685          23.00        72.80
HS scan finished at 03:21:02
end
