************************************************************
  HS Scan of (1) Internal mercury lamp
************************************************************
Integration time is 0.2294 seconds per sample
dh030818Tamanrasset 22.79-5.529 4.974364pr865
************************************************************
Dead Time -------------------------  2.8E-08 
Number of Cycles Used -------------  4 
Starting Wavelength (Angstroms) ---  2950 
Final Wavelength (Angstoms) -------  2984 
Wavelength Increment (Angstroms) --  .25 
Filter Wheel #1 Position ---------- (1) Ground quartz diffuser (ND=2.32)
Filter Wheel #2 Position ---------- (1) Neutral Density 0.494



************************************************************
HS scan start time = 03:21:03
Dark Count =  7.4 


Time (GMT)  Wavelength (Ang)  Step Number  Raw Counts  Counts/Second

  201.40        2950.00           1233          18.00        46.21
  201.47        2950.25           1236          23.00        68.00
  201.49        2950.50           1239          21.00        59.29
  201.52        2950.75           1242          19.00        50.57
  201.55        2951.00           1246          23.00        68.00
  201.57        2951.25           1249          20.00        54.93
  201.60        2951.50           1252          22.00        63.64
  201.63        2951.75           1256          24.00        72.36
  201.66        2952.00           1259          21.00        59.29
  201.68        2952.25           1262          20.00        54.93
  201.71        2952.50           1266          20.00        54.93
  201.74        2952.75           1269          19.00        50.57
  201.76        2953.00           1272          16.00        37.49
  201.79        2953.25           1276          22.00        63.64
  201.82        2953.50           1279          17.00        41.85
  201.85        2953.75           1282          28.00        89.80
  201.87        2954.00           1286          19.00        50.57
  201.90        2954.25           1289          19.00        50.57
  201.93        2954.50           1292          17.00        41.85
  201.95        2954.75           1295          23.00        68.00
  201.98        2955.00           1299          20.00        54.93
  202.01        2955.25           1302          22.00        63.64
  202.04        2955.50           1305          23.00        68.00
  202.06        2955.75           1309          21.00        59.29
  202.09        2956.00           1312          23.00        68.00
  202.12        2956.25           1315          27.00        85.44
  202.14        2956.50           1319          21.00        59.29
  202.17        2956.75           1322          20.00        54.93
  202.20        2957.00           1325          24.00        72.36
  202.23        2957.25           1329          23.00        68.00
  202.25        2957.50           1332          19.00        50.57
  202.28        2957.75           1335          22.00        63.64
  202.31        2958.00           1339          20.00        54.93
  202.33        2958.25           1342          19.00        50.57
  202.36        2958.50           1345          20.00        54.93
  202.39        2958.75           1348          24.00        72.36
  202.42        2959.00           1352          18.00        46.21
  202.44        2959.25           1355          21.00        59.29
  202.47        2959.50           1358          22.00        63.64
  202.50        2959.75           1362          27.00        85.44
  202.52        2960.00           1365          23.00        68.00
  202.55        2960.25           1368          31.00       102.88
  202.58        2960.50           1372          39.00       137.75
  202.61        2960.75           1375          58.00       220.58
  202.63        2961.00           1378         199.00       835.24
  202.66        2961.25           1382         826.00      3568.80
  202.69        2961.50           1385        1966.00      8539.97
  202.71        2961.75           1388        3785.00     16474.91
  202.74        2962.00           1392        7147.00     31150.09
  202.77        2962.25           1395       10361.00     45190.54
  202.80        2962.50           1398       13578.00     59255.16
  202.82        2962.75           1402       17735.00     77445.88
  202.85        2963.00           1405       20937.00     91470.24
  202.88        2963.25           1408       24061.00    105163.60
  202.91        2963.50           1412       27907.00    122036.20
  202.93        2963.75           1415       30882.00    135098.60
  202.96        2964.00           1418       34220.00    149766.20
  202.99        2964.25           1422       38140.00    167006.70
  203.02        2964.50           1425       41563.00    182075.00
  203.04        2964.75           1428       44872.00    196653.60
  203.07        2965.00           1431       47979.00    210353.00
  203.10        2965.25           1435       52247.00    229188.80
  203.12        2965.50           1438       55333.00    242820.60
  203.15        2965.75           1441       58570.00    257130.60
  203.18        2966.00           1445       62734.00    275555.60
  203.21        2966.25           1448       65167.00    286330.00
  203.23        2966.50           1451       66876.00    293902.20
  203.26        2966.75           1455       68471.00    300972.10
  203.29        2967.00           1458       69196.00    304186.60
  203.32        2967.25           1461       69030.00    303450.60
  203.34        2967.50           1465       68720.00    302076.10
  203.37        2967.75           1468       68221.00    299863.80
  203.40        2968.00           1471       66410.00    291837.10
  203.43        2968.25           1475       63633.00    279536.00
  203.45        2968.50           1478       60559.00    265929.20
  203.48        2968.75           1481       57115.00    250697.00
  203.51        2969.00           1485       52835.00    231785.40
  203.53        2969.25           1488       49503.00    217076.50
  203.56        2969.50           1491       45936.00    201343.80
  203.59        2969.75           1495       41731.00    182814.90
  203.62        2970.00           1498       38454.00    168388.40
  203.64        2970.25           1501       35174.00    153960.50
  203.67        2970.50           1505       30886.00    135116.10
  203.70        2970.75           1508       27649.00    120903.80
  203.73        2971.00           1511       24624.00    107632.50
  203.75        2971.25           1515       20108.00     87838.27
  203.78        2971.50           1518       17029.00     74355.16
  203.81        2971.75           1521       13699.00     59784.39
  203.84        2972.00           1525        9675.00     42192.80
  203.86        2972.25           1528        6846.00     29835.73
  203.89        2972.50           1531        4266.00     18573.74
  203.92        2972.75           1535        1641.00      7122.61
  203.94        2973.00           1538         548.00      2356.74
  203.97        2973.25           1541         150.00       621.63
  204.00        2973.50           1545          51.00       190.06
  204.03        2973.75           1548          38.00       133.39
  204.05        2974.00           1551          38.00       133.39
  204.08        2974.25           1555          33.00       111.60
  204.11        2974.50           1558          27.00        85.44
  204.13        2974.75           1561          33.00       111.60
  204.16        2975.00           1565          20.00        54.93
  204.19        2975.25           1568          26.00        81.08
  204.22        2975.50           1571          28.00        89.80
  204.24        2975.75           1575          19.00        50.57
  204.27        2976.00           1578          27.00        85.44
  204.30        2976.25           1581          22.00        63.64
  204.32        2976.50           1585          24.00        72.36
  204.35        2976.75           1588          23.00        68.00
  204.38        2977.00           1591          23.00        68.00
  204.41        2977.25           1595          26.00        81.08
  204.43        2977.50           1598          31.00       102.88
  204.46        2977.75           1601          18.00        46.21
  204.49        2978.00           1605          21.00        59.29
  204.51        2978.25           1608          19.00        50.57
  204.54        2978.50           1611          25.00        76.72
  204.57        2978.75           1615          22.00        63.64
  204.60        2979.00           1618          24.00        72.36
  204.62        2979.25           1621          21.00        59.29
  204.65        2979.50           1625          20.00        54.93
  204.68        2979.75           1628          27.00        85.44
  204.70        2980.00           1631          24.00        72.36
  204.73        2980.25           1635          22.00        63.64
  204.76        2980.50           1638          19.00        50.57
  204.79        2980.75           1641          21.00        59.29
  204.81        2981.00           1645          22.00        63.64
  204.84        2981.25           1648          28.00        89.80
  204.87        2981.50           1651          19.00        50.57
  204.89        2981.75           1655          20.00        54.93
  204.92        2982.00           1658          27.00        85.44
  204.95        2982.25           1661          19.00        50.57
  204.98        2982.50           1665          21.00        59.29
  205.00        2982.75           1668          19.00        50.57
  205.03        2983.00           1671          19.00        50.57
  205.06        2983.25           1675          24.00        72.36
  205.08        2983.50           1678          18.00        46.21
  205.11        2983.75           1681          24.00        72.36
  205.14        2984.00           1685          17.00        41.85
HS scan finished at 03:25:20
end
