************************************************************
  HS Scan of (1) Internal mercury lamp
************************************************************
Integration time is 0.2294 seconds per sample
dh010818Tamanrasset 22.79-5.529 4.974364pr865
************************************************************
Dead Time -------------------------  2.8E-08 
Number of Cycles Used -------------  4 
Starting Wavelength (Angstroms) ---  2950 
Final Wavelength (Angstoms) -------  2984 
Wavelength Increment (Angstroms) --  .25 
Filter Wheel #1 Position ---------- (1) Ground quartz diffuser (ND=2.32)
Filter Wheel #2 Position ---------- (1) Neutral Density 0.494



************************************************************
HS scan start time = 03:20:02
Dark Count =  4.6 


Time (GMT)  Wavelength (Ang)  Step Number  Raw Counts  Counts/Second

  200.38        2950.00           1233          18.00        58.41
  200.45        2950.25           1236          19.00        62.77
  200.48        2950.50           1239          16.00        49.69
  200.50        2950.75           1242          18.00        58.41
  200.53        2951.00           1246          18.00        58.41
  200.56        2951.25           1249          24.00        84.57
  200.58        2951.50           1252          22.00        75.85
  200.61        2951.75           1256          21.00        71.49
  200.64        2952.00           1259          19.00        62.77
  200.67        2952.25           1262          17.00        54.05
  200.69        2952.50           1266          23.00        80.21
  200.72        2952.75           1269          13.00        36.62
  200.75        2953.00           1272          21.00        71.49
  200.77        2953.25           1276          14.00        40.98
  200.80        2953.50           1279          24.00        84.57
  200.83        2953.75           1282          15.00        45.34
  200.86        2954.00           1286          23.00        80.21
  200.88        2954.25           1289          18.00        58.41
  200.91        2954.50           1292          17.00        54.05
  200.94        2954.75           1295          17.00        54.05
  200.96        2955.00           1299          19.00        62.77
  200.99        2955.25           1302          20.00        67.13
  201.02        2955.50           1305          22.00        75.85
  201.05        2955.75           1309          15.00        45.34
  201.07        2956.00           1312          19.00        62.77
  201.10        2956.25           1315          19.00        62.77
  201.13        2956.50           1319          24.00        84.57
  201.15        2956.75           1322          21.00        71.49
  201.18        2957.00           1325          18.00        58.41
  201.21        2957.25           1329          20.00        67.13
  201.24        2957.50           1332          16.00        49.69
  201.26        2957.75           1335          21.00        71.49
  201.29        2958.00           1339          22.00        75.85
  201.32        2958.25           1342          21.00        71.49
  201.34        2958.50           1345          20.00        67.13
  201.37        2958.75           1348          18.00        58.41
  201.40        2959.00           1352          16.00        49.69
  201.43        2959.25           1355          17.00        54.05
  201.45        2959.50           1358          19.00        62.77
  201.48        2959.75           1362          25.00        88.93
  201.51        2960.00           1365          24.00        84.57
  201.53        2960.25           1368          32.00       119.44
  201.56        2960.50           1372          25.00        88.93
  201.59        2960.75           1375          37.00       141.24
  201.62        2961.00           1378         117.00       489.98
  201.64        2961.25           1382         652.00      2822.37
  201.67        2961.50           1385        1575.00      6847.00
  201.70        2961.75           1388        3007.00     13092.86
  201.72        2962.00           1392        5929.00     25844.33
  201.75        2962.25           1395        8574.00     37394.85
  201.78        2962.50           1398       11377.00     49643.50
  201.81        2962.75           1402       15027.00     65606.03
  201.83        2963.00           1405       17794.00     77716.45
  201.86        2963.25           1408       20768.00     90742.04
  201.89        2963.50           1412       24280.00    106136.20
  201.92        2963.75           1415       27101.00    118511.20
  201.94        2964.00           1418       29996.00    131219.70
  201.97        2964.25           1422       33794.00    147905.90
  202.00        2964.50           1425       36623.00    160345.10
  202.02        2964.75           1428       39350.00    172344.10
  202.05        2965.00           1431       42321.00    185425.80
  202.08        2965.25           1435       46382.00    203322.50
  202.11        2965.50           1438       49218.00    215831.40
  202.13        2965.75           1441       52266.00    229285.10
  202.16        2966.00           1445       56017.00    245855.80
  202.19        2966.25           1448       58317.00    256024.10
  202.22        2966.50           1451       60382.00    265158.40
  202.24        2966.75           1455       61972.00    272194.80
  202.27        2967.00           1458       62520.00    274620.60
  202.30        2967.25           1461       62927.00    276422.40
  202.32        2967.50           1465       62539.00    274704.70
  202.35        2967.75           1468       61811.00    271482.20
  202.38        2968.00           1471       60851.00    267233.60
  202.41        2968.25           1475       58311.00    255997.60
  202.43        2968.50           1478       55617.00    244088.00
  202.46        2968.75           1481       52856.00    231890.50
  202.49        2969.00           1485       48932.00    214569.50
  202.52        2969.25           1488       45898.00    201188.60
  202.54        2969.50           1491       42919.00    188060.00
  202.57        2969.75           1495       38834.00    170073.00
  202.60        2970.00           1498       35745.00    156483.60
  202.63        2970.25           1501       32716.00    143168.20
  202.65        2970.50           1505       28909.00    126446.90
  202.68        2970.75           1508       25931.00    113377.70
  202.71        2971.00           1511       23087.00    100905.40
  202.74        2971.25           1515       19376.00     84644.15
  202.76        2971.50           1518       16393.00     71583.61
  202.79        2971.75           1521       13624.00     59468.61
  202.82        2972.00           1525        9950.00     43406.70
  202.84        2972.25           1528        7047.00     30725.64
  202.87        2972.50           1531        4437.00     19332.17
  202.90        2972.75           1535        1887.00      8207.64
  202.93        2973.00           1538         792.00      3432.76
  202.95        2973.25           1541         212.00       904.12
  202.98        2973.50           1545          51.00       202.27
  203.01        2973.75           1548          37.00       141.24
  203.03        2974.00           1551          40.00       154.32
  203.06        2974.25           1555          28.00       102.01
  203.09        2974.50           1558          33.00       123.80
  203.12        2974.75           1561          24.00        84.57
  203.14        2975.00           1565          27.00        97.65
  203.17        2975.25           1568          22.00        75.85
  203.20        2975.50           1571          22.00        75.85
  203.22        2975.75           1575          25.00        88.93
  203.25        2976.00           1578          24.00        84.57
  203.28        2976.25           1581          21.00        71.49
  203.31        2976.50           1585          22.00        75.85
  203.33        2976.75           1588          18.00        58.41
  203.36        2977.00           1591          20.00        67.13
  203.39        2977.25           1595          26.00        93.29
  203.41        2977.50           1598          19.00        62.77
  203.44        2977.75           1601          19.00        62.77
  203.47        2978.00           1605          20.00        67.13
  203.50        2978.25           1608          26.00        93.29
  203.52        2978.50           1611          20.00        67.13
  203.55        2978.75           1615          17.00        54.05
  203.58        2979.00           1618          19.00        62.77
  203.60        2979.25           1621          19.00        62.77
  203.63        2979.50           1625          22.00        75.85
  203.66        2979.75           1628          19.00        62.77
  203.69        2980.00           1631          19.00        62.77
  203.71        2980.25           1635          20.00        67.13
  203.74        2980.50           1638          20.00        67.13
  203.77        2980.75           1641          22.00        75.85
  203.79        2981.00           1645          21.00        71.49
  203.82        2981.25           1648          17.00        54.05
  203.85        2981.50           1651          20.00        67.13
  203.88        2981.75           1655          22.00        75.85
  203.90        2982.00           1658          23.00        80.21
  203.93        2982.25           1661          20.00        67.13
  203.96        2982.50           1665          19.00        62.77
  203.98        2982.75           1668          19.00        62.77
  204.01        2983.00           1671          22.00        75.85
  204.04        2983.25           1675          20.00        67.13
  204.07        2983.50           1678          14.00        40.98
  204.09        2983.75           1681          21.00        71.49
  204.12        2984.00           1685          22.00        75.85
HS scan finished at 03:24:18
end
