************************************************************
  HS Scan of (1) Internal mercury lamp
************************************************************
Integration time is 0.2294 seconds per sample
dh020818Tamanrasset 22.79-5.529 4.974364pr865
************************************************************
Dead Time -------------------------  2.8E-08 
Number of Cycles Used -------------  4 
Starting Wavelength (Angstroms) ---  2950 
Final Wavelength (Angstoms) -------  2984 
Wavelength Increment (Angstroms) --  .25 
Filter Wheel #1 Position ---------- (1) Ground quartz diffuser (ND=2.32)
Filter Wheel #2 Position ---------- (1) Neutral Density 0.494



************************************************************
HS scan start time = 03:20:01
Dark Count =  5.9 


Time (GMT)  Wavelength (Ang)  Step Number  Raw Counts  Counts/Second

  200.38        2950.00           1233          18.00        52.75
  200.44        2950.25           1236          20.00        61.46
  200.47        2950.50           1239          18.00        52.75
  200.49        2950.75           1242          20.00        61.46
  200.52        2951.00           1246          25.00        83.26
  200.55        2951.25           1249          18.00        52.75
  200.58        2951.50           1252          18.00        52.75
  200.60        2951.75           1256          21.00        65.82
  200.63        2952.00           1259          23.00        74.54
  200.66        2952.25           1262          21.00        65.82
  200.68        2952.50           1266          17.00        48.39
  200.71        2952.75           1269          23.00        74.54
  200.74        2953.00           1272          17.00        48.39
  200.77        2953.25           1276          19.00        57.11
  200.79        2953.50           1279          24.00        78.90
  200.82        2953.75           1282          19.00        57.11
  200.85        2954.00           1286          17.00        48.39
  200.87        2954.25           1289          22.00        70.18
  200.90        2954.50           1292          22.00        70.18
  200.93        2954.75           1295          19.00        57.11
  200.96        2955.00           1299          19.00        57.11
  200.98        2955.25           1302          22.00        70.18
  201.01        2955.50           1305          18.00        52.75
  201.04        2955.75           1309          16.00        44.03
  201.06        2956.00           1312          25.00        83.26
  201.09        2956.25           1315          20.00        61.46
  201.12        2956.50           1319          20.00        61.46
  201.15        2956.75           1322          20.00        61.46
  201.17        2957.00           1325          17.00        48.39
  201.20        2957.25           1329          20.00        61.46
  201.23        2957.50           1332          18.00        52.75
  201.25        2957.75           1335          23.00        74.54
  201.28        2958.00           1339          26.00        87.62
  201.31        2958.25           1342          21.00        65.82
  201.34        2958.50           1345          18.00        52.75
  201.36        2958.75           1348          20.00        61.46
  201.39        2959.00           1352          22.00        70.18
  201.42        2959.25           1355          17.00        48.39
  201.44        2959.50           1358          24.00        78.90
  201.47        2959.75           1362          20.00        61.46
  201.50        2960.00           1365          26.00        87.62
  201.53        2960.25           1368          28.00        96.34
  201.55        2960.50           1372          35.00       126.85
  201.58        2960.75           1375          44.00       166.09
  201.61        2961.00           1378         111.00       458.16
  201.63        2961.25           1382         617.00      2664.10
  201.66        2961.50           1385        1476.00      6409.61
  201.69        2961.75           1388        3074.00     13379.47
  201.72        2962.00           1392        6229.00     27148.36
  201.74        2962.25           1395        9108.00     39722.01
  201.77        2962.50           1398       12373.00     53992.20
  201.80        2962.75           1402       16102.00     70304.35
  201.83        2963.00           1405       19242.00     84051.55
  201.85        2963.25           1408       22599.00     98760.52
  201.88        2963.50           1412       26403.00    115442.70
  201.91        2963.75           1415       29272.00    128034.90
  201.93        2964.00           1418       32665.00    142938.40
  201.96        2964.25           1422       36556.00    160044.70
  201.99        2964.50           1425       39716.00    173949.40
  202.02        2964.75           1428       43016.00    188481.60
  202.04        2965.00           1431       46284.00    202884.70
  202.07        2965.25           1435       50413.00    221099.10
  202.10        2965.50           1438       53798.00    236045.40
  202.13        2965.75           1441       56732.00    249010.50
  202.15        2966.00           1445       61095.00    268307.70
  202.18        2966.25           1448       63494.00    278927.10
  202.21        2966.50           1451       65573.00    288135.20
  202.24        2966.75           1455       67135.00    295056.60
  202.26        2967.00           1458       67765.00    297849.00
  202.29        2967.25           1461       67969.00    298753.30
  202.32        2967.50           1465       67606.00    297144.20
  202.34        2967.75           1468       67105.00    294923.70
  202.37        2968.00           1471       65508.00    287847.30
  202.40        2968.25           1475       62761.00    275681.70
  202.43        2968.50           1478       59897.00    263006.90
  202.45        2968.75           1481       56918.00    249832.70
  202.48        2969.00           1485       52526.00    230427.50
  202.51        2969.25           1488       49042.00    215049.10
  202.54        2969.50           1491       45983.00    201557.60
  202.56        2969.75           1495       41356.00    181170.00
  202.59        2970.00           1498       37982.00    166318.10
  202.62        2970.25           1501       34963.00    153039.30
  202.65        2970.50           1505       30701.00    134310.20
  202.67        2970.75           1508       27577.00    120594.40
  202.70        2971.00           1511       24330.00    106349.80
  202.73        2971.25           1515       20272.00     88563.28
  202.75        2971.50           1518       17074.00     74558.72
  202.78        2971.75           1521       14073.00     61426.83
  202.81        2972.00           1525       10226.00     44607.12
  202.84        2972.25           1528        7063.00     30789.83
  202.86        2972.50           1531        4317.00     18802.84
  202.89        2972.75           1535        1752.00      7613.22
  202.92        2973.00           1538         596.00      2572.55
  202.95        2973.25           1541         165.00       693.56
  202.97        2973.50           1545          61.00       240.19
  203.00        2973.75           1548          41.00       153.01
  203.03        2974.00           1551          32.00       113.78
  203.05        2974.25           1555          32.00       113.78
  203.08        2974.50           1558          26.00        87.62
  203.11        2974.75           1561          27.00        91.98
  203.14        2975.00           1565          31.00       109.42
  203.16        2975.25           1568          24.00        78.90
  203.19        2975.50           1571          25.00        83.26
  203.22        2975.75           1575          21.00        65.82
  203.24        2976.00           1578          26.00        87.62
  203.27        2976.25           1581          22.00        70.18
  203.30        2976.50           1585          19.00        57.11
  203.32        2976.75           1588          19.00        57.11
  203.35        2977.00           1591          26.00        87.62
  203.38        2977.25           1595          24.00        78.90
  203.41        2977.50           1598          24.00        78.90
  203.43        2977.75           1601          24.00        78.90
  203.46        2978.00           1605          22.00        70.18
  203.49        2978.25           1608          19.00        57.11
  203.51        2978.50           1611          19.00        57.11
  203.54        2978.75           1615          23.00        74.54
  203.57        2979.00           1618          23.00        74.54
  203.60        2979.25           1621          25.00        83.26
  203.62        2979.50           1625          22.00        70.18
  203.65        2979.75           1628          23.00        74.54
  203.68        2980.00           1631          23.00        74.54
  203.70        2980.25           1635          24.00        78.90
  203.73        2980.50           1638          19.00        57.11
  203.76        2980.75           1641          19.00        57.11
  203.79        2981.00           1645          19.00        57.11
  203.81        2981.25           1648          27.00        91.98
  203.84        2981.50           1651          19.00        57.11
  203.87        2981.75           1655          20.00        61.46
  203.89        2982.00           1658          20.00        61.46
  203.92        2982.25           1661          20.00        61.46
  203.95        2982.50           1665          23.00        74.54
  203.98        2982.75           1668          21.00        65.82
  204.00        2983.00           1671          21.00        65.82
  204.03        2983.25           1675          18.00        52.75
  204.06        2983.50           1678          16.00        44.03
  204.08        2983.75           1681          21.00        65.82
  204.11        2984.00           1685          20.00        61.46
HS scan finished at 03:24:18
end
