************************************************************
  HS Scan of (1) Internal mercury lamp
************************************************************
Integration time is 0.2294 seconds per sample
dh040818Tamanrasset 22.79-5.529 4.974364pr865
************************************************************
Dead Time -------------------------  2.8E-08 
Number of Cycles Used -------------  4 
Starting Wavelength (Angstroms) ---  2950 
Final Wavelength (Angstoms) -------  2984 
Wavelength Increment (Angstroms) --  .25 
Filter Wheel #1 Position ---------- (1) Ground quartz diffuser (ND=2.32)
Filter Wheel #2 Position ---------- (1) Neutral Density 0.494



************************************************************
HS scan start time = 03:21:03
Dark Count =  4.2 


Time (GMT)  Wavelength (Ang)  Step Number  Raw Counts  Counts/Second

  201.41        2950.00           1233          21.00        73.23
  201.47        2950.25           1236          18.00        60.16
  201.50        2950.50           1239          18.00        60.16
  201.52        2950.75           1242          19.00        64.52
  201.55        2951.00           1246          19.00        64.52
  201.58        2951.25           1249          20.00        68.88
  201.60        2951.50           1252          17.00        55.80
  201.63        2951.75           1256          21.00        73.23
  201.66        2952.00           1259          23.00        81.95
  201.69        2952.25           1262          22.00        77.59
  201.71        2952.50           1266          21.00        73.23
  201.74        2952.75           1269          20.00        68.88
  201.77        2953.00           1272          22.00        77.59
  201.79        2953.25           1276          20.00        68.88
  201.82        2953.50           1279          22.00        77.59
  201.85        2953.75           1282          18.00        60.16
  201.88        2954.00           1286          20.00        68.88
  201.90        2954.25           1289          20.00        68.88
  201.93        2954.50           1292          21.00        73.23
  201.96        2954.75           1295          19.00        64.52
  201.98        2955.00           1299          20.00        68.88
  202.01        2955.25           1302          16.00        51.44
  202.04        2955.50           1305          22.00        77.59
  202.07        2955.75           1309          18.00        60.16
  202.09        2956.00           1312          24.00        86.31
  202.12        2956.25           1315          23.00        81.95
  202.15        2956.50           1319          18.00        60.16
  202.17        2956.75           1322          25.00        90.67
  202.20        2957.00           1325          16.00        51.44
  202.23        2957.25           1329          21.00        73.23
  202.26        2957.50           1332          18.00        60.16
  202.28        2957.75           1335          20.00        68.88
  202.31        2958.00           1339          20.00        68.88
  202.34        2958.25           1342          17.00        55.80
  202.36        2958.50           1345          19.00        64.52
  202.39        2958.75           1348          21.00        73.23
  202.42        2959.00           1352          21.00        73.23
  202.45        2959.25           1355          17.00        55.80
  202.47        2959.50           1358          25.00        90.67
  202.50        2959.75           1362          22.00        77.59
  202.53        2960.00           1365          28.00       103.75
  202.55        2960.25           1368          30.00       112.47
  202.58        2960.50           1372          36.00       138.62
  202.61        2960.75           1375          44.00       173.50
  202.64        2961.00           1378         124.00       522.24
  202.66        2961.25           1382         624.00      2702.04
  202.69        2961.50           1385        1561.00      6787.69
  202.72        2961.75           1388        2982.00     12985.54
  202.74        2962.00           1392        6086.00     26531.47
  202.77        2962.25           1395        8780.00     38296.49
  202.80        2962.50           1398       11842.00     51678.04
  202.83        2962.75           1402       15644.00     68307.50
  202.85        2963.00           1405       18625.00     81356.88
  202.88        2963.25           1408       21488.00     93898.69
  202.91        2963.50           1412       25258.00    110427.20
  202.94        2963.75           1415       28162.00    123169.50
  202.96        2964.00           1418       31198.00    136500.70
  202.99        2964.25           1422       34979.00    153117.10
  203.02        2964.50           1425       38024.00    166510.40
  203.04        2964.75           1428       41108.00    180085.40
  203.07        2965.00           1431       44112.00    193318.20
  203.10        2965.25           1435       48172.00    211218.50
  203.13        2965.50           1438       51225.00    224690.80
  203.16        2965.75           1441       54013.00    237002.70
  203.18        2966.00           1445       57937.00    254345.50
  203.21        2966.25           1448       60426.00    265354.90
  203.24        2966.50           1451       62460.00    274356.80
  203.26        2966.75           1455       63708.00    279882.30
  203.29        2967.00           1458       64029.00    281303.80
  203.32        2967.25           1461       64341.00    282685.50
  203.35        2967.50           1465       64089.00    281569.50
  203.37        2967.75           1468       63757.00    280099.30
  203.40        2968.00           1471       62105.00    272785.30
  203.43        2968.25           1475       59761.00    262412.80
  203.46        2968.50           1478       57130.00    250777.40
  203.48        2968.75           1481       54022.00    237042.40
  203.51        2969.00           1485       49573.00    217399.60
  203.54        2969.25           1488       46735.00    204880.80
  203.56        2969.50           1491       43567.00    190916.70
  203.59        2969.75           1495       39288.00    172072.90
  203.62        2970.00           1498       36386.00    159304.50
  203.65        2970.25           1501       33313.00    145793.60
  203.67        2970.50           1505       29271.00    128038.00
  203.70        2970.75           1508       26285.00    114932.50
  203.73        2971.00           1511       23424.00    102384.60
  203.76        2971.25           1515       19328.00     84435.66
  203.78        2971.50           1518       16368.00     71475.96
  203.81        2971.75           1521       13414.00     58551.89
  203.84        2972.00           1525        9680.00     42228.63
  203.87        2972.25           1528        6888.00     30033.09
  203.89        2972.50           1531        4277.00     18635.70
  203.92        2972.75           1535        1789.00      7781.99
  203.95        2973.00           1538         677.00      2933.11
  203.97        2973.25           1541         192.00       818.68
  204.00        2973.50           1545          45.00       177.86
  204.03        2973.75           1548          44.00       173.50
  204.06        2974.00           1551          30.00       112.47
  204.08        2974.25           1555          25.00        90.67
  204.11        2974.50           1558          27.00        99.39
  204.14        2974.75           1561          20.00        68.88
  204.16        2975.00           1565          21.00        73.23
  204.19        2975.25           1568          24.00        86.31
  204.22        2975.50           1571          19.00        64.52
  204.25        2975.75           1575          21.00        73.23
  204.27        2976.00           1578          27.00        99.39
  204.30        2976.25           1581          23.00        81.95
  204.33        2976.50           1585          27.00        99.39
  204.35        2976.75           1588          22.00        77.59
  204.38        2977.00           1591          22.00        77.59
  204.41        2977.25           1595          23.00        81.95
  204.44        2977.50           1598          24.00        86.31
  204.46        2977.75           1601          22.00        77.59
  204.49        2978.00           1605          19.00        64.52
  204.52        2978.25           1608          25.00        90.67
  204.54        2978.50           1611          21.00        73.23
  204.57        2978.75           1615          20.00        68.88
  204.60        2979.00           1618          15.00        47.08
  204.63        2979.25           1621          23.00        81.95
  204.65        2979.50           1625          24.00        86.31
  204.68        2979.75           1628          19.00        64.52
  204.71        2980.00           1631          26.00        95.03
  204.74        2980.25           1635          21.00        73.23
  204.76        2980.50           1638          22.00        77.59
  204.79        2980.75           1641          17.00        55.80
  204.82        2981.00           1645          25.00        90.67
  204.84        2981.25           1648          18.00        60.16
  204.87        2981.50           1651          21.00        73.23
  204.90        2981.75           1655          22.00        77.59
  204.93        2982.00           1658          21.00        73.23
  204.95        2982.25           1661          17.00        55.80
  204.98        2982.50           1665          18.00        60.16
  205.01        2982.75           1668          18.00        60.16
  205.03        2983.00           1671          18.00        60.16
  205.06        2983.25           1675          16.00        51.44
  205.09        2983.50           1678          18.00        60.16
  205.12        2983.75           1681          19.00        64.52
  205.14        2984.00           1685          24.00        86.31
HS scan finished at 03:25:20
end
