************************************************************
  HS Scan of (1) Internal mercury lamp
************************************************************
Integration time is 0.2294 seconds per sample
dh310718Tamanrasset 22.79-5.529 4.974364pr865
************************************************************
Dead Time -------------------------  2.8E-08 
Number of Cycles Used -------------  4 
Starting Wavelength (Angstroms) ---  2950 
Final Wavelength (Angstoms) -------  2984 
Wavelength Increment (Angstroms) --  .25 
Filter Wheel #1 Position ---------- (1) Ground quartz diffuser (ND=2.32)
Filter Wheel #2 Position ---------- (1) Neutral Density 0.494



************************************************************
HS scan start time = 03:19:10
Dark Count =  7 


Time (GMT)  Wavelength (Ang)  Step Number  Raw Counts  Counts/Second

  199.52        2950.00           1233          28.00        91.54
  199.58        2950.25           1236          17.00        43.59
  199.61        2950.50           1239          23.00        69.75
  199.64        2950.75           1242          22.00        65.39
  199.66        2951.00           1246          18.00        47.95
  199.69        2951.25           1249          25.00        78.47
  199.72        2951.50           1252          21.00        61.03
  199.75        2951.75           1256          19.00        52.31
  199.77        2952.00           1259          21.00        61.03
  199.80        2952.25           1262          20.00        56.67
  199.83        2952.50           1266          23.00        69.75
  199.85        2952.75           1269          22.00        65.39
  199.88        2953.00           1272          18.00        47.95
  199.91        2953.25           1276          20.00        56.67
  199.94        2953.50           1279          20.00        56.67
  199.96        2953.75           1282          25.00        78.47
  199.99        2954.00           1286          19.00        52.31
  200.02        2954.25           1289          19.00        52.31
  200.05        2954.50           1292          20.00        56.67
  200.07        2954.75           1295          20.00        56.67
  200.10        2955.00           1299          22.00        65.39
  200.13        2955.25           1302          20.00        56.67
  200.15        2955.50           1305          22.00        65.39
  200.18        2955.75           1309          21.00        61.03
  200.21        2956.00           1312          19.00        52.31
  200.23        2956.25           1315          24.00        74.11
  200.26        2956.50           1319          23.00        69.75
  200.29        2956.75           1322          21.00        61.03
  200.32        2957.00           1325          23.00        69.75
  200.34        2957.25           1329          24.00        74.11
  200.37        2957.50           1332          19.00        52.31
  200.40        2957.75           1335          20.00        56.67
  200.43        2958.00           1339          21.00        61.03
  200.45        2958.25           1342          25.00        78.47
  200.48        2958.50           1345          19.00        52.31
  200.51        2958.75           1348          16.00        39.23
  200.53        2959.00           1352          18.00        47.95
  200.56        2959.25           1355          19.00        52.31
  200.59        2959.50           1358          22.00        65.39
  200.62        2959.75           1362          22.00        65.39
  200.64        2960.00           1365          25.00        78.47
  200.67        2960.25           1368          31.00       104.62
  200.70        2960.50           1372          34.00       117.70
  200.73        2960.75           1375          51.00       191.81
  200.75        2961.00           1378         134.00       553.63
  200.78        2961.25           1382         694.00      2995.02
  200.81        2961.50           1385        1626.00      7058.94
  200.83        2961.75           1388        3182.00     13845.82
  200.86        2962.00           1392        6502.00     28335.46
  200.89        2962.25           1395        9321.00     40647.81
  200.92        2962.50           1398       12551.00     54765.70
  200.94        2962.75           1402       16507.00     72072.06
  200.97        2963.00           1405       19802.00     86499.58
  201.00        2963.25           1408       23034.00    100662.60
  201.02        2963.50           1412       27116.00    118566.50
  201.05        2963.75           1415       30263.00    132381.70
  201.08        2964.00           1418       33620.00    147130.60
  201.11        2964.25           1422       37596.00    164614.90
  201.13        2964.50           1425       40774.00    178602.40
  201.16        2964.75           1428       43880.00    192283.60
  201.19        2965.00           1431       47084.00    206407.50
  201.22        2965.25           1435       51494.00    225866.00
  201.24        2965.50           1438       54766.00    240317.00
  201.27        2965.75           1441       58113.00    255111.40
  201.30        2966.00           1445       62063.00    272587.00
  201.33        2966.25           1448       64624.00    283926.60
  201.35        2966.50           1451       66745.00    293323.40
  201.38        2966.75           1455       68727.00    302108.90
  201.41        2967.00           1458       69181.00    304121.90
  201.44        2967.25           1461       69440.00    305270.40
  201.46        2967.50           1465       69265.00    304494.40
  201.49        2967.75           1468       68555.00    301346.30
  201.52        2968.00           1471       67109.00    294936.50
  201.54        2968.25           1475       64389.00    282885.70
  201.57        2968.50           1478       61219.00    268851.50
  201.60        2968.75           1481       58173.00    255376.70
  201.63        2969.00           1485       53887.00    236433.70
  201.65        2969.25           1488       50507.00    221509.10
  201.68        2969.50           1491       47014.00    206098.80
  201.71        2969.75           1495       42590.00    186600.20
  201.74        2970.00           1498       39108.00    171268.40
  201.76        2970.25           1501       35971.00    157467.00
  201.79        2970.50           1505       31665.00    138539.90
  201.82        2970.75           1508       28353.00    123995.60
  201.85        2971.00           1511       25150.00    109941.20
  201.87        2971.25           1515       20907.00     91340.56
  201.90        2971.50           1518       17619.00     76939.77
  201.93        2971.75           1521       14603.00     63740.52
  201.96        2972.00           1525       10370.00     45231.62
  201.98        2972.25           1528        7406.00     32282.88
  202.01        2972.50           1531        4673.00     20351.61
  202.04        2972.75           1535        1878.00      8157.92
  202.06        2973.00           1538         674.00      2907.82
  202.09        2973.25           1541         190.00       797.75
  202.12        2973.50           1545          57.00       217.96
  202.15        2973.75           1548          45.00       165.65
  202.17        2974.00           1551          34.00       117.70
  202.20        2974.25           1555          28.00        91.54
  202.23        2974.50           1558          26.00        82.82
  202.25        2974.75           1561          31.00       104.62
  202.28        2975.00           1565          25.00        78.47
  202.31        2975.25           1568          24.00        74.11
  202.34        2975.50           1571          28.00        91.54
  202.36        2975.75           1575          20.00        56.67
  202.39        2976.00           1578          25.00        78.47
  202.42        2976.25           1581          24.00        74.11
  202.44        2976.50           1585          26.00        82.82
  202.47        2976.75           1588          21.00        61.03
  202.50        2977.00           1591          19.00        52.31
  202.53        2977.25           1595          24.00        74.11
  202.55        2977.50           1598          22.00        65.39
  202.58        2977.75           1601          20.00        56.67
  202.61        2978.00           1605          24.00        74.11
  202.63        2978.25           1608          22.00        65.39
  202.66        2978.50           1611          21.00        61.03
  202.69        2978.75           1615          23.00        69.75
  202.72        2979.00           1618          29.00        95.90
  202.74        2979.25           1621          22.00        65.39
  202.77        2979.50           1625          24.00        74.11
  202.80        2979.75           1628          23.00        69.75
  202.82        2980.00           1631          26.00        82.82
  202.85        2980.25           1635          27.00        87.18
  202.88        2980.50           1638          23.00        69.75
  202.91        2980.75           1641          21.00        61.03
  202.93        2981.00           1645          24.00        74.11
  202.96        2981.25           1648          21.00        61.03
  202.99        2981.50           1651          20.00        56.67
  203.01        2981.75           1655          23.00        69.75
  203.04        2982.00           1658          22.00        65.39
  203.07        2982.25           1661          21.00        61.03
  203.10        2982.50           1665          19.00        52.31
  203.12        2982.75           1668          26.00        82.82
  203.15        2983.00           1671          21.00        61.03
  203.18        2983.25           1675          17.00        43.59
  203.20        2983.50           1678          21.00        61.03
  203.23        2983.75           1681          21.00        61.03
  203.26        2984.00           1685          24.00        74.11
HS scan finished at 03:23:27
end
