************************************************************
  HS Scan of (1) Internal mercury lamp
************************************************************
Integration time is 0.2294 seconds per sample
dh290717Tamanrasset 22.79-5.529 3.322511pr865
************************************************************
Dead Time -------------------------  2.8E-08 
Number of Cycles Used -------------  4 
Starting Wavelength (Angstroms) ---  2950 
Final Wavelength (Angstoms) -------  2984 
Wavelength Increment (Angstroms) --  .25 
Filter Wheel #1 Position ---------- (1) Ground quartz diffuser (ND=2.32)
Filter Wheel #2 Position ---------- (1) Neutral Density 0.494



************************************************************
HS scan start time = 03:18:18
Dark Count =  6 


Time (GMT)  Wavelength (Ang)  Step Number  Raw Counts  Counts/Second

  198.65        2950.00           1233          15.00        39.23
  198.71        2950.25           1236          19.00        56.67
  198.74        2950.50           1239          23.00        74.11
  198.77        2950.75           1242          19.00        56.67
  198.79        2951.00           1246          20.00        61.03
  198.82        2951.25           1249          19.00        56.67
  198.85        2951.50           1252          19.00        56.67
  198.88        2951.75           1256          16.00        43.59
  198.90        2952.00           1259          21.00        65.39
  198.93        2952.25           1262          22.00        69.75
  198.96        2952.50           1266          24.00        78.47
  198.98        2952.75           1269          19.00        56.67
  199.01        2953.00           1272          19.00        56.67
  199.04        2953.25           1276          19.00        56.67
  199.07        2953.50           1279          22.00        69.75
  199.09        2953.75           1282          19.00        56.67
  199.12        2954.00           1286          19.00        56.67
  199.15        2954.25           1289          15.00        39.23
  199.18        2954.50           1292          19.00        56.67
  199.20        2954.75           1295          18.00        52.31
  199.23        2955.00           1299          19.00        56.67
  199.26        2955.25           1302          23.00        74.11
  199.28        2955.50           1305          22.00        69.75
  199.31        2955.75           1309          19.00        56.67
  199.34        2956.00           1312          18.00        52.31
  199.37        2956.25           1315          19.00        56.67
  199.39        2956.50           1319          20.00        61.03
  199.42        2956.75           1322          18.00        52.31
  199.45        2957.00           1325          14.00        34.87
  199.47        2957.25           1329          17.00        47.95
  199.50        2957.50           1332          16.00        43.59
  199.53        2957.75           1335          19.00        56.67
  199.56        2958.00           1339          23.00        74.11
  199.58        2958.25           1342          18.00        52.31
  199.61        2958.50           1345          17.00        47.95
  199.64        2958.75           1348          18.00        52.31
  199.66        2959.00           1352          22.00        69.75
  199.69        2959.25           1355          22.00        69.75
  199.72        2959.50           1358          24.00        78.47
  199.75        2959.75           1362          18.00        52.31
  199.77        2960.00           1365          26.00        87.18
  199.80        2960.25           1368          33.00       117.70
  199.83        2960.50           1372          29.00       100.26
  199.86        2960.75           1375          41.00       152.57
  199.88        2961.00           1378         107.00       440.28
  199.91        2961.25           1382         546.00      2354.12
  199.94        2961.50           1385        1321.00      5733.27
  199.96        2961.75           1388        2747.00     11952.56
  199.99        2962.00           1392        5727.00     24956.41
  200.02        2962.25           1395        8532.00     37205.26
  200.05        2962.50           1398       11686.00     50988.18
  200.07        2962.75           1402       15331.00     66930.02
  200.10        2963.00           1405       18553.00     81033.71
  200.13        2963.25           1408       21515.00     94009.12
  200.16        2963.50           1412       25517.00    111555.40
  200.18        2963.75           1415       28642.00    125268.60
  200.21        2964.00           1418       31785.00    139071.40
  200.24        2964.25           1422       35747.00    156486.30
  200.26        2964.50           1425       38778.00    169820.40
  200.29        2964.75           1428       41896.00    183547.70
  200.32        2965.00           1431       45243.00    198295.00
  200.35        2965.25           1435       49167.00    215600.20
  200.37        2965.50           1438       52554.00    230550.70
  200.40        2965.75           1441       55478.00    243467.50
  200.43        2966.00           1445       59555.00    261493.50
  200.46        2966.25           1448       62080.00    272666.60
  200.48        2966.50           1451       64117.00    281685.50
  200.51        2966.75           1455       66202.00    290921.60
  200.54        2967.00           1458       66806.00    293598.20
  200.57        2967.25           1461       67242.00    295530.40
  200.59        2967.50           1465       67122.00    294998.60
  200.62        2967.75           1468       66517.00    292317.50
  200.65        2968.00           1471       65482.00    287731.70
  200.67        2968.25           1475       62965.00    276584.50
  200.70        2968.50           1478       60571.00    265988.50
  200.73        2968.75           1481       57478.00    252308.00
  200.76        2969.00           1485       53236.00    233562.60
  200.78        2969.25           1488       49532.00    217210.70
  200.81        2969.50           1491       46608.00    204312.90
  200.84        2969.75           1495       42275.00    185217.00
  200.87        2970.00           1498       39041.00    170977.90
  200.89        2970.25           1501       35683.00    156204.80
  200.92        2970.50           1505       31357.00    137191.20
  200.95        2970.75           1508       28306.00    123793.70
  200.98        2971.00           1511       25213.00    110222.00
  201.00        2971.25           1515       21399.00     93500.78
  201.03        2971.50           1518       18227.00     79606.19
  201.06        2971.75           1521       15228.00     66479.34
  201.08        2972.00           1525       11134.00     48575.18
  201.11        2972.25           1528        8107.00     35348.83
  201.14        2972.50           1531        5409.00     23568.30
  201.17        2972.75           1535        2411.00     10486.95
  201.19        2973.00           1538         987.00      4276.89
  201.22        2973.25           1541         320.00      1368.84
  201.25        2973.50           1545          66.00       261.55
  201.28        2973.75           1548          40.00       148.21
  201.30        2974.00           1551          36.00       130.78
  201.33        2974.25           1555          29.00       100.26
  201.36        2974.50           1558          28.00        95.90
  201.38        2974.75           1561          27.00        91.54
  201.41        2975.00           1565          25.00        82.82
  201.44        2975.25           1568          26.00        87.18
  201.47        2975.50           1571          22.00        69.75
  201.49        2975.75           1575          23.00        74.11
  201.52        2976.00           1578          20.00        61.03
  201.55        2976.25           1581          26.00        87.18
  201.57        2976.50           1585          27.00        91.54
  201.60        2976.75           1588          24.00        78.47
  201.63        2977.00           1591          23.00        74.11
  201.66        2977.25           1595          21.00        65.39
  201.68        2977.50           1598          22.00        69.75
  201.71        2977.75           1601          27.00        91.54
  201.74        2978.00           1605          22.00        69.75
  201.77        2978.25           1608          22.00        69.75
  201.79        2978.50           1611          26.00        87.18
  201.82        2978.75           1615          21.00        65.39
  201.85        2979.00           1618          26.00        87.18
  201.87        2979.25           1621          24.00        78.47
  201.90        2979.50           1625          22.00        69.75
  201.93        2979.75           1628          24.00        78.47
  201.96        2980.00           1631          24.00        78.47
  201.98        2980.25           1635          18.00        52.31
  202.01        2980.50           1638          23.00        74.11
  202.04        2980.75           1641          25.00        82.82
  202.06        2981.00           1645          26.00        87.18
  202.09        2981.25           1648          23.00        74.11
  202.12        2981.50           1651          20.00        61.03
  202.15        2981.75           1655          21.00        65.39
  202.17        2982.00           1658          24.00        78.47
  202.20        2982.25           1661          22.00        69.75
  202.23        2982.50           1665          20.00        61.03
  202.25        2982.75           1668          19.00        56.67
  202.28        2983.00           1671          18.00        52.31
  202.31        2983.25           1675          21.00        65.39
  202.33        2983.50           1678          18.00        52.31
  202.36        2983.75           1681          22.00        69.75
  202.39        2984.00           1685          22.00        69.75
HS scan finished at 03:22:35
end
