************************************************************
  HS Scan of (1) Internal mercury lamp
************************************************************
Integration time is 0.2294 seconds per sample
dh310717Tamanrasset 22.79-5.529 3.531542pr865
************************************************************
Dead Time -------------------------  2.8E-08 
Number of Cycles Used -------------  4 
Starting Wavelength (Angstroms) ---  2950 
Final Wavelength (Angstoms) -------  2984 
Wavelength Increment (Angstroms) --  .25 
Filter Wheel #1 Position ---------- (1) Ground quartz diffuser (ND=2.32)
Filter Wheel #2 Position ---------- (1) Neutral Density 0.494



************************************************************
HS scan start time = 03:19:51
Dark Count =  7.2 


Time (GMT)  Wavelength (Ang)  Step Number  Raw Counts  Counts/Second

  200.21        2950.00           1233          21.00        60.16
  200.28        2950.25           1236          22.00        64.52
  200.30        2950.50           1239          20.00        55.80
  200.33        2950.75           1242          21.00        60.16
  200.36        2951.00           1246          18.00        47.08
  200.38        2951.25           1249          17.00        42.72
  200.41        2951.50           1252          17.00        42.72
  200.44        2951.75           1256          19.00        51.44
  200.47        2952.00           1259          24.00        73.23
  200.49        2952.25           1262          18.00        47.08
  200.52        2952.50           1266          22.00        64.52
  200.55        2952.75           1269          21.00        60.16
  200.58        2953.00           1272          20.00        55.80
  200.60        2953.25           1276          25.00        77.59
  200.63        2953.50           1279          21.00        60.16
  200.66        2953.75           1282          21.00        60.16
  200.68        2954.00           1286          20.00        55.80
  200.71        2954.25           1289          21.00        60.16
  200.74        2954.50           1292          22.00        64.52
  200.77        2954.75           1295          24.00        73.23
  200.79        2955.00           1299          25.00        77.59
  200.82        2955.25           1302          17.00        42.72
  200.85        2955.50           1305          19.00        51.44
  200.87        2955.75           1309          24.00        73.23
  200.90        2956.00           1312          21.00        60.16
  200.93        2956.25           1315          21.00        60.16
  200.96        2956.50           1319          19.00        51.44
  200.98        2956.75           1322          17.00        42.72
  201.01        2957.00           1325          20.00        55.80
  201.04        2957.25           1329          19.00        51.44
  201.06        2957.50           1332          16.00        38.36
  201.09        2957.75           1335          21.00        60.16
  201.12        2958.00           1339          24.00        73.23
  201.15        2958.25           1342          20.00        55.80
  201.17        2958.50           1345          20.00        55.80
  201.20        2958.75           1348          17.00        42.72
  201.23        2959.00           1352          27.00        86.31
  201.25        2959.25           1355          20.00        55.80
  201.28        2959.50           1358          21.00        60.16
  201.31        2959.75           1362          26.00        81.95
  201.34        2960.00           1365          29.00        95.03
  201.36        2960.25           1368          32.00       108.11
  201.39        2960.50           1372          39.00       138.62
  201.42        2960.75           1375          46.00       169.14
  201.44        2961.00           1378         133.00       548.40
  201.47        2961.25           1382         669.00      2885.15
  201.50        2961.50           1385        1639.00      7114.76
  201.53        2961.75           1388        3343.00     14547.34
  201.55        2962.00           1392        6692.00     29164.17
  201.58        2962.25           1395        9636.00     42023.26
  201.61        2962.50           1398       12948.00     56500.82
  201.64        2962.75           1402       17016.00     74299.15
  201.66        2963.00           1405       20347.00     88886.18
  201.69        2963.25           1408       23374.00    102152.30
  201.72        2963.50           1412       27603.00    120702.80
  201.74        2963.75           1415       30935.00    135332.30
  201.77        2964.00           1418       34117.00    149314.30
  201.80        2964.25           1422       38196.00    167254.00
  201.83        2964.50           1425       41539.00    181970.10
  201.85        2964.75           1428       45110.00    197703.50
  201.88        2965.00           1431       48371.00    212083.10
  201.91        2965.25           1435       52867.00    231927.60
  201.94        2965.50           1438       56323.00    247196.80
  201.96        2965.75           1441       59703.00    262142.90
  201.99        2966.00           1445       64355.00    282734.30
  202.02        2966.25           1448       66693.00    293092.00
  202.05        2966.50           1451       68859.00    302693.20
  202.07        2966.75           1455       70008.00    307788.50
  202.10        2967.00           1458       70764.00    311141.80
  202.13        2967.25           1461       70889.00    311696.30
  202.16        2967.50           1465       70542.00    310157.00
  202.18        2967.75           1468       69813.00    306923.60
  202.21        2968.00           1471       68350.00    300436.50
  202.24        2968.25           1475       65340.00    287097.30
  202.27        2968.50           1478       62262.00    273467.00
  202.29        2968.75           1481       58921.00    258683.90
  202.32        2969.00           1485       54801.00    240470.70
  202.35        2969.25           1488       50947.00    223450.40
  202.38        2969.50           1491       47411.00    207848.70
  202.40        2969.75           1495       43067.00    188700.60
  202.43        2970.00           1498       39641.00    173613.50
  202.46        2970.25           1501       36463.00    159629.90
  202.48        2970.50           1505       31996.00    139993.20
  202.51        2970.75           1508       28656.00    125324.80
  202.54        2971.00           1511       25572.00    111791.40
  202.57        2971.25           1515       21312.00     93114.29
  202.59        2971.50           1518       18101.00     79049.24
  202.62        2971.75           1521       15124.00     66019.05
  202.65        2972.00           1525       10633.00     46380.16
  202.68        2972.25           1528        7484.00     32622.64
  202.70        2972.50           1531        4844.00     21097.03
  202.73        2972.75           1535        1919.00      8335.86
  202.76        2973.00           1538         697.00      3007.23
  202.79        2973.25           1541         221.00       932.02
  202.81        2973.50           1545          63.00       243.24
  202.84        2973.75           1548          40.00       142.98
  202.87        2974.00           1551          35.00       121.19
  202.89        2974.25           1555          34.00       116.83
  202.92        2974.50           1558          31.00       103.75
  202.95        2974.75           1561          26.00        81.95
  202.98        2975.00           1565          24.00        73.23
  203.00        2975.25           1568          21.00        60.16
  203.03        2975.50           1571          17.00        42.72
  203.06        2975.75           1575          25.00        77.59
  203.08        2976.00           1578          24.00        73.23
  203.11        2976.25           1581          26.00        81.95
  203.14        2976.50           1585          29.00        95.03
  203.17        2976.75           1588          22.00        64.52
  203.19        2977.00           1591          23.00        68.88
  203.22        2977.25           1595          23.00        68.88
  203.25        2977.50           1598          28.00        90.67
  203.28        2977.75           1601          21.00        60.16
  203.30        2978.00           1605          27.00        86.31
  203.33        2978.25           1608          24.00        73.23
  203.36        2978.50           1611          26.00        81.95
  203.38        2978.75           1615          23.00        68.88
  203.41        2979.00           1618          21.00        60.16
  203.44        2979.25           1621          22.00        64.52
  203.47        2979.50           1625          18.00        47.08
  203.49        2979.75           1628          28.00        90.67
  203.52        2980.00           1631          24.00        73.23
  203.55        2980.25           1635          23.00        68.88
  203.57        2980.50           1638          23.00        68.88
  203.60        2980.75           1641          27.00        86.31
  203.63        2981.00           1645          22.00        64.52
  203.66        2981.25           1648          23.00        68.88
  203.68        2981.50           1651          23.00        68.88
  203.71        2981.75           1655          22.00        64.52
  203.74        2982.00           1658          23.00        68.88
  203.76        2982.25           1661          21.00        60.16
  203.79        2982.50           1665          24.00        73.23
  203.82        2982.75           1668          23.00        68.88
  203.85        2983.00           1671          18.00        47.08
  203.87        2983.25           1675          17.00        42.72
  203.90        2983.50           1678          23.00        68.88
  203.93        2983.75           1681          21.00        60.16
  203.96        2984.00           1685          20.00        55.80
HS scan finished at 03:24:09
end
