************************************************************
  HS Scan of (1) Internal mercury lamp
************************************************************
Integration time is 0.2294 seconds per sample
dh060818Tamanrasset 22.79-5.529 4.974364pr865
************************************************************
Dead Time -------------------------  2.8E-08 
Number of Cycles Used -------------  4 
Starting Wavelength (Angstroms) ---  2950 
Final Wavelength (Angstoms) -------  2984 
Wavelength Increment (Angstroms) --  .25 
Filter Wheel #1 Position ---------- (1) Ground quartz diffuser (ND=2.32)
Filter Wheel #2 Position ---------- (1) Neutral Density 0.494



************************************************************
HS scan start time = 03:22:05
Dark Count =  6 


Time (GMT)  Wavelength (Ang)  Step Number  Raw Counts  Counts/Second

  202.45        2950.00           1233          21.00        65.39
  202.51        2950.25           1236          20.00        61.03
  202.54        2950.50           1239          19.00        56.67
  202.56        2950.75           1242          22.00        69.75
  202.59        2951.00           1246          19.00        56.67
  202.62        2951.25           1249          17.00        47.95
  202.65        2951.50           1252          18.00        52.31
  202.67        2951.75           1256          19.00        56.67
  202.70        2952.00           1259          18.00        52.31
  202.73        2952.25           1262          17.00        47.95
  202.75        2952.50           1266          17.00        47.95
  202.78        2952.75           1269          20.00        61.03
  202.81        2953.00           1272          18.00        52.31
  202.84        2953.25           1276          18.00        52.31
  202.86        2953.50           1279          21.00        65.39
  202.89        2953.75           1282          15.00        39.23
  202.92        2954.00           1286          22.00        69.75
  202.94        2954.25           1289          17.00        47.95
  202.97        2954.50           1292          24.00        78.47
  203.00        2954.75           1295          16.00        43.59
  203.03        2955.00           1299          19.00        56.67
  203.05        2955.25           1302          20.00        61.03
  203.08        2955.50           1305          16.00        43.59
  203.11        2955.75           1309          22.00        69.75
  203.13        2956.00           1312          17.00        47.95
  203.16        2956.25           1315          20.00        61.03
  203.19        2956.50           1319          20.00        61.03
  203.22        2956.75           1322          22.00        69.75
  203.24        2957.00           1325          22.00        69.75
  203.27        2957.25           1329          16.00        43.59
  203.30        2957.50           1332          21.00        65.39
  203.32        2957.75           1335          20.00        61.03
  203.35        2958.00           1339          16.00        43.59
  203.38        2958.25           1342          20.00        61.03
  203.41        2958.50           1345          17.00        47.95
  203.43        2958.75           1348          16.00        43.59
  203.46        2959.00           1352          18.00        52.31
  203.49        2959.25           1355          24.00        78.47
  203.51        2959.50           1358          18.00        52.31
  203.54        2959.75           1362          20.00        61.03
  203.57        2960.00           1365          27.00        91.54
  203.60        2960.25           1368          30.00       104.62
  203.62        2960.50           1372          35.00       126.42
  203.65        2960.75           1375          42.00       156.93
  203.68        2961.00           1378         158.00       662.61
  203.70        2961.25           1382         710.00      3069.14
  203.73        2961.50           1385        1650.00      7167.96
  203.76        2961.75           1388        3143.00     13680.04
  203.79        2962.00           1392        6335.00     27610.70
  203.81        2962.25           1395        9095.00     39664.78
  203.84        2962.50           1398       12163.00     53073.58
  203.87        2962.75           1402       16061.00     70124.48
  203.90        2963.00           1405       19074.00     83315.32
  203.92        2963.25           1408       22124.00     96678.10
  203.95        2963.50           1412       25900.00    113235.50
  203.98        2963.75           1415       28814.00    126023.70
  204.01        2964.00           1418       31740.00    138873.80
  204.03        2964.25           1422       35774.00    156605.00
  204.06        2964.50           1425       38776.00    169811.60
  204.09        2964.75           1428       42119.00    184529.90
  204.11        2965.00           1431       45031.00    197360.50
  204.14        2965.25           1435       49019.00    214947.20
  204.17        2965.50           1438       52273.00    229309.80
  204.20        2965.75           1441       55265.00    242526.30
  204.22        2966.00           1445       59053.00    259273.00
  204.25        2966.25           1448       61277.00    269112.60
  204.28        2966.50           1451       63584.00    279325.20
  204.31        2966.75           1455       64913.00    285211.10
  204.33        2967.00           1458       65680.00    288608.80
  204.36        2967.25           1461       65891.00    289543.70
  204.39        2967.50           1465       65521.00    287904.40
  204.41        2967.75           1468       64995.00    285574.30
  204.44        2968.00           1471       63856.00    280529.70
  204.47        2968.25           1475       61009.00    267926.60
  204.50        2968.50           1478       58286.00    255880.80
  204.52        2968.75           1481       55257.00    242490.90
  204.55        2969.00           1485       50848.00    223018.70
  204.58        2969.25           1488       48032.00    210593.00
  204.61        2969.50           1491       44714.00    195963.40
  204.63        2969.75           1495       40475.00    177290.30
  204.66        2970.00           1498       37506.00    164223.30
  204.69        2970.25           1501       34373.00    150445.00
  204.72        2970.50           1505       30137.00    131832.70
  204.74        2970.75           1508       26897.00    117609.90
  204.77        2971.00           1511       23860.00    104288.40
  204.80        2971.25           1515       19851.00     86718.59
  204.82        2971.50           1518       16810.00     73402.68
  204.85        2971.75           1521       13866.00     60520.96
  204.88        2972.00           1525        9980.00     43531.67
  204.91        2972.25           1528        7011.00     30562.33
  204.93        2972.50           1531        4576.00     19932.66
  204.96        2972.75           1535        1940.00      8432.68
  204.99        2973.00           1538         745.00      3221.74
  205.02        2973.25           1541         195.00       823.91
  205.04        2973.50           1545          48.00       183.09
  205.07        2973.75           1548          39.00       143.85
  205.10        2974.00           1551          44.00       165.65
  205.12        2974.25           1555          32.00       113.34
  205.15        2974.50           1558          26.00        87.18
  205.18        2974.75           1561          22.00        69.75
  205.21        2975.00           1565          22.00        69.75
  205.23        2975.25           1568          27.00        91.54
  205.26        2975.50           1571          23.00        74.11
  205.29        2975.75           1575          24.00        78.47
  205.32        2976.00           1578          23.00        74.11
  205.34        2976.25           1581          23.00        74.11
  205.37        2976.50           1585          24.00        78.47
  205.40        2976.75           1588          24.00        78.47
  205.42        2977.00           1591          22.00        69.75
  205.45        2977.25           1595          23.00        74.11
  205.48        2977.50           1598          25.00        82.82
  205.51        2977.75           1601          25.00        82.82
  205.53        2978.00           1605          23.00        74.11
  205.56        2978.25           1608          21.00        65.39
  205.59        2978.50           1611          23.00        74.11
  205.62        2978.75           1615          27.00        91.54
  205.64        2979.00           1618          23.00        74.11
  205.67        2979.25           1621          23.00        74.11
  205.70        2979.50           1625          19.00        56.67
  205.72        2979.75           1628          20.00        61.03
  205.75        2980.00           1631          27.00        91.54
  205.78        2980.25           1635          22.00        69.75
  205.81        2980.50           1638          24.00        78.47
  205.83        2980.75           1641          21.00        65.39
  205.86        2981.00           1645          22.00        69.75
  205.89        2981.25           1648          22.00        69.75
  205.91        2981.50           1651          22.00        69.75
  205.94        2981.75           1655          17.00        47.95
  205.97        2982.00           1658          19.00        56.67
  206.00        2982.25           1661          21.00        65.39
  206.02        2982.50           1665          21.00        65.39
  206.05        2982.75           1668          21.00        65.39
  206.08        2983.00           1671          21.00        65.39
  206.10        2983.25           1675          20.00        61.03
  206.13        2983.50           1678          23.00        74.11
  206.16        2983.75           1681          18.00        52.31
  206.19        2984.00           1685          21.00        65.39
HS scan finished at 03:26:22
end
