************************************************************
  HS Scan of (1) Internal mercury lamp
************************************************************
Integration time is 0.2294 seconds per sample
dh030817Tamanrasset 22.79-5.529 3.297019pr865
************************************************************
Dead Time -------------------------  2.8E-08 
Number of Cycles Used -------------  4 
Starting Wavelength (Angstroms) ---  2950 
Final Wavelength (Angstoms) -------  2984 
Wavelength Increment (Angstroms) --  .25 
Filter Wheel #1 Position ---------- (1) Ground quartz diffuser (ND=2.32)
Filter Wheel #2 Position ---------- (1) Neutral Density 0.494



************************************************************
HS scan start time = 03:21:17
Dark Count =  5 


Time (GMT)  Wavelength (Ang)  Step Number  Raw Counts  Counts/Second

  201.63        2950.00           1233          23.00        78.47
  201.70        2950.25           1236          19.00        61.03
  201.72        2950.50           1239          22.00        74.11
  201.75        2950.75           1242          20.00        65.39
  201.78        2951.00           1246          17.00        52.31
  201.81        2951.25           1249          19.00        61.03
  201.83        2951.50           1252          16.00        47.95
  201.86        2951.75           1256          19.00        61.03
  201.89        2952.00           1259          18.00        56.67
  201.91        2952.25           1262          17.00        52.31
  201.94        2952.50           1266          17.00        52.31
  201.97        2952.75           1269          22.00        74.11
  202.00        2953.00           1272          22.00        74.11
  202.02        2953.25           1276          16.00        47.95
  202.05        2953.50           1279          12.00        30.51
  202.08        2953.75           1282          22.00        74.11
  202.10        2954.00           1286          20.00        65.39
  202.13        2954.25           1289          20.00        65.39
  202.16        2954.50           1292          18.00        56.67
  202.19        2954.75           1295          21.00        69.75
  202.21        2955.00           1299          16.00        47.95
  202.24        2955.25           1302          19.00        61.03
  202.27        2955.50           1305          18.00        56.67
  202.29        2955.75           1309          20.00        65.39
  202.32        2956.00           1312          16.00        47.95
  202.35        2956.25           1315          22.00        74.11
  202.38        2956.50           1319          18.00        56.67
  202.40        2956.75           1322          17.00        52.31
  202.43        2957.00           1325          14.00        39.23
  202.46        2957.25           1329          17.00        52.31
  202.48        2957.50           1332          21.00        69.75
  202.51        2957.75           1335          20.00        65.39
  202.54        2958.00           1339          19.00        61.03
  202.57        2958.25           1342          18.00        56.67
  202.59        2958.50           1345          26.00        91.54
  202.62        2958.75           1348          23.00        78.47
  202.65        2959.00           1352          23.00        78.47
  202.67        2959.25           1355          21.00        69.75
  202.70        2959.50           1358          28.00       100.26
  202.73        2959.75           1362          26.00        91.54
  202.76        2960.00           1365          29.00       104.62
  202.78        2960.25           1368          35.00       130.78
  202.81        2960.50           1372          32.00       117.70
  202.84        2960.75           1375          47.00       183.09
  202.86        2961.00           1378         136.00       571.06
  202.89        2961.25           1382         753.00      3260.98
  202.92        2961.50           1385        1663.00      7229.01
  202.95        2961.75           1388        3396.00     14788.16
  202.97        2962.00           1392        6585.00     28706.59
  203.00        2962.25           1395        9414.00     41062.88
  203.03        2962.50           1398       12401.00     54118.57
  203.06        2962.75           1402       16496.00     72032.66
  203.08        2963.00           1405       19363.00     84585.44
  203.11        2963.25           1408       22596.00     98751.31
  203.14        2963.50           1412       26283.00    114920.20
  203.17        2963.75           1415       29384.00    128530.60
  203.19        2964.00           1418       32675.00    142986.30
  203.22        2964.25           1422       36461.00    159630.80
  203.25        2964.50           1425       39604.00    173460.30
  203.28        2964.75           1428       42983.00    188340.20
  203.30        2965.00           1431       45892.00    201160.40
  203.33        2965.25           1435       49841.00    218578.70
  203.36        2965.50           1438       53200.00    233408.00
  203.38        2965.75           1441       56455.00    247790.00
  203.41        2966.00           1445       60285.00    264727.50
  203.44        2966.25           1448       62707.00    275446.60
  203.47        2966.50           1451       65035.00    285755.90
  203.49        2966.75           1455       66093.00    290443.10
  203.52        2967.00           1458       66607.00    292720.70
  203.55        2967.25           1461       66925.00    294130.00
  203.58        2967.50           1465       66622.00    292787.20
  203.60        2967.75           1468       66056.00    290279.20
  203.63        2968.00           1471       64552.00    283616.50
  203.66        2968.25           1475       61926.00    271989.50
  203.69        2968.50           1478       58891.00    258560.90
  203.71        2968.75           1481       55654.00    244249.70
  203.74        2969.00           1485       51448.00    225671.70
  203.77        2969.25           1488       48435.00    212375.10
  203.79        2969.50           1491       45123.00    197770.40
  203.82        2969.75           1495       41099.00    180042.20
  203.85        2970.00           1498       37664.00    164922.90
  203.88        2970.25           1501       34606.00    151473.70
  203.90        2970.50           1505       30291.00    132513.40
  203.93        2970.75           1508       27065.00    118351.50
  203.96        2971.00           1511       23868.00    104327.90
  203.99        2971.25           1515       19888.00     86885.05
  204.01        2971.50           1518       16710.00     72969.35
  204.04        2971.75           1521       13791.00     60197.28
  204.07        2972.00           1525        9862.00     43020.41
  204.10        2972.25           1528        6866.00     29933.54
  204.12        2972.50           1531        4297.00     18719.49
  204.15        2972.75           1535        1785.00      7761.06
  204.18        2973.00           1538         677.00      2929.62
  204.20        2973.25           1541         200.00       850.06
  204.23        2973.50           1545          48.00       187.45
  204.26        2973.75           1548          41.00       156.93
  204.29        2974.00           1551          33.00       122.06
  204.31        2974.25           1555          31.00       113.34
  204.34        2974.50           1558          23.00        78.47
  204.37        2974.75           1561          24.00        82.82
  204.40        2975.00           1565          21.00        69.75
  204.42        2975.25           1568          26.00        91.54
  204.45        2975.50           1571          25.00        87.18
  204.48        2975.75           1575          25.00        87.18
  204.50        2976.00           1578          20.00        65.39
  204.53        2976.25           1581          19.00        61.03
  204.56        2976.50           1585          28.00       100.26
  204.59        2976.75           1588          25.00        87.18
  204.61        2977.00           1591          23.00        78.47
  204.64        2977.25           1595          26.00        91.54
  204.67        2977.50           1598          27.00        95.90
  204.69        2977.75           1601          24.00        82.82
  204.72        2978.00           1605          19.00        61.03
  204.75        2978.25           1608          21.00        69.75
  204.78        2978.50           1611          26.00        91.54
  204.80        2978.75           1615          22.00        74.11
  204.83        2979.00           1618          27.00        95.90
  204.86        2979.25           1621          21.00        69.75
  204.89        2979.50           1625          20.00        65.39
  204.91        2979.75           1628          20.00        65.39
  204.94        2980.00           1631          20.00        65.39
  204.97        2980.25           1635          17.00        52.31
  204.99        2980.50           1638          23.00        78.47
  205.02        2980.75           1641          18.00        56.67
  205.05        2981.00           1645          21.00        69.75
  205.08        2981.25           1648          23.00        78.47
  205.10        2981.50           1651          23.00        78.47
  205.13        2981.75           1655          24.00        82.82
  205.16        2982.00           1658          23.00        78.47
  205.18        2982.25           1661          21.00        69.75
  205.21        2982.50           1665          21.00        69.75
  205.24        2982.75           1668          19.00        61.03
  205.27        2983.00           1671          20.00        65.39
  205.29        2983.25           1675          20.00        65.39
  205.32        2983.50           1678          19.00        61.03
  205.35        2983.75           1681          20.00        65.39
  205.37        2984.00           1685          18.00        56.67
HS scan finished at 03:25:34
end
