************************************************************
  HS Scan of (1) Internal mercury lamp
************************************************************
Integration time is 0.2294 seconds per sample
dh010817Tamanrasset 22.79-5.529 3.470362pr865
************************************************************
Dead Time -------------------------  2.8E-08 
Number of Cycles Used -------------  4 
Starting Wavelength (Angstroms) ---  2950 
Final Wavelength (Angstoms) -------  2984 
Wavelength Increment (Angstroms) --  .25 
Filter Wheel #1 Position ---------- (1) Ground quartz diffuser (ND=2.32)
Filter Wheel #2 Position ---------- (1) Neutral Density 0.494



************************************************************
HS scan start time = 03:20:17
Dark Count =  7.2 


Time (GMT)  Wavelength (Ang)  Step Number  Raw Counts  Counts/Second

  200.64        2950.00           1233          25.00        77.59
  200.70        2950.25           1236          20.00        55.80
  200.73        2950.50           1239          21.00        60.16
  200.75        2950.75           1242          25.00        77.59
  200.78        2951.00           1246          19.00        51.44
  200.81        2951.25           1249          18.00        47.08
  200.83        2951.50           1252          22.00        64.52
  200.86        2951.75           1256          18.00        47.08
  200.89        2952.00           1259          17.00        42.72
  200.92        2952.25           1262          19.00        51.44
  200.94        2952.50           1266          17.00        42.72
  200.97        2952.75           1269          16.00        38.36
  201.00        2953.00           1272          20.00        55.80
  201.02        2953.25           1276          21.00        60.16
  201.05        2953.50           1279          17.00        42.72
  201.08        2953.75           1282          23.00        68.88
  201.11        2954.00           1286          21.00        60.16
  201.13        2954.25           1289          17.00        42.72
  201.16        2954.50           1292          24.00        73.23
  201.19        2954.75           1295          21.00        60.16
  201.21        2955.00           1299          19.00        51.44
  201.24        2955.25           1302          23.00        68.88
  201.27        2955.50           1305          21.00        60.16
  201.30        2955.75           1309          18.00        47.08
  201.32        2956.00           1312          22.00        64.52
  201.35        2956.25           1315          19.00        51.44
  201.38        2956.50           1319          20.00        55.80
  201.40        2956.75           1322          18.00        47.08
  201.43        2957.00           1325          19.00        51.44
  201.46        2957.25           1329          21.00        60.16
  201.49        2957.50           1332          16.00        38.36
  201.51        2957.75           1335          23.00        68.88
  201.54        2958.00           1339          17.00        42.72
  201.57        2958.25           1342          21.00        60.16
  201.59        2958.50           1345          18.00        47.08
  201.62        2958.75           1348          20.00        55.80
  201.65        2959.00           1352          18.00        47.08
  201.68        2959.25           1355          23.00        68.88
  201.70        2959.50           1358          22.00        64.52
  201.73        2959.75           1362          26.00        81.95
  201.76        2960.00           1365          23.00        68.88
  201.79        2960.25           1368          29.00        95.03
  201.81        2960.50           1372          36.00       125.55
  201.84        2960.75           1375          53.00       199.65
  201.87        2961.00           1378         211.00       888.43
  201.89        2961.25           1382         867.00      3748.43
  201.92        2961.50           1385        2025.00      8798.16
  201.95        2961.75           1388        3888.00     16925.19
  201.98        2962.00           1392        7297.00     31806.00
  202.00        2962.25           1395       10401.00     45366.22
  202.03        2962.50           1398       13487.00     58858.04
  202.06        2962.75           1402       17571.00     76728.76
  202.09        2963.00           1405       20635.00     90147.93
  202.11        2963.25           1408       23945.00    104655.90
  202.14        2963.50           1412       28114.00    122945.60
  202.17        2963.75           1415       31093.00    136026.30
  202.19        2964.00           1418       34479.00    150905.70
  202.22        2964.25           1422       38623.00    169133.00
  202.25        2964.50           1425       41682.00    182599.90
  202.28        2964.75           1428       44918.00    196857.20
  202.30        2965.00           1431       48449.00    212427.20
  202.33        2965.25           1435       52833.00    231777.50
  202.36        2965.50           1438       55943.00    245517.30
  202.39        2965.75           1441       59246.00    260121.40
  202.41        2966.00           1445       63451.00    278731.00
  202.44        2966.25           1448       65831.00    289272.50
  202.47        2966.50           1451       67990.00    298840.60
  202.50        2966.75           1455       69185.00    304138.70
  202.52        2967.00           1458       69964.00    307593.40
  202.55        2967.25           1461       69895.00    307287.30
  202.58        2967.50           1465       69688.00    306369.30
  202.61        2967.75           1468       68525.00    301212.40
  202.63        2968.00           1471       66835.00    293721.30
  202.66        2968.25           1475       63444.00    278700.00
  202.69        2968.50           1478       60705.00    266576.10
  202.71        2968.75           1481       57246.00    251277.00
  202.74        2969.00           1485       52809.00    231671.50
  202.77        2969.25           1488       49351.00    216406.70
  202.80        2969.50           1491       45952.00    201415.20
  202.82        2969.75           1495       41449.00    181573.80
  202.85        2970.00           1498       38028.00    166514.80
  202.88        2970.25           1501       34820.00    152404.90
  202.91        2970.50           1505       30065.00    131511.30
  202.93        2970.75           1508       26909.00    117657.20
  202.96        2971.00           1511       23638.00    103309.80
  202.99        2971.25           1515       19255.00     84102.79
  203.01        2971.50           1518       16140.00     70464.96
  203.04        2971.75           1521       13105.00     57187.40
  203.07        2972.00           1525        9116.00     39751.28
  203.10        2972.25           1528        5982.00     26064.35
  203.12        2972.50           1531        3579.00     15576.98
  203.15        2972.75           1535        1213.00      5257.10
  203.18        2973.00           1538         388.00      1660.06
  203.21        2973.25           1541          99.00       400.18
  203.23        2973.50           1545          47.00       173.50
  203.26        2973.75           1548          38.00       134.26
  203.29        2974.00           1551          33.00       112.47
  203.31        2974.25           1555          35.00       121.19
  203.34        2974.50           1558          27.00        86.31
  203.37        2974.75           1561          24.00        73.23
  203.40        2975.00           1565          25.00        77.59
  203.42        2975.25           1568          26.00        81.95
  203.45        2975.50           1571          26.00        81.95
  203.48        2975.75           1575          20.00        55.80
  203.50        2976.00           1578          25.00        77.59
  203.53        2976.25           1581          21.00        60.16
  203.56        2976.50           1585          21.00        60.16
  203.59        2976.75           1588          22.00        64.52
  203.61        2977.00           1591          25.00        77.59
  203.64        2977.25           1595          23.00        68.88
  203.67        2977.50           1598          16.00        38.36
  203.69        2977.75           1601          19.00        51.44
  203.72        2978.00           1605          24.00        73.23
  203.75        2978.25           1608          21.00        60.16
  203.78        2978.50           1611          23.00        68.88
  203.80        2978.75           1615          22.00        64.52
  203.83        2979.00           1618          22.00        64.52
  203.86        2979.25           1621          27.00        86.31
  203.88        2979.50           1625          27.00        86.31
  203.91        2979.75           1628          18.00        47.08
  203.94        2980.00           1631          23.00        68.88
  203.97        2980.25           1635          22.00        64.52
  203.99        2980.50           1638          25.00        77.59
  204.02        2980.75           1641          21.00        60.16
  204.05        2981.00           1645          22.00        64.52
  204.07        2981.25           1648          18.00        47.08
  204.10        2981.50           1651          23.00        68.88
  204.13        2981.75           1655          27.00        86.31
  204.16        2982.00           1658          22.00        64.52
  204.18        2982.25           1661          25.00        77.59
  204.21        2982.50           1665          20.00        55.80
  204.24        2982.75           1668          21.00        60.16
  204.27        2983.00           1671          19.00        51.44
  204.29        2983.25           1675          25.00        77.59
  204.32        2983.50           1678          21.00        60.16
  204.35        2983.75           1681          18.00        47.08
  204.37        2984.00           1685          21.00        60.16
HS scan finished at 03:24:34
end
