************************************************************
  HS Scan of (1) Internal mercury lamp
************************************************************
Integration time is 0.2294 seconds per sample
dh290718Tamanrasset 22.79-5.529 4.974364pr865
************************************************************
Dead Time -------------------------  2.8E-08 
Number of Cycles Used -------------  4 
Starting Wavelength (Angstroms) ---  2950 
Final Wavelength (Angstoms) -------  2984 
Wavelength Increment (Angstroms) --  .25 
Filter Wheel #1 Position ---------- (1) Ground quartz diffuser (ND=2.32)
Filter Wheel #2 Position ---------- (1) Neutral Density 0.494



************************************************************
HS scan start time = 03:18:40
Dark Count =  7.4 


Time (GMT)  Wavelength (Ang)  Step Number  Raw Counts  Counts/Second

  199.02        2950.00           1233          16.00        37.49
  199.09        2950.25           1236          19.00        50.57
  199.11        2950.50           1239          16.00        37.49
  199.14        2950.75           1242          22.00        63.64
  199.17        2951.00           1246          22.00        63.64
  199.19        2951.25           1249          22.00        63.64
  199.22        2951.50           1252          23.00        68.00
  199.25        2951.75           1256          19.00        50.57
  199.28        2952.00           1259          18.00        46.21
  199.30        2952.25           1262          17.00        41.85
  199.33        2952.50           1266          21.00        59.29
  199.36        2952.75           1269          20.00        54.93
  199.38        2953.00           1272          19.00        50.57
  199.41        2953.25           1276          18.00        46.21
  199.44        2953.50           1279          17.00        41.85
  199.47        2953.75           1282          22.00        63.64
  199.49        2954.00           1286          24.00        72.36
  199.52        2954.25           1289          19.00        50.57
  199.55        2954.50           1292          25.00        76.72
  199.57        2954.75           1295          26.00        81.08
  199.60        2955.00           1299          17.00        41.85
  199.63        2955.25           1302          22.00        63.64
  199.66        2955.50           1305          18.00        46.21
  199.68        2955.75           1309          18.00        46.21
  199.71        2956.00           1312          17.00        41.85
  199.74        2956.25           1315          17.00        41.85
  199.76        2956.50           1319          20.00        54.93
  199.79        2956.75           1322          21.00        59.29
  199.82        2957.00           1325          20.00        54.93
  199.85        2957.25           1329          18.00        46.21
  199.87        2957.50           1332          20.00        54.93
  199.90        2957.75           1335          21.00        59.29
  199.93        2958.00           1339          19.00        50.57
  199.95        2958.25           1342          20.00        54.93
  199.98        2958.50           1345          20.00        54.93
  200.01        2958.75           1348          19.00        50.57
  200.04        2959.00           1352          23.00        68.00
  200.06        2959.25           1355          18.00        46.21
  200.09        2959.50           1358          21.00        59.29
  200.12        2959.75           1362          20.00        54.93
  200.14        2960.00           1365          27.00        85.44
  200.17        2960.25           1368          29.00        94.16
  200.20        2960.50           1372          31.00       102.88
  200.23        2960.75           1375          46.00       168.27
  200.25        2961.00           1378         117.00       477.77
  200.28        2961.25           1382         577.00      2483.17
  200.31        2961.50           1385        1467.00      6363.82
  200.33        2961.75           1388        2943.00     12801.45
  200.36        2962.00           1392        6054.00     26377.80
  200.39        2962.25           1395        9125.00     39789.73
  200.42        2962.50           1398       12306.00     53692.69
  200.44        2962.75           1402       16454.00     71838.34
  200.47        2963.00           1405       19452.00     84964.75
  200.50        2963.25           1408       22634.00     98907.37
  200.53        2963.50           1412       26655.00    116541.80
  200.55        2963.75           1415       29818.00    130425.80
  200.58        2964.00           1418       32955.00    144206.20
  200.61        2964.25           1422       37109.00    162470.70
  200.64        2964.50           1425       40201.00    176077.80
  200.66        2964.75           1428       43405.00    190188.90
  200.69        2965.00           1431       46866.00    205444.30
  200.72        2965.25           1435       51628.00    226455.80
  200.75        2965.50           1438       54670.00    239891.10
  200.77        2965.75           1441       57997.00    254596.70
  200.80        2966.00           1445       62178.00    273094.30
  200.83        2966.25           1448       64872.00    285023.30
  200.85        2966.50           1451       67014.00    294513.70
  200.88        2966.75           1455       69077.00    303659.00
  200.91        2967.00           1458       69648.00    306191.10
  200.94        2967.25           1461       70053.00    307987.20
  200.96        2967.50           1465       69976.00    307645.70
  200.99        2967.75           1468       69266.00    304497.00
  201.02        2968.00           1471       67935.00    298596.00
  201.05        2968.25           1475       65421.00    287455.20
  201.07        2968.50           1478       62670.00    275272.20
  201.10        2968.75           1481       59361.00    260629.20
  201.13        2969.00           1485       54996.00    241331.50
  201.15        2969.25           1488       51385.00    225383.00
  201.18        2969.50           1491       47649.00    208897.50
  201.21        2969.75           1495       43141.00    189025.70
  201.24        2970.00           1498       39771.00    174184.90
  201.26        2970.25           1501       36687.00    160614.30
  201.29        2970.50           1505       32413.00    141824.50
  201.32        2970.75           1508       29037.00    126996.60
  201.35        2971.00           1511       25823.00    112891.60
  201.37        2971.25           1515       21854.00     95488.62
  201.40        2971.50           1518       18337.00     80081.72
  201.43        2971.75           1521       15148.00     66123.18
  201.46        2972.00           1525       10882.00     47467.58
  201.48        2972.25           1528        7814.00     34062.99
  201.51        2972.50           1531        4988.00     21724.63
  201.54        2972.75           1535        2141.00      9303.21
  201.57        2973.00           1538         804.00      3472.88
  201.59        2973.25           1541         237.00      1000.90
  201.62        2973.50           1545          57.00       216.22
  201.65        2973.75           1548          43.00       155.19
  201.67        2974.00           1551          32.00       107.24
  201.70        2974.25           1555          34.00       115.96
  201.73        2974.50           1558          29.00        94.16
  201.76        2974.75           1561          25.00        76.72
  201.78        2975.00           1565          25.00        76.72
  201.81        2975.25           1568          24.00        72.36
  201.84        2975.50           1571          26.00        81.08
  201.86        2975.75           1575          26.00        81.08
  201.89        2976.00           1578          24.00        72.36
  201.92        2976.25           1581          26.00        81.08
  201.95        2976.50           1585          21.00        59.29
  201.97        2976.75           1588          28.00        89.80
  202.00        2977.00           1591          20.00        54.93
  202.03        2977.25           1595          21.00        59.29
  202.05        2977.50           1598          30.00        98.52
  202.08        2977.75           1601          23.00        68.00
  202.11        2978.00           1605          26.00        81.08
  202.14        2978.25           1608          23.00        68.00
  202.16        2978.50           1611          28.00        89.80
  202.19        2978.75           1615          20.00        54.93
  202.22        2979.00           1618          25.00        76.72
  202.25        2979.25           1621          25.00        76.72
  202.27        2979.50           1625          28.00        89.80
  202.30        2979.75           1628          20.00        54.93
  202.33        2980.00           1631          22.00        63.64
  202.35        2980.25           1635          26.00        81.08
  202.38        2980.50           1638          25.00        76.72
  202.41        2980.75           1641          25.00        76.72
  202.44        2981.00           1645          24.00        72.36
  202.46        2981.25           1648          22.00        63.64
  202.49        2981.50           1651          23.00        68.00
  202.52        2981.75           1655          26.00        81.08
  202.54        2982.00           1658          17.00        41.85
  202.57        2982.25           1661          22.00        63.64
  202.60        2982.50           1665          21.00        59.29
  202.63        2982.75           1668          20.00        54.93
  202.65        2983.00           1671          22.00        63.64
  202.68        2983.25           1675          20.00        54.93
  202.71        2983.50           1678          24.00        72.36
  202.73        2983.75           1681          20.00        54.93
  202.76        2984.00           1685          19.00        50.57
HS scan finished at 03:22:57
end
