************************************************************
  HS Scan of (1) Internal mercury lamp
************************************************************
Integration time is 0.2294 seconds per sample
dh300717Tamanrasset 22.79-5.529 3.312315pr865
************************************************************
Dead Time -------------------------  2.8E-08 
Number of Cycles Used -------------  4 
Starting Wavelength (Angstroms) ---  2950 
Final Wavelength (Angstoms) -------  2984 
Wavelength Increment (Angstroms) --  .25 
Filter Wheel #1 Position ---------- (1) Ground quartz diffuser (ND=2.32)
Filter Wheel #2 Position ---------- (1) Neutral Density 0.494



************************************************************
HS scan start time = 03:19:21
Dark Count =  4.8 


Time (GMT)  Wavelength (Ang)  Step Number  Raw Counts  Counts/Second

  199.70        2950.00           1233          20.00        66.26
  199.77        2950.25           1236          15.00        44.46
  199.79        2950.50           1239          18.00        57.54
  199.82        2950.75           1242          17.00        53.18
  199.85        2951.00           1246          21.00        70.62
  199.87        2951.25           1249          19.00        61.90
  199.90        2951.50           1252          17.00        53.18
  199.93        2951.75           1256          19.00        61.90
  199.96        2952.00           1259          20.00        66.26
  199.98        2952.25           1262          22.00        74.98
  200.01        2952.50           1266          15.00        44.46
  200.04        2952.75           1269          21.00        70.62
  200.06        2953.00           1272          23.00        79.34
  200.09        2953.25           1276          18.00        57.54
  200.12        2953.50           1279          19.00        61.90
  200.15        2953.75           1282          19.00        61.90
  200.17        2954.00           1286          21.00        70.62
  200.20        2954.25           1289          20.00        66.26
  200.23        2954.50           1292          17.00        53.18
  200.26        2954.75           1295          22.00        74.98
  200.28        2955.00           1299          19.00        61.90
  200.31        2955.25           1302          19.00        61.90
  200.34        2955.50           1305          20.00        66.26
  200.36        2955.75           1309          20.00        66.26
  200.39        2956.00           1312          19.00        61.90
  200.42        2956.25           1315          14.00        40.10
  200.45        2956.50           1319          20.00        66.26
  200.47        2956.75           1322          18.00        57.54
  200.50        2957.00           1325          18.00        57.54
  200.53        2957.25           1329          20.00        66.26
  200.55        2957.50           1332          19.00        61.90
  200.58        2957.75           1335          18.00        57.54
  200.61        2958.00           1339          19.00        61.90
  200.64        2958.25           1342          28.00       101.13
  200.66        2958.50           1345          19.00        61.90
  200.69        2958.75           1348          21.00        70.62
  200.72        2959.00           1352          19.00        61.90
  200.74        2959.25           1355          22.00        74.98
  200.77        2959.50           1358          19.00        61.90
  200.80        2959.75           1362          22.00        74.98
  200.83        2960.00           1365          26.00        92.42
  200.85        2960.25           1368          32.00       118.57
  200.88        2960.50           1372          32.00       118.57
  200.91        2960.75           1375          47.00       183.96
  200.93        2961.00           1378         107.00       445.52
  200.96        2961.25           1382         550.00      2376.79
  200.99        2961.50           1385        1302.00      5655.65
  201.02        2961.75           1388        2804.00     12206.44
  201.04        2962.00           1392        5831.00     25415.64
  201.07        2962.25           1395        8507.00     37101.30
  201.10        2962.50           1398       11769.00     51356.27
  201.13        2962.75           1402       15713.00     68606.82
  201.15        2963.00           1405       18788.00     82068.06
  201.18        2963.25           1408       21889.00     95653.40
  201.21        2963.50           1412       25641.00    112104.60
  201.23        2963.75           1415       28736.00    125686.50
  201.26        2964.00           1418       31679.00    138611.00
  201.29        2964.25           1422       35691.00    156245.30
  201.32        2964.50           1425       38913.00    170419.80
  201.34        2964.75           1428       42074.00    184337.00
  201.37        2965.00           1431       45047.00    197436.30
  201.40        2965.25           1435       49101.00    215314.20
  201.43        2965.50           1438       52557.00    230569.20
  201.45        2965.75           1441       55635.00    244166.70
  201.48        2966.00           1445       59899.00    263020.60
  201.51        2966.25           1448       62558.00    274787.90
  201.54        2966.50           1451       64529.00    283515.50
  201.56        2966.75           1455       66394.00    291777.80
  201.59        2967.00           1458       66976.00    294356.90
  201.62        2967.25           1461       67177.00    295247.70
  201.64        2967.50           1465       66874.00    293904.80
  201.67        2967.75           1468       66464.00    292087.90
  201.70        2968.00           1471       65165.00    286332.70
  201.73        2968.25           1475       62686.00    275354.60
  201.75        2968.50           1478       59967.00    263321.50
  201.78        2968.75           1481       56749.00    249090.50
  201.81        2969.00           1485       52553.00    230551.50
  201.84        2969.25           1488       48951.00    214652.50
  201.86        2969.50           1491       45947.00    201403.70
  201.89        2969.75           1495       41308.00    180963.50
  201.92        2970.00           1498       38359.00    167981.80
  201.95        2970.25           1501       35065.00    153492.60
  201.97        2970.50           1505       30897.00    135175.90
  202.00        2970.75           1508       27874.00    121902.70
  202.03        2971.00           1511       24650.00    107758.00
  202.06        2971.25           1515       20555.00     89807.94
  202.08        2971.50           1518       17358.00     75806.77
  202.11        2971.75           1521       14284.00     62354.64
  202.14        2972.00           1525       10159.00     44319.13
  202.16        2972.25           1528        7120.00     31043.54
  202.19        2972.50           1531        4708.00     20513.96
  202.22        2972.75           1535        1915.00      8328.88
  202.25        2973.00           1538         736.00      3187.73
  202.27        2973.25           1541         221.00       942.48
  202.30        2973.50           1545          57.00       227.55
  202.33        2973.75           1548          41.00       157.80
  202.36        2974.00           1551          37.00       140.37
  202.38        2974.25           1555          24.00        83.70
  202.41        2974.50           1558          30.00       109.85
  202.44        2974.75           1561          28.00       101.13
  202.46        2975.00           1565          23.00        79.34
  202.49        2975.25           1568          26.00        92.42
  202.52        2975.50           1571          22.00        74.98
  202.55        2975.75           1575          21.00        70.62
  202.57        2976.00           1578          26.00        92.42
  202.60        2976.25           1581          20.00        66.26
  202.63        2976.50           1585          25.00        88.06
  202.65        2976.75           1588          21.00        70.62
  202.68        2977.00           1591          19.00        61.90
  202.71        2977.25           1595          22.00        74.98
  202.74        2977.50           1598          22.00        74.98
  202.76        2977.75           1601          21.00        70.62
  202.79        2978.00           1605          22.00        74.98
  202.82        2978.25           1608          22.00        74.98
  202.84        2978.50           1611          20.00        66.26
  202.87        2978.75           1615          24.00        83.70
  202.90        2979.00           1618          24.00        83.70
  202.93        2979.25           1621          25.00        88.06
  202.95        2979.50           1625          29.00       105.49
  202.98        2979.75           1628          28.00       101.13
  203.01        2980.00           1631          18.00        57.54
  203.03        2980.25           1635          22.00        74.98
  203.06        2980.50           1638          17.00        53.18
  203.09        2980.75           1641          21.00        70.62
  203.12        2981.00           1645          25.00        88.06
  203.14        2981.25           1648          17.00        53.18
  203.17        2981.50           1651          19.00        61.90
  203.20        2981.75           1655          19.00        61.90
  203.22        2982.00           1658          18.00        57.54
  203.25        2982.25           1661          22.00        74.98
  203.28        2982.50           1665          21.00        70.62
  203.31        2982.75           1668          22.00        74.98
  203.33        2983.00           1671          22.00        74.98
  203.36        2983.25           1675          17.00        53.18
  203.39        2983.50           1678          21.00        70.62
  203.41        2983.75           1681          18.00        57.54
  203.44        2984.00           1685          25.00        88.06
HS scan finished at 03:23:38
end
