************************************************************
  HS Scan of (1) Internal mercury lamp
************************************************************
Integration time is 0.2294 seconds per sample
dh300718Tamanrasset 22.79-5.529 4.974364pr865
************************************************************
Dead Time -------------------------  2.8E-08 
Number of Cycles Used -------------  4 
Starting Wavelength (Angstroms) ---  2950 
Final Wavelength (Angstoms) -------  2984 
Wavelength Increment (Angstroms) --  .25 
Filter Wheel #1 Position ---------- (1) Ground quartz diffuser (ND=2.32)
Filter Wheel #2 Position ---------- (1) Neutral Density 0.494



************************************************************
HS scan start time = 03:18:09
Dark Count =  7.2 


Time (GMT)  Wavelength (Ang)  Step Number  Raw Counts  Counts/Second

  198.51        2950.00           1233          20.00        55.80
  198.57        2950.25           1236          20.00        55.80
  198.60        2950.50           1239          19.00        51.44
  198.62        2950.75           1242          21.00        60.16
  198.65        2951.00           1246          20.00        55.80
  198.68        2951.25           1249          21.00        60.16
  198.71        2951.50           1252          22.00        64.52
  198.73        2951.75           1256          18.00        47.08
  198.76        2952.00           1259          17.00        42.72
  198.79        2952.25           1262          22.00        64.52
  198.81        2952.50           1266          20.00        55.80
  198.84        2952.75           1269          23.00        68.88
  198.87        2953.00           1272          23.00        68.88
  198.90        2953.25           1276          23.00        68.88
  198.92        2953.50           1279          22.00        64.52
  198.95        2953.75           1282          22.00        64.52
  198.98        2954.00           1286          23.00        68.88
  199.00        2954.25           1289          17.00        42.72
  199.03        2954.50           1292          16.00        38.36
  199.06        2954.75           1295          20.00        55.80
  199.09        2955.00           1299          25.00        77.59
  199.11        2955.25           1302          19.00        51.44
  199.14        2955.50           1305          22.00        64.52
  199.17        2955.75           1309          22.00        64.52
  199.19        2956.00           1312          26.00        81.95
  199.22        2956.25           1315          21.00        60.16
  199.25        2956.50           1319          20.00        55.80
  199.28        2956.75           1322          19.00        51.44
  199.30        2957.00           1325          17.00        42.72
  199.33        2957.25           1329          20.00        55.80
  199.36        2957.50           1332          24.00        73.23
  199.38        2957.75           1335          20.00        55.80
  199.41        2958.00           1339          20.00        55.80
  199.44        2958.25           1342          23.00        68.88
  199.47        2958.50           1345          23.00        68.88
  199.49        2958.75           1348          22.00        64.52
  199.52        2959.00           1352          23.00        68.88
  199.55        2959.25           1355          17.00        42.72
  199.57        2959.50           1358          22.00        64.52
  199.60        2959.75           1362          19.00        51.44
  199.63        2960.00           1365          25.00        77.59
  199.66        2960.25           1368          33.00       112.47
  199.68        2960.50           1372          34.00       116.83
  199.71        2960.75           1375          52.00       195.29
  199.74        2961.00           1378         162.00       674.82
  199.76        2961.25           1382         742.00      3203.43
  199.79        2961.50           1385        1817.00      7891.02
  199.82        2961.75           1388        3475.00     15123.23
  199.85        2962.00           1392        6729.00     29325.73
  199.87        2962.25           1395        9531.00     41564.47
  199.90        2962.50           1398       12615.00     55044.67
  199.93        2962.75           1402       16815.00     73419.31
  199.95        2963.00           1405       19879.00     86835.99
  199.98        2963.25           1408       23129.00    101078.20
  200.01        2963.50           1412       27218.00    119013.20
  200.04        2963.75           1415       30340.00    132719.00
  200.06        2964.00           1418       33581.00    146958.30
  200.09        2964.25           1422       37658.00    164886.80
  200.12        2964.50           1425       40590.00    177791.40
  200.15        2964.75           1428       44169.00    193556.20
  200.17        2965.00           1431       47049.00    206252.20
  200.20        2965.25           1435       51677.00    226673.00
  200.23        2965.50           1438       54906.00    240934.70
  200.26        2965.75           1441       57950.00    254389.70
  200.28        2966.00           1445       62133.00    272896.00
  200.31        2966.25           1448       64988.00    285538.00
  200.34        2966.50           1451       66605.00    292702.10
  200.36        2966.75           1455       68615.00    301611.40
  200.39        2967.00           1458       68937.00    303039.10
  200.42        2967.25           1461       69004.00    303336.10
  200.45        2967.50           1465       68842.00    302617.90
  200.47        2967.75           1468       68033.00    299031.20
  200.50        2968.00           1471       66789.00    293517.50
  200.53        2968.25           1475       63960.00    280985.00
  200.56        2968.50           1478       60826.00    267111.50
  200.58        2968.75           1481       57845.00    253925.40
  200.61        2969.00           1485       53517.00    234798.40
  200.64        2969.25           1488       50153.00    219945.80
  200.67        2969.50           1491       46775.00    205043.90
  200.69        2969.75           1495       42079.00    184348.40
  200.72        2970.00           1498       39007.00    170823.00
  200.75        2970.25           1501       35706.00    156300.70
  200.77        2970.50           1505       31315.00    137001.40
  200.80        2970.75           1508       27810.00    121611.30
  200.83        2971.00           1511       24751.00    108190.40
  200.86        2971.25           1515       20453.00     89350.56
  200.88        2971.50           1518       17388.00     75927.60
  200.91        2971.75           1521       14261.00     62243.53
  200.94        2972.00           1525       10109.00     44090.14
  200.97        2972.25           1528        7031.00     30644.42
  200.99        2972.50           1531        4344.00     18914.99
  201.02        2972.75           1535        1614.00      7005.73
  201.05        2973.00           1538         552.00      2375.05
  201.07        2973.25           1541         151.00       626.86
  201.10        2973.50           1545          52.00       195.29
  201.13        2973.75           1548          40.00       142.98
  201.16        2974.00           1551          44.00       160.42
  201.18        2974.25           1555          34.00       116.83
  201.21        2974.50           1558          28.00        90.67
  201.24        2974.75           1561          29.00        95.03
  201.27        2975.00           1565          21.00        60.16
  201.29        2975.25           1568          21.00        60.16
  201.32        2975.50           1571          24.00        73.23
  201.35        2975.75           1575          27.00        86.31
  201.37        2976.00           1578          23.00        68.88
  201.40        2976.25           1581          28.00        90.67
  201.43        2976.50           1585          26.00        81.95
  201.46        2976.75           1588          24.00        73.23
  201.48        2977.00           1591          26.00        81.95
  201.51        2977.25           1595          21.00        60.16
  201.54        2977.50           1598          26.00        81.95
  201.56        2977.75           1601          23.00        68.88
  201.59        2978.00           1605          26.00        81.95
  201.62        2978.25           1608          24.00        73.23
  201.65        2978.50           1611          24.00        73.23
  201.67        2978.75           1615          22.00        64.52
  201.70        2979.00           1618          27.00        86.31
  201.73        2979.25           1621          23.00        68.88
  201.75        2979.50           1625          22.00        64.52
  201.78        2979.75           1628          24.00        73.23
  201.81        2980.00           1631          21.00        60.16
  201.84        2980.25           1635          21.00        60.16
  201.86        2980.50           1638          23.00        68.88
  201.89        2980.75           1641          23.00        68.88
  201.92        2981.00           1645          22.00        64.52
  201.94        2981.25           1648          25.00        77.59
  201.97        2981.50           1651          24.00        73.23
  202.00        2981.75           1655          21.00        60.16
  202.03        2982.00           1658          25.00        77.59
  202.05        2982.25           1661          22.00        64.52
  202.08        2982.50           1665          21.00        60.16
  202.11        2982.75           1668          20.00        55.80
  202.13        2983.00           1671          19.00        51.44
  202.16        2983.25           1675          23.00        68.88
  202.19        2983.50           1678          18.00        47.08
  202.22        2983.75           1681          23.00        68.88
  202.24        2984.00           1685          17.00        42.72
HS scan finished at 03:22:26
end
