************************************************************
  HS Scan of (1) Internal mercury lamp
************************************************************
Integration time is 0.2294 seconds per sample
dh120818Tamanrasset 22.79-5.529 4.974364pr865
************************************************************
Dead Time -------------------------  2.8E-08 
Number of Cycles Used -------------  4 
Starting Wavelength (Angstroms) ---  2950 
Final Wavelength (Angstoms) -------  2984 
Wavelength Increment (Angstroms) --  .25 
Filter Wheel #1 Position ---------- (1) Ground quartz diffuser (ND=2.32)
Filter Wheel #2 Position ---------- (1) Neutral Density 0.494



************************************************************
HS scan start time = 03:25:03
Dark Count =  5.1 


Time (GMT)  Wavelength (Ang)  Step Number  Raw Counts  Counts/Second

  205.40        2950.00           1233          21.00        69.31
  205.46        2950.25           1236          21.00        69.31
  205.49        2950.50           1239          20.00        64.95
  205.52        2950.75           1242          21.00        69.31
  205.55        2951.00           1246          18.00        56.23
  205.57        2951.25           1249          21.00        69.31
  205.60        2951.50           1252          19.00        60.59
  205.63        2951.75           1256          16.00        47.52
  205.65        2952.00           1259          17.00        51.87
  205.68        2952.25           1262          23.00        78.03
  205.71        2952.50           1266          20.00        64.95
  205.74        2952.75           1269          18.00        56.23
  205.76        2953.00           1272          16.00        47.52
  205.79        2953.25           1276          17.00        51.87
  205.82        2953.50           1279          18.00        56.23
  205.84        2953.75           1282          18.00        56.23
  205.87        2954.00           1286          17.00        51.87
  205.90        2954.25           1289          17.00        51.87
  205.93        2954.50           1292          17.00        51.87
  205.95        2954.75           1295          23.00        78.03
  205.98        2955.00           1299          21.00        69.31
  206.01        2955.25           1302          20.00        64.95
  206.03        2955.50           1305          12.00        30.08
  206.06        2955.75           1309          21.00        69.31
  206.09        2956.00           1312          18.00        56.23
  206.12        2956.25           1315          20.00        64.95
  206.14        2956.50           1319          15.00        43.16
  206.17        2956.75           1322          19.00        60.59
  206.20        2957.00           1325          17.00        51.87
  206.22        2957.25           1329          16.00        47.52
  206.25        2957.50           1332          19.00        60.59
  206.28        2957.75           1335          17.00        51.87
  206.31        2958.00           1339          22.00        73.67
  206.33        2958.25           1342          24.00        82.39
  206.36        2958.50           1345          20.00        64.95
  206.39        2958.75           1348          13.00        34.44
  206.42        2959.00           1352          17.00        51.87
  206.44        2959.25           1355          19.00        60.59
  206.47        2959.50           1358          22.00        73.67
  206.50        2959.75           1362          21.00        69.31
  206.52        2960.00           1365          24.00        82.39
  206.55        2960.25           1368          30.00       108.54
  206.58        2960.50           1372          36.00       134.70
  206.61        2960.75           1375          46.00       178.29
  206.63        2961.00           1378         134.00       561.91
  206.66        2961.25           1382         649.00      2807.11
  206.69        2961.50           1385        1534.00      6666.02
  206.71        2961.75           1388        3120.00     13583.63
  206.74        2962.00           1392        6215.00     27090.73
  206.77        2962.25           1395        9038.00     39419.69
  206.80        2962.50           1398       12089.00     52753.98
  206.82        2962.75           1402       15812.00     69038.74
  206.85        2963.00           1405       18588.00     81190.91
  206.88        2963.25           1408       21726.00     94937.74
  206.91        2963.50           1412       25329.00    110734.70
  206.93        2963.75           1415       28270.00    123639.60
  206.96        2964.00           1418       31014.00    135688.50
  206.99        2964.25           1422       35228.00    154208.00
  207.02        2964.50           1425       38044.00    166594.40
  207.04        2964.75           1428       41050.00    179826.00
  207.07        2965.00           1431       44094.00    193234.90
  207.10        2965.25           1435       48221.00    211430.60
  207.13        2965.50           1438       51267.00    224872.20
  207.15        2965.75           1441       54158.00    237639.20
  207.18        2966.00           1445       58019.00    254704.10
  207.21        2966.25           1448       60346.00    264996.90
  207.24        2966.50           1451       62398.00    274078.30
  207.26        2966.75           1455       63389.00    278465.80
  207.29        2967.00           1458       64236.00    282216.50
  207.32        2967.25           1461       64437.00    283106.70
  207.35        2967.50           1465       64003.00    281184.60
  207.37        2967.75           1468       63563.00    279236.20
  207.40        2968.00           1471       62172.00    273077.90
  207.43        2968.25           1475       59427.00    260931.30
  207.46        2968.50           1478       56952.00    249986.50
  207.48        2968.75           1481       53908.00    236534.80
  207.51        2969.00           1485       49565.00    217360.30
  207.54        2969.25           1488       46327.00    203077.80
  207.56        2969.50           1491       43123.00    188956.60
  207.59        2969.75           1495       39211.00    171730.10
  207.62        2970.00           1498       36055.00    157844.70
  207.65        2970.25           1501       33197.00    145279.90
  207.67        2970.50           1505       29193.00    127691.60
  207.70        2970.75           1508       26181.00    114472.20
  207.73        2971.00           1511       23275.00    101727.40
  207.76        2971.25           1515       19280.00     84221.49
  207.78        2971.50           1518       16268.00     71034.35
  207.81        2971.75           1521       13555.00     59164.63
  207.84        2972.00           1525        9692.00     42277.14
  207.87        2972.25           1528        6740.00     29382.93
  207.89        2972.50           1531        4238.00     18461.59
  207.92        2972.75           1535        1656.00      7198.05
  207.95        2973.00           1538         591.00      2554.24
  207.97        2973.25           1541         192.00       814.75
  208.00        2973.50           1545          52.00       204.45
  208.03        2973.75           1548          49.00       191.37
  208.06        2974.00           1551          33.00       121.62
  208.08        2974.25           1555          33.00       121.62
  208.11        2974.50           1558          30.00       108.54
  208.14        2974.75           1561          23.00        78.03
  208.16        2975.00           1565          22.00        73.67
  208.19        2975.25           1568          22.00        73.67
  208.22        2975.50           1571          24.00        82.39
  208.24        2975.75           1575          23.00        78.03
  208.27        2976.00           1578          21.00        69.31
  208.30        2976.25           1581          22.00        73.67
  208.33        2976.50           1585          24.00        82.39
  208.35        2976.75           1588          23.00        78.03
  208.38        2977.00           1591          27.00        95.47
  208.41        2977.25           1595          23.00        78.03
  208.44        2977.50           1598          23.00        78.03
  208.46        2977.75           1601          23.00        78.03
  208.49        2978.00           1605          23.00        78.03
  208.52        2978.25           1608          18.00        56.23
  208.54        2978.50           1611          23.00        78.03
  208.57        2978.75           1615          18.00        56.23
  208.60        2979.00           1618          18.00        56.23
  208.63        2979.25           1621          22.00        73.67
  208.65        2979.50           1625          20.00        64.95
  208.68        2979.75           1628          24.00        82.39
  208.71        2980.00           1631          20.00        64.95
  208.73        2980.25           1635          21.00        69.31
  208.76        2980.50           1638          17.00        51.87
  208.79        2980.75           1641          22.00        73.67
  208.82        2981.00           1645          21.00        69.31
  208.84        2981.25           1648          20.00        64.95
  208.87        2981.50           1651          19.00        60.59
  208.90        2981.75           1655          24.00        82.39
  208.92        2982.00           1658          19.00        60.59
  208.95        2982.25           1661          21.00        69.31
  208.98        2982.50           1665          24.00        82.39
  209.01        2982.75           1668          20.00        64.95
  209.03        2983.00           1671          24.00        82.39
  209.06        2983.25           1675          24.00        82.39
  209.09        2983.50           1678          18.00        56.23
  209.12        2983.75           1681          19.00        60.59
  209.14        2984.00           1685          20.00        64.95
HS scan finished at 03:29:20
end
