************************************************************
  HS Scan of (1) Internal mercury lamp
************************************************************
Integration time is 0.2294 seconds per sample
dh170817Tamanrasset 22.79-5.529 3.353101pr865
************************************************************
Dead Time -------------------------  2.8E-08 
Number of Cycles Used -------------  4 
Starting Wavelength (Angstroms) ---  2950 
Final Wavelength (Angstoms) -------  2984 
Wavelength Increment (Angstroms) --  .25 
Filter Wheel #1 Position ---------- (1) Ground quartz diffuser (ND=2.32)
Filter Wheel #2 Position ---------- (1) Neutral Density 0.494



************************************************************
HS scan start time = 03:26:56
Dark Count =  7 


Time (GMT)  Wavelength (Ang)  Step Number  Raw Counts  Counts/Second

  207.29        2950.00           1233          19.00        52.31
  207.35        2950.25           1236          20.00        56.67
  207.38        2950.50           1239          21.00        61.03
  207.41        2950.75           1242          26.00        82.82
  207.44        2951.00           1246          16.00        39.23
  207.46        2951.25           1249          15.00        34.87
  207.49        2951.50           1252          22.00        65.39
  207.52        2951.75           1256          19.00        52.31
  207.54        2952.00           1259          20.00        56.67
  207.57        2952.25           1262          16.00        39.23
  207.60        2952.50           1266          21.00        61.03
  207.63        2952.75           1269          18.00        47.95
  207.65        2953.00           1272          18.00        47.95
  207.68        2953.25           1276          17.00        43.59
  207.71        2953.50           1279          20.00        56.67
  207.73        2953.75           1282          19.00        52.31
  207.76        2954.00           1286          20.00        56.67
  207.79        2954.25           1289          18.00        47.95
  207.82        2954.50           1292          22.00        65.39
  207.84        2954.75           1295          20.00        56.67
  207.87        2955.00           1299          11.00        17.44
  207.90        2955.25           1302          22.00        65.39
  207.93        2955.50           1305          19.00        52.31
  207.95        2955.75           1309          24.00        74.11
  207.98        2956.00           1312          20.00        56.67
  208.01        2956.25           1315          20.00        56.67
  208.03        2956.50           1319          21.00        61.03
  208.06        2956.75           1322          18.00        47.95
  208.09        2957.00           1325          17.00        43.59
  208.11        2957.25           1329          18.00        47.95
  208.14        2957.50           1332          18.00        47.95
  208.17        2957.75           1335          19.00        52.31
  208.20        2958.00           1339          19.00        52.31
  208.22        2958.25           1342          19.00        52.31
  208.25        2958.50           1345          18.00        47.95
  208.28        2958.75           1348          21.00        61.03
  208.31        2959.00           1352          16.00        39.23
  208.33        2959.25           1355          23.00        69.75
  208.36        2959.50           1358          23.00        69.75
  208.39        2959.75           1362          21.00        61.03
  208.41        2960.00           1365          25.00        78.47
  208.44        2960.25           1368          31.00       104.62
  208.47        2960.50           1372          30.00       100.26
  208.50        2960.75           1375          46.00       170.01
  208.52        2961.00           1378         128.00       527.47
  208.55        2961.25           1382         656.00      2829.34
  208.58        2961.50           1385        1606.00      6971.72
  208.60        2961.75           1388        3245.00     14120.66
  208.63        2962.00           1392        6340.00     27628.17
  208.66        2962.25           1395        9316.00     40625.96
  208.69        2962.50           1398       12356.00     53913.07
  208.71        2962.75           1402       16447.00     71809.46
  208.74        2963.00           1405       19649.00     85829.39
  208.77        2963.25           1408       22802.00     99645.56
  208.80        2963.50           1412       26611.00    116350.50
  208.82        2963.75           1415       29775.00    130238.70
  208.85        2964.00           1418       32772.00    143403.80
  208.88        2964.25           1422       37046.00    162195.30
  208.90        2964.50           1425       40048.00    175406.00
  208.93        2964.75           1428       43048.00    188617.80
  208.96        2965.00           1431       46029.00    201755.60
  208.99        2965.25           1435       50283.00    220520.50
  209.01        2965.50           1438       53742.00    235793.20
  209.04        2965.75           1441       56655.00    248665.20
  209.07        2966.00           1445       60758.00    266811.50
  209.10        2966.25           1448       63200.00    277620.50
  209.12        2966.50           1451       65547.00    288015.20
  209.15        2966.75           1455       67549.00    296886.70
  209.18        2967.00           1458       67668.00    297414.20
  209.21        2967.25           1461       67894.00    298416.00
  209.23        2967.50           1465       67787.00    297941.70
  209.26        2967.75           1468       67152.00    295127.10
  209.29        2968.00           1471       65835.00    289291.10
  209.32        2968.25           1475       62943.00    276482.70
  209.34        2968.50           1478       60072.00    263776.20
  209.37        2968.75           1481       57272.00    251392.80
  209.40        2969.00           1485       52874.00    231959.40
  209.42        2969.25           1488       49522.00    217162.20
  209.45        2969.50           1491       46304.00    202968.00
  209.48        2969.75           1495       41838.00    183287.80
  209.51        2970.00           1498       38731.00    169609.20
  209.53        2970.25           1501       35515.00    155461.70
  209.56        2970.50           1505       31045.00    135816.30
  209.59        2970.75           1508       27835.00    121721.90
  209.62        2971.00           1511       24700.00    107967.60
  209.64        2971.25           1515       20700.00     90433.59
  209.67        2971.50           1518       17475.00     76309.35
  209.70        2971.75           1521       14526.00     63403.66
  209.73        2972.00           1525       10232.00     44628.54
  209.75        2972.25           1528        7399.00     32252.31
  209.78        2972.50           1531        4786.00     20844.77
  209.81        2972.75           1535        1939.00      8423.96
  209.84        2973.00           1538         737.00      3182.50
  209.86        2973.25           1541         213.00       898.02
  209.89        2973.50           1545          63.00       244.12
  209.92        2973.75           1548          43.00       156.93
  209.94        2974.00           1551          32.00       108.98
  209.97        2974.25           1555          32.00       108.98
  210.00        2974.50           1558          25.00        78.47
  210.02        2974.75           1561          24.00        74.11
  210.05        2975.00           1565          26.00        82.82
  210.08        2975.25           1568          26.00        82.82
  210.11        2975.50           1571          22.00        65.39
  210.13        2975.75           1575          23.00        69.75
  210.16        2976.00           1578          24.00        74.11
  210.19        2976.25           1581          22.00        65.39
  210.21        2976.50           1585          25.00        78.47
  210.24        2976.75           1588          22.00        65.39
  210.27        2977.00           1591          26.00        82.82
  210.30        2977.25           1595          21.00        61.03
  210.32        2977.50           1598          19.00        52.31
  210.35        2977.75           1601          22.00        65.39
  210.38        2978.00           1605          18.00        47.95
  210.40        2978.25           1608          23.00        69.75
  210.43        2978.50           1611          19.00        52.31
  210.46        2978.75           1615          27.00        87.18
  210.49        2979.00           1618          24.00        74.11
  210.51        2979.25           1621          25.00        78.47
  210.54        2979.50           1625          19.00        52.31
  210.57        2979.75           1628          25.00        78.47
  210.59        2980.00           1631          23.00        69.75
  210.62        2980.25           1635          26.00        82.82
  210.65        2980.50           1638          24.00        74.11
  210.68        2980.75           1641          20.00        56.67
  210.70        2981.00           1645          20.00        56.67
  210.73        2981.25           1648          18.00        47.95
  210.76        2981.50           1651          20.00        56.67
  210.78        2981.75           1655          18.00        47.95
  210.81        2982.00           1658          25.00        78.47
  210.84        2982.25           1661          20.00        56.67
  210.87        2982.50           1665          20.00        56.67
  210.89        2982.75           1668          25.00        78.47
  210.92        2983.00           1671          22.00        65.39
  210.95        2983.25           1675          19.00        52.31
  210.98        2983.50           1678          19.00        52.31
  211.00        2983.75           1681          21.00        61.03
  211.03        2984.00           1685          25.00        78.47
HS scan finished at 03:31:13
end
