************************************************************
  HS Scan of (1) Internal mercury lamp
************************************************************
Integration time is 0.2294 seconds per sample
dh080818Tamanrasset 22.79-5.529 4.974364pr865
************************************************************
Dead Time -------------------------  2.8E-08 
Number of Cycles Used -------------  4 
Starting Wavelength (Angstroms) ---  2950 
Final Wavelength (Angstoms) -------  2984 
Wavelength Increment (Angstroms) --  .25 
Filter Wheel #1 Position ---------- (1) Ground quartz diffuser (ND=2.32)
Filter Wheel #2 Position ---------- (1) Neutral Density 0.494



************************************************************
HS scan start time = 03:22:09
Dark Count =  5.2 


Time (GMT)  Wavelength (Ang)  Step Number  Raw Counts  Counts/Second

  202.51        2950.00           1233          16.00        47.08
  202.57        2950.25           1236          20.00        64.52
  202.60        2950.50           1239          19.00        60.16
  202.62        2950.75           1242          24.00        81.95
  202.65        2951.00           1246          18.00        55.80
  202.68        2951.25           1249          20.00        64.52
  202.71        2951.50           1252          17.00        51.44
  202.73        2951.75           1256          22.00        73.23
  202.76        2952.00           1259          20.00        64.52
  202.79        2952.25           1262          16.00        47.08
  202.81        2952.50           1266          19.00        60.16
  202.84        2952.75           1269          18.00        55.80
  202.87        2953.00           1272          18.00        55.80
  202.90        2953.25           1276          20.00        64.52
  202.92        2953.50           1279          21.00        68.88
  202.95        2953.75           1282          16.00        47.08
  202.98        2954.00           1286          20.00        64.52
  203.00        2954.25           1289          15.00        42.72
  203.03        2954.50           1292          20.00        64.52
  203.06        2954.75           1295          21.00        68.88
  203.09        2955.00           1299          21.00        68.88
  203.11        2955.25           1302          16.00        47.08
  203.14        2955.50           1305          18.00        55.80
  203.17        2955.75           1309          19.00        60.16
  203.19        2956.00           1312          16.00        47.08
  203.22        2956.25           1315          21.00        68.88
  203.25        2956.50           1319          14.00        38.36
  203.28        2956.75           1322          22.00        73.23
  203.30        2957.00           1325          16.00        47.08
  203.33        2957.25           1329          20.00        64.52
  203.36        2957.50           1332          25.00        86.31
  203.38        2957.75           1335          16.00        47.08
  203.41        2958.00           1339          19.00        60.16
  203.44        2958.25           1342          20.00        64.52
  203.47        2958.50           1345          17.00        51.44
  203.49        2958.75           1348          18.00        55.80
  203.52        2959.00           1352          19.00        60.16
  203.55        2959.25           1355          22.00        73.23
  203.58        2959.50           1358          19.00        60.16
  203.60        2959.75           1362          24.00        81.95
  203.63        2960.00           1365          24.00        81.95
  203.66        2960.25           1368          29.00       103.75
  203.68        2960.50           1372          32.00       116.83
  203.71        2960.75           1375          42.00       160.42
  203.74        2961.00           1378         140.00       587.63
  203.76        2961.25           1382         674.00      2915.67
  203.79        2961.50           1385        1601.00      6957.76
  203.82        2961.75           1388        3194.00     13906.03
  203.85        2962.00           1392        6368.00     27758.27
  203.87        2962.25           1395        9110.00     39733.81
  203.90        2962.50           1398       12262.00     53509.93
  203.93        2962.75           1402       16038.00     70027.32
  203.96        2963.00           1405       18936.00     82714.46
  203.98        2963.25           1408       22046.00     96339.75
  204.01        2963.50           1412       25734.00    112510.80
  204.04        2963.75           1415       28465.00    124495.10
  204.07        2964.00           1418       31458.00    137638.40
  204.09        2964.25           1422       35642.00    156028.00
  204.12        2964.50           1425       38795.00    169898.70
  204.15        2964.75           1428       41893.00    183538.00
  204.17        2965.00           1431       44690.00    195861.10
  204.20        2965.25           1435       49084.00    215237.50
  204.23        2965.50           1438       51869.00    227529.50
  204.26        2965.75           1441       54881.00    240833.00
  204.28        2966.00           1445       58896.00    258582.10
  204.31        2966.25           1448       61474.00    269988.00
  204.34        2966.50           1451       63447.00    278722.10
  204.37        2966.75           1455       64829.00    284842.50
  204.39        2967.00           1458       65214.00    286548.00
  204.42        2967.25           1461       65267.00    286782.80
  204.45        2967.50           1465       65013.00    285657.60
  204.48        2967.75           1468       64360.00    282765.30
  204.50        2968.00           1471       63035.00    276897.90
  204.53        2968.25           1475       60303.00    264806.20
  204.56        2968.50           1478       57792.00    253699.90
  204.59        2968.75           1481       54644.00    239785.90
  204.61        2969.00           1485       50314.00    220665.30
  204.64        2969.25           1488       47341.00    207548.80
  204.67        2969.50           1491       43742.00    191683.40
  204.70        2969.75           1495       40087.00    175585.60
  204.72        2970.00           1498       36905.00    161582.90
  204.75        2970.25           1501       33555.00    146852.80
  204.78        2970.50           1505       29652.00    129706.50
  204.80        2970.75           1508       26674.00    116634.90
  204.83        2971.00           1511       23715.00    103656.10
  204.86        2971.25           1515       19617.00     85697.11
  204.89        2971.50           1518       16761.00     73191.70
  204.92        2971.75           1521       13812.00     60288.26
  204.94        2972.00           1525        9837.00     42910.29
  204.97        2972.25           1528        6973.00     30399.88
  205.00        2972.50           1531        4281.00     18648.79
  205.02        2972.75           1535        1761.00      7655.52
  205.05        2973.00           1538         666.00      2880.79
  205.08        2973.25           1541         200.00       849.19
  205.11        2973.50           1545          51.00       199.65
  205.13        2973.75           1548          34.00       125.55
  205.16        2974.00           1551          33.00       121.19
  205.19        2974.25           1555          25.00        86.31
  205.21        2974.50           1558          22.00        73.23
  205.24        2974.75           1561          25.00        86.31
  205.27        2975.00           1565          22.00        73.23
  205.30        2975.25           1568          23.00        77.59
  205.32        2975.50           1571          20.00        64.52
  205.35        2975.75           1575          24.00        81.95
  205.38        2976.00           1578          23.00        77.59
  205.40        2976.25           1581          22.00        73.23
  205.43        2976.50           1585          23.00        77.59
  205.46        2976.75           1588          23.00        77.59
  205.49        2977.00           1591          25.00        86.31
  205.51        2977.25           1595          23.00        77.59
  205.54        2977.50           1598          25.00        86.31
  205.57        2977.75           1601          23.00        77.59
  205.59        2978.00           1605          21.00        68.88
  205.62        2978.25           1608          25.00        86.31
  205.65        2978.50           1611          23.00        77.59
  205.68        2978.75           1615          22.00        73.23
  205.70        2979.00           1618          22.00        73.23
  205.73        2979.25           1621          22.00        73.23
  205.76        2979.50           1625          21.00        68.88
  205.79        2979.75           1628          21.00        68.88
  205.81        2980.00           1631          18.00        55.80
  205.84        2980.25           1635          20.00        64.52
  205.87        2980.50           1638          23.00        77.59
  205.89        2980.75           1641          24.00        81.95
  205.92        2981.00           1645          20.00        64.52
  205.95        2981.25           1648          22.00        73.23
  205.98        2981.50           1651          26.00        90.67
  206.00        2981.75           1655          23.00        77.59
  206.03        2982.00           1658          25.00        86.31
  206.06        2982.25           1661          21.00        68.88
  206.09        2982.50           1665          20.00        64.52
  206.11        2982.75           1668          17.00        51.44
  206.14        2983.00           1671          21.00        68.88
  206.17        2983.25           1675          19.00        60.16
  206.19        2983.50           1678          22.00        73.23
  206.22        2983.75           1681          17.00        51.44
  206.25        2984.00           1685          19.00        60.16
HS scan finished at 03:26:26
end
