************************************************************
  HS Scan of (1) Internal mercury lamp
************************************************************
Integration time is 0.2294 seconds per sample
dh130818Tamanrasset 22.79-5.529 4.974364pr865
************************************************************
Dead Time -------------------------  2.8E-08 
Number of Cycles Used -------------  4 
Starting Wavelength (Angstroms) ---  2950 
Final Wavelength (Angstoms) -------  2984 
Wavelength Increment (Angstroms) --  .25 
Filter Wheel #1 Position ---------- (1) Ground quartz diffuser (ND=2.32)
Filter Wheel #2 Position ---------- (1) Neutral Density 0.494



************************************************************
HS scan start time = 03:25:33
Dark Count =  5.9 


Time (GMT)  Wavelength (Ang)  Step Number  Raw Counts  Counts/Second

  205.91        2950.00           1233          17.00        48.39
  205.97        2950.25           1236          15.00        39.67
  206.00        2950.50           1239          23.00        74.54
  206.03        2950.75           1242          22.00        70.18
  206.06        2951.00           1246          20.00        61.46
  206.08        2951.25           1249          19.00        57.11
  206.11        2951.50           1252          19.00        57.11
  206.14        2951.75           1256          20.00        61.46
  206.17        2952.00           1259          16.00        44.03
  206.19        2952.25           1262          18.00        52.75
  206.22        2952.50           1266          19.00        57.11
  206.25        2952.75           1269          18.00        52.75
  206.27        2953.00           1272          22.00        70.18
  206.30        2953.25           1276          20.00        61.46
  206.33        2953.50           1279          20.00        61.46
  206.36        2953.75           1282          19.00        57.11
  206.38        2954.00           1286          20.00        61.46
  206.41        2954.25           1289          17.00        48.39
  206.44        2954.50           1292          18.00        52.75
  206.47        2954.75           1295          18.00        52.75
  206.49        2955.00           1299          19.00        57.11
  206.52        2955.25           1302          19.00        57.11
  206.55        2955.50           1305          18.00        52.75
  206.57        2955.75           1309          20.00        61.46
  206.60        2956.00           1312          23.00        74.54
  206.63        2956.25           1315          18.00        52.75
  206.66        2956.50           1319          20.00        61.46
  206.68        2956.75           1322          15.00        39.67
  206.71        2957.00           1325          17.00        48.39
  206.74        2957.25           1329          18.00        52.75
  206.77        2957.50           1332          17.00        48.39
  206.79        2957.75           1335          20.00        61.46
  206.82        2958.00           1339          20.00        61.46
  206.85        2958.25           1342          20.00        61.46
  206.87        2958.50           1345          23.00        74.54
  206.90        2958.75           1348          21.00        65.82
  206.93        2959.00           1352          23.00        74.54
  206.96        2959.25           1355          17.00        48.39
  206.98        2959.50           1358          20.00        61.46
  207.01        2959.75           1362          20.00        61.46
  207.04        2960.00           1365          24.00        78.90
  207.07        2960.25           1368          25.00        83.26
  207.09        2960.50           1372          38.00       139.93
  207.12        2960.75           1375          41.00       153.01
  207.15        2961.00           1378         101.00       414.56
  207.18        2961.25           1382         487.00      2097.33
  207.20        2961.50           1385        1262.00      5476.43
  207.23        2961.75           1388        2656.00     11556.05
  207.26        2962.00           1392        5459.00     23786.98
  207.29        2962.25           1395        8329.00     36318.95
  207.31        2962.50           1398       11219.00     48947.16
  207.34        2962.75           1402       15182.00     66278.51
  207.37        2963.00           1405       18037.00     78774.70
  207.40        2963.25           1408       20879.00     91222.69
  207.42        2963.50           1412       24908.00    108884.60
  207.45        2963.75           1415       27854.00    121810.10
  207.48        2964.00           1418       30750.00    134525.40
  207.51        2964.25           1422       34723.00    151984.10
  207.53        2964.50           1425       37784.00    165446.90
  207.56        2964.75           1428       40702.00    178290.20
  207.59        2965.00           1431       43237.00    189455.30
  207.62        2965.25           1435       47535.00    208401.30
  207.64        2965.50           1438       50659.00    222184.90
  207.67        2965.75           1441       53383.00    234212.30
  207.70        2966.00           1445       57242.00    251265.00
  207.73        2966.25           1448       59990.00    263418.40
  207.75        2966.50           1451       61743.00    271175.50
  207.78        2966.75           1455       63439.00    278683.60
  207.81        2967.00           1458       64339.00    282669.10
  207.84        2967.25           1461       64698.00    284259.20
  207.86        2967.50           1465       64291.00    282456.60
  207.89        2967.75           1468       63939.00    280897.70
  207.92        2968.00           1471       62556.00    274774.20
  207.95        2968.25           1475       60318.00    264869.50
  207.97        2968.50           1478       57807.00    253763.10
  208.00        2968.75           1481       54380.00    238616.40
  208.03        2969.00           1485       50722.00    222462.90
  208.06        2969.25           1488       47556.00    208493.90
  208.08        2969.50           1491       44228.00    193821.90
  208.11        2969.75           1495       40237.00    176242.90
  208.14        2970.00           1498       37155.00    162679.60
  208.16        2970.25           1501       34166.00    149535.40
  208.19        2970.50           1505       30096.00    131653.10
  208.22        2970.75           1508       27137.00    118663.50
  208.25        2971.00           1511       24140.00    105516.60
  208.27        2971.25           1515       20228.00     88370.52
  208.30        2971.50           1518       17211.00     75158.44
  208.33        2971.75           1521       14354.00     62656.04
  208.36        2972.00           1525       10383.00     45293.24
  208.38        2972.25           1528        7713.00     33628.43
  208.41        2972.50           1531        4985.00     21718.09
  208.44        2972.75           1535        2151.00      9353.37
  208.47        2973.00           1538         810.00      3505.57
  208.49        2973.25           1541         258.00      1098.99
  208.52        2973.50           1545          69.00       275.07
  208.55        2973.75           1548          41.00       153.01
  208.58        2974.00           1551          35.00       126.85
  208.60        2974.25           1555          26.00        87.62
  208.63        2974.50           1558          31.00       109.42
  208.66        2974.75           1561          23.00        74.54
  208.68        2975.00           1565          26.00        87.62
  208.71        2975.25           1568          21.00        65.82
  208.74        2975.50           1571          24.00        78.90
  208.77        2975.75           1575          22.00        70.18
  208.79        2976.00           1578          20.00        61.46
  208.82        2976.25           1581          22.00        70.18
  208.85        2976.50           1585          22.00        70.18
  208.88        2976.75           1588          23.00        74.54
  208.90        2977.00           1591          21.00        65.82
  208.93        2977.25           1595          20.00        61.46
  208.96        2977.50           1598          22.00        70.18
  208.98        2977.75           1601          23.00        74.54
  209.01        2978.00           1605          24.00        78.90
  209.04        2978.25           1608          21.00        65.82
  209.07        2978.50           1611          27.00        91.98
  209.09        2978.75           1615          24.00        78.90
  209.12        2979.00           1618          25.00        83.26
  209.15        2979.25           1621          25.00        83.26
  209.18        2979.50           1625          19.00        57.11
  209.20        2979.75           1628          19.00        57.11
  209.23        2980.00           1631          27.00        91.98
  209.26        2980.25           1635          23.00        74.54
  209.28        2980.50           1638          16.00        44.03
  209.31        2980.75           1641          24.00        78.90
  209.34        2981.00           1645          22.00        70.18
  209.37        2981.25           1648          20.00        61.46
  209.39        2981.50           1651          16.00        44.03
  209.42        2981.75           1655          20.00        61.46
  209.45        2982.00           1658          23.00        74.54
  209.48        2982.25           1661          20.00        61.46
  209.50        2982.50           1665          17.00        48.39
  209.53        2982.75           1668          21.00        65.82
  209.56        2983.00           1671          20.00        61.46
  209.59        2983.25           1675          18.00        52.75
  209.61        2983.50           1678          20.00        61.46
  209.64        2983.75           1681          17.00        48.39
  209.67        2984.00           1685          18.00        52.75
HS scan finished at 03:29:51
end
