************************************************************
  HS Scan of (1) Internal mercury lamp
************************************************************
Integration time is 0.2294 seconds per sample
dh110817Tamanrasset 22.79-5.529 3.358199pr865
************************************************************
Dead Time -------------------------  2.8E-08 
Number of Cycles Used -------------  4 
Starting Wavelength (Angstroms) ---  2950 
Final Wavelength (Angstoms) -------  2984 
Wavelength Increment (Angstroms) --  .25 
Filter Wheel #1 Position ---------- (1) Ground quartz diffuser (ND=2.32)
Filter Wheel #2 Position ---------- (1) Neutral Density 0.494



************************************************************
HS scan start time = 03:24:46
Dark Count =  5.1 


Time (GMT)  Wavelength (Ang)  Step Number  Raw Counts  Counts/Second

  205.13        2950.00           1233          19.00        60.59
  205.19        2950.25           1236          23.00        78.03
  205.22        2950.50           1239          17.00        51.87
  205.25        2950.75           1242          23.00        78.03
  205.27        2951.00           1246          22.00        73.67
  205.30        2951.25           1249          19.00        60.59
  205.33        2951.50           1252          17.00        51.87
  205.36        2951.75           1256          21.00        69.31
  205.38        2952.00           1259          22.00        73.67
  205.41        2952.25           1262          21.00        69.31
  205.44        2952.50           1266          23.00        78.03
  205.47        2952.75           1269          20.00        64.95
  205.49        2953.00           1272          16.00        47.52
  205.52        2953.25           1276          20.00        64.95
  205.55        2953.50           1279          18.00        56.23
  205.57        2953.75           1282          20.00        64.95
  205.60        2954.00           1286          21.00        69.31
  205.63        2954.25           1289          25.00        86.75
  205.66        2954.50           1292          23.00        78.03
  205.68        2954.75           1295          18.00        56.23
  205.71        2955.00           1299          16.00        47.52
  205.74        2955.25           1302          23.00        78.03
  205.76        2955.50           1305          20.00        64.95
  205.79        2955.75           1309          19.00        60.59
  205.82        2956.00           1312          16.00        47.52
  205.85        2956.25           1315          17.00        51.87
  205.87        2956.50           1319          18.00        56.23
  205.90        2956.75           1322          17.00        51.87
  205.93        2957.00           1325          18.00        56.23
  205.95        2957.25           1329          23.00        78.03
  205.98        2957.50           1332          19.00        60.59
  206.01        2957.75           1335          18.00        56.23
  206.04        2958.00           1339          22.00        73.67
  206.06        2958.25           1342          22.00        73.67
  206.09        2958.50           1345          19.00        60.59
  206.12        2958.75           1348          22.00        73.67
  206.14        2959.00           1352          22.00        73.67
  206.17        2959.25           1355          17.00        51.87
  206.20        2959.50           1358          19.00        60.59
  206.23        2959.75           1362          23.00        78.03
  206.25        2960.00           1365          25.00        86.75
  206.28        2960.25           1368          22.00        73.67
  206.31        2960.50           1372          35.00       130.34
  206.33        2960.75           1375          32.00       117.26
  206.36        2961.00           1378          90.00       370.10
  206.39        2961.25           1382         475.00      2048.50
  206.42        2961.50           1385        1191.00      5170.32
  206.44        2961.75           1388        2566.00     11166.96
  206.47        2962.00           1392        5443.00     23720.63
  206.50        2962.25           1395        8064.00     35164.95
  206.53        2962.50           1398       11187.00     48810.79
  206.55        2962.75           1402       15179.00     66268.90
  206.58        2963.00           1405       18342.00     80113.69
  206.61        2963.25           1408       21315.00     93136.65
  206.64        2963.50           1412       25360.00    110870.70
  206.66        2963.75           1415       28554.00    124886.30
  206.69        2964.00           1418       31539.00    137994.70
  206.72        2964.25           1422       35604.00    155861.40
  206.75        2964.50           1425       38778.00    169824.40
  206.77        2964.75           1428       41949.00    183785.10
  206.80        2965.00           1431       45008.00    197263.10
  206.83        2965.25           1435       49294.00    216164.50
  206.85        2965.50           1438       52362.00    229706.80
  206.88        2965.75           1441       55855.00    245137.60
  206.91        2966.00           1445       59583.00    261621.40
  206.94        2966.25           1448       62373.00    273967.60
  206.96        2966.50           1451       64759.00    284532.90
  206.99        2966.75           1455       66441.00    291984.70
  207.02        2967.00           1458       67101.00    294909.50
  207.05        2967.25           1461       67427.00    296354.40
  207.07        2967.50           1465       67675.00    297453.60
  207.10        2967.75           1468       67263.00    295627.50
  207.13        2968.00           1471       65824.00    289250.80
  207.16        2968.25           1475       63399.00    278510.00
  207.18        2968.50           1478       60777.00    266904.00
  207.21        2968.75           1481       57966.00    254469.70
  207.24        2969.00           1485       53672.00    235492.30
  207.26        2969.25           1488       50557.00    221738.20
  207.29        2969.50           1491       47117.00    206561.40
  207.32        2969.75           1495       42870.00    187842.00
  207.35        2970.00           1498       39736.00    174040.90
  207.37        2970.25           1501       36438.00    159529.20
  207.40        2970.50           1505       32056.00    140266.00
  207.43        2970.75           1508       28756.00    125773.00
  207.46        2971.00           1511       25657.00    112173.50
  207.48        2971.25           1515       21705.00     94845.71
  207.51        2971.50           1518       18651.00     81466.80
  207.54        2971.75           1521       15279.00     66706.43
  207.56        2972.00           1525       11196.00     48850.13
  207.59        2972.25           1528        8382.00     36553.96
  207.62        2972.50           1531        5679.00     24750.80
  207.65        2972.75           1535        2549.00     11092.81
  207.67        2973.00           1538        1154.00      5008.99
  207.70        2973.25           1541         369.00      1586.38
  207.73        2973.50           1545          63.00       252.40
  207.76        2973.75           1548          43.00       165.21
  207.78        2974.00           1551          37.00       139.06
  207.81        2974.25           1555          31.00       112.90
  207.84        2974.50           1558          33.00       121.62
  207.86        2974.75           1561          26.00        91.11
  207.89        2975.00           1565          21.00        69.31
  207.92        2975.25           1568          25.00        86.75
  207.95        2975.50           1571          21.00        69.31
  207.97        2975.75           1575          21.00        69.31
  208.00        2976.00           1578          26.00        91.11
  208.03        2976.25           1581          25.00        86.75
  208.05        2976.50           1585          27.00        95.47
  208.08        2976.75           1588          25.00        86.75
  208.11        2977.00           1591          21.00        69.31
  208.14        2977.25           1595          23.00        78.03
  208.16        2977.50           1598          22.00        73.67
  208.19        2977.75           1601          22.00        73.67
  208.22        2978.00           1605          25.00        86.75
  208.24        2978.25           1608          20.00        64.95
  208.27        2978.50           1611          20.00        64.95
  208.30        2978.75           1615          23.00        78.03
  208.33        2979.00           1618          23.00        78.03
  208.35        2979.25           1621          25.00        86.75
  208.38        2979.50           1625          28.00        99.83
  208.41        2979.75           1628          24.00        82.39
  208.43        2980.00           1631          23.00        78.03
  208.46        2980.25           1635          23.00        78.03
  208.49        2980.50           1638          27.00        95.47
  208.52        2980.75           1641          22.00        73.67
  208.54        2981.00           1645          18.00        56.23
  208.57        2981.25           1648          21.00        69.31
  208.60        2981.50           1651          21.00        69.31
  208.62        2981.75           1655          19.00        60.59
  208.65        2982.00           1658          20.00        64.95
  208.68        2982.25           1661          19.00        60.59
  208.71        2982.50           1665          16.00        47.52
  208.73        2982.75           1668          20.00        64.95
  208.76        2983.00           1671          22.00        73.67
  208.79        2983.25           1675          18.00        56.23
  208.81        2983.50           1678          19.00        60.59
  208.84        2983.75           1681          20.00        64.95
  208.87        2984.00           1685          18.00        56.23
HS scan finished at 03:29:03
end
