************************************************************
  HS Scan of (1) Internal mercury lamp
************************************************************
Integration time is 0.2294 seconds per sample
dh110818Tamanrasset 22.79-5.529 4.974364pr865
************************************************************
Dead Time -------------------------  2.8E-08 
Number of Cycles Used -------------  4 
Starting Wavelength (Angstroms) ---  2950 
Final Wavelength (Angstoms) -------  2984 
Wavelength Increment (Angstroms) --  .25 
Filter Wheel #1 Position ---------- (1) Ground quartz diffuser (ND=2.32)
Filter Wheel #2 Position ---------- (1) Neutral Density 0.494



************************************************************
HS scan start time = 03:24:04
Dark Count =  4.4 


Time (GMT)  Wavelength (Ang)  Step Number  Raw Counts  Counts/Second

  204.42        2950.00           1233          22.00        76.72
  204.49        2950.25           1236          17.00        54.93
  204.51        2950.50           1239          19.00        63.64
  204.54        2950.75           1242          19.00        63.64
  204.57        2951.00           1246          19.00        63.64
  204.60        2951.25           1249          21.00        72.36
  204.62        2951.50           1252          22.00        76.72
  204.65        2951.75           1256          21.00        72.36
  204.68        2952.00           1259          18.00        59.29
  204.70        2952.25           1262          22.00        76.72
  204.73        2952.50           1266          22.00        76.72
  204.76        2952.75           1269          18.00        59.29
  204.79        2953.00           1272          16.00        50.57
  204.81        2953.25           1276          19.00        63.64
  204.84        2953.50           1279          16.00        50.57
  204.87        2953.75           1282          18.00        59.29
  204.89        2954.00           1286          23.00        81.08
  204.92        2954.25           1289          21.00        72.36
  204.95        2954.50           1292          20.00        68.00
  204.98        2954.75           1295          21.00        72.36
  205.00        2955.00           1299          22.00        76.72
  205.03        2955.25           1302          18.00        59.29
  205.06        2955.50           1305          22.00        76.72
  205.08        2955.75           1309          15.00        46.21
  205.11        2956.00           1312          21.00        72.36
  205.14        2956.25           1315          18.00        59.29
  205.17        2956.50           1319          20.00        68.00
  205.19        2956.75           1322          16.00        50.57
  205.22        2957.00           1325          17.00        54.93
  205.25        2957.25           1329          19.00        63.64
  205.27        2957.50           1332          16.00        50.57
  205.30        2957.75           1335          19.00        63.64
  205.33        2958.00           1339          23.00        81.08
  205.36        2958.25           1342          23.00        81.08
  205.38        2958.50           1345          21.00        72.36
  205.41        2958.75           1348          20.00        68.00
  205.44        2959.00           1352          16.00        50.57
  205.47        2959.25           1355          18.00        59.29
  205.49        2959.50           1358          21.00        72.36
  205.52        2959.75           1362          20.00        68.00
  205.55        2960.00           1365          24.00        85.44
  205.57        2960.25           1368          28.00       102.88
  205.60        2960.50           1372          34.00       129.03
  205.63        2960.75           1375          47.00       185.70
  205.66        2961.00           1378         109.00       455.98
  205.68        2961.25           1382         589.00      2548.57
  205.71        2961.50           1385        1434.00      6233.00
  205.74        2961.75           1388        2746.00     11955.18
  205.76        2962.00           1392        5714.00     24906.64
  205.79        2962.25           1395        8431.00     36771.06
  205.82        2962.50           1398       11344.00     49500.12
  205.85        2962.75           1402       15119.00     66009.43
  205.87        2963.00           1405       17909.00     78220.83
  205.90        2963.25           1408       20873.00     91202.96
  205.93        2963.50           1412       24892.00    108821.10
  205.96        2963.75           1415       27725.00    121250.50
  205.98        2964.00           1418       30649.00    134088.40
  206.01        2964.25           1422       34601.00    151454.40
  206.04        2964.50           1425       37315.00    163390.10
  206.07        2964.75           1428       40379.00    176874.70
  206.09        2965.00           1431       43353.00    189973.00
  206.12        2965.25           1435       47382.00    207733.10
  206.15        2965.50           1438       50229.00    220293.60
  206.17        2965.75           1441       53171.00    233282.60
  206.20        2966.00           1445       56918.00    249839.30
  206.23        2966.25           1448       59461.00    261084.80
  206.26        2966.50           1451       61387.00    269606.50
  206.29        2966.75           1455       62763.00    275697.20
  206.31        2967.00           1458       63365.00    278362.60
  206.34        2967.25           1461       63497.00    278947.10
  206.37        2967.50           1465       63581.00    279319.00
  206.39        2967.75           1468       62483.00    274457.70
  206.42        2968.00           1471       61501.00    270111.00
  206.45        2968.25           1475       58797.00    258147.80
  206.48        2968.50           1478       56167.00    246519.70
  206.50        2968.75           1481       53214.00    233472.50
  206.53        2969.00           1485       49228.00    215876.40
  206.56        2969.25           1488       46176.00    202415.10
  206.59        2969.50           1491       42967.00    188272.40
  206.61        2969.75           1495       38956.00    170610.80
  206.64        2970.00           1498       36092.00    158010.60
  206.67        2970.25           1501       33099.00    144852.20
  206.69        2970.50           1505       28861.00    126237.10
  206.72        2970.75           1508       25816.00    112874.10
  206.75        2971.00           1511       23029.00    100652.10
  206.78        2971.25           1515       19119.00     83519.41
  206.80        2971.50           1518       16316.00     71247.49
  206.83        2971.75           1521       13231.00     57750.68
  206.86        2972.00           1525        9463.00     41279.60
  206.89        2972.25           1528        6652.00     29001.75
  206.91        2972.50           1531        4295.00     18713.38
  206.94        2972.75           1535        1753.00      7624.12
  206.97        2973.00           1538         646.00      2797.08
  206.99        2973.25           1541         202.00       861.40
  207.02        2973.50           1545          60.00       242.37
  207.05        2973.75           1548          35.00       133.39
  207.08        2974.00           1551          38.00       146.47
  207.10        2974.25           1555          28.00       102.88
  207.13        2974.50           1558          25.00        89.80
  207.16        2974.75           1561          27.00        98.52
  207.18        2975.00           1565          25.00        89.80
  207.21        2975.25           1568          25.00        89.80
  207.24        2975.50           1571          22.00        76.72
  207.27        2975.75           1575          25.00        89.80
  207.29        2976.00           1578          23.00        81.08
  207.32        2976.25           1581          21.00        72.36
  207.35        2976.50           1585          19.00        63.64
  207.37        2976.75           1588          22.00        76.72
  207.40        2977.00           1591          22.00        76.72
  207.43        2977.25           1595          21.00        72.36
  207.46        2977.50           1598          20.00        68.00
  207.48        2977.75           1601          22.00        76.72
  207.51        2978.00           1605          22.00        76.72
  207.54        2978.25           1608          19.00        63.64
  207.56        2978.50           1611          21.00        72.36
  207.59        2978.75           1615          18.00        59.29
  207.62        2979.00           1618          24.00        85.44
  207.65        2979.25           1621          23.00        81.08
  207.67        2979.50           1625          19.00        63.64
  207.70        2979.75           1628          24.00        85.44
  207.73        2980.00           1631          19.00        63.64
  207.76        2980.25           1635          19.00        63.64
  207.78        2980.50           1638          21.00        72.36
  207.81        2980.75           1641          25.00        89.80
  207.84        2981.00           1645          21.00        72.36
  207.86        2981.25           1648          22.00        76.72
  207.89        2981.50           1651          22.00        76.72
  207.92        2981.75           1655          17.00        54.93
  207.95        2982.00           1658          17.00        54.93
  207.97        2982.25           1661          25.00        89.80
  208.00        2982.50           1665          21.00        72.36
  208.03        2982.75           1668          21.00        72.36
  208.05        2983.00           1671          21.00        72.36
  208.08        2983.25           1675          18.00        59.29
  208.11        2983.50           1678          22.00        76.72
  208.14        2983.75           1681          18.00        59.29
  208.16        2984.00           1685          18.00        59.29
HS scan finished at 03:28:21
end
