************************************************************
  HS Scan of (1) Internal mercury lamp
************************************************************
Integration time is 0.2294 seconds per sample
dh160817Tamanrasset 22.79-5.529 3.276626pr865
************************************************************
Dead Time -------------------------  2.8E-08 
Number of Cycles Used -------------  4 
Starting Wavelength (Angstroms) ---  2950 
Final Wavelength (Angstoms) -------  2984 
Wavelength Increment (Angstroms) --  .25 
Filter Wheel #1 Position ---------- (1) Ground quartz diffuser (ND=2.32)
Filter Wheel #2 Position ---------- (1) Neutral Density 0.494



************************************************************
HS scan start time = 03:26:20
Dark Count =  5.9 


Time (GMT)  Wavelength (Ang)  Step Number  Raw Counts  Counts/Second

  206.68        2950.00           1233          19.00        57.11
  206.75        2950.25           1236          22.00        70.18
  206.77        2950.50           1239          20.00        61.46
  206.80        2950.75           1242          16.00        44.03
  206.83        2951.00           1246          21.00        65.82
  206.86        2951.25           1249          20.00        61.46
  206.88        2951.50           1252          17.00        48.39
  206.91        2951.75           1256          22.00        70.18
  206.94        2952.00           1259          20.00        61.46
  206.96        2952.25           1262          16.00        44.03
  206.99        2952.50           1266          20.00        61.46
  207.02        2952.75           1269          19.00        57.11
  207.05        2953.00           1272          14.00        35.31
  207.07        2953.25           1276          18.00        52.75
  207.10        2953.50           1279          18.00        52.75
  207.13        2953.75           1282          17.00        48.39
  207.15        2954.00           1286          19.00        57.11
  207.18        2954.25           1289          21.00        65.82
  207.21        2954.50           1292          20.00        61.46
  207.24        2954.75           1295          20.00        61.46
  207.26        2955.00           1299          18.00        52.75
  207.29        2955.25           1302          21.00        65.82
  207.32        2955.50           1305          18.00        52.75
  207.34        2955.75           1309          22.00        70.18
  207.37        2956.00           1312          26.00        87.62
  207.40        2956.25           1315          19.00        57.11
  207.43        2956.50           1319          19.00        57.11
  207.45        2956.75           1322          17.00        48.39
  207.48        2957.00           1325          17.00        48.39
  207.51        2957.25           1329          21.00        65.82
  207.54        2957.50           1332          25.00        83.26
  207.56        2957.75           1335          22.00        70.18
  207.59        2958.00           1339          17.00        48.39
  207.62        2958.25           1342          25.00        83.26
  207.64        2958.50           1345          19.00        57.11
  207.67        2958.75           1348          19.00        57.11
  207.70        2959.00           1352          14.00        35.31
  207.72        2959.25           1355          19.00        57.11
  207.75        2959.50           1358          22.00        70.18
  207.78        2959.75           1362          24.00        78.90
  207.81        2960.00           1365          26.00        87.62
  207.83        2960.25           1368          30.00       105.06
  207.86        2960.50           1372          34.00       122.49
  207.89        2960.75           1375          53.00       205.32
  207.91        2961.00           1378         175.00       737.16
  207.94        2961.25           1382         818.00      3540.46
  207.97        2961.50           1385        1873.00      8140.91
  208.00        2961.75           1388        3558.00     15491.03
  208.02        2962.00           1392        6833.00     29785.51
  208.05        2962.25           1395        9883.00     43108.24
  208.08        2962.50           1398       12959.00     56554.61
  208.11        2962.75           1402       16815.00     73425.00
  208.13        2963.00           1405       19672.00     85934.96
  208.16        2963.25           1408       22554.00     98563.28
  208.19        2963.50           1412       26428.00    115552.40
  208.22        2963.75           1415       29472.00    128913.10
  208.24        2964.00           1418       32488.00    142160.60
  208.27        2964.25           1422       36910.00    161601.90
  208.30        2964.50           1425       39618.00    173518.00
  208.32        2964.75           1428       43042.00    188596.20
  208.35        2965.00           1431       45864.00    201033.00
  208.38        2965.25           1435       50239.00    220331.20
  208.41        2965.50           1438       53175.00    233293.60
  208.43        2965.75           1441       56371.00    247414.70
  208.46        2966.00           1445       59972.00    263338.70
  208.49        2966.25           1448       62554.00    274765.40
  208.52        2966.50           1451       64575.00    283714.40
  208.54        2966.75           1455       66001.00    290031.50
  208.57        2967.00           1458       66372.00    291675.40
  208.60        2967.25           1461       66467.00    292096.30
  208.63        2967.50           1465       65783.00    289065.60
  208.65        2967.75           1468       64941.00    285335.50
  208.68        2968.00           1471       63672.00    279715.40
  208.71        2968.25           1475       60942.00    267630.60
  208.74        2968.50           1478       58061.00    254886.30
  208.76        2968.75           1481       55012.00    241408.80
  208.79        2969.00           1485       50647.00    222131.90
  208.82        2969.25           1488       47603.00    208701.20
  208.85        2969.50           1491       44246.00    193901.30
  208.87        2969.75           1495       39960.00    175023.50
  208.90        2970.00           1498       36816.00    161188.40
  208.93        2970.25           1501       33723.00    147588.20
  208.95        2970.50           1505       29558.00    129290.70
  208.98        2970.75           1508       26359.00    115249.70
  209.01        2971.00           1511       23321.00    101925.60
  209.04        2971.25           1515       19359.00     84563.99
  209.06        2971.50           1518       16223.00     70833.90
  209.09        2971.75           1521       13104.00     57188.71
  209.12        2972.00           1525        9372.00     40875.44
  209.15        2972.25           1528        6266.00     27309.89
  209.17        2972.50           1531        3745.00     16306.92
  209.20        2972.75           1535        1452.00      6304.95
  209.23        2973.00           1538         547.00      2358.92
  209.25        2973.25           1541         151.00       632.53
  209.28        2973.50           1545          50.00       192.24
  209.31        2973.75           1548          41.00       153.01
  209.34        2974.00           1551          32.00       113.78
  209.36        2974.25           1555          26.00        87.62
  209.39        2974.50           1558          26.00        87.62
  209.42        2974.75           1561          25.00        83.26
  209.45        2975.00           1565          27.00        91.98
  209.47        2975.25           1568          22.00        70.18
  209.50        2975.50           1571          22.00        70.18
  209.53        2975.75           1575          23.00        74.54
  209.55        2976.00           1578          24.00        78.90
  209.58        2976.25           1581          23.00        74.54
  209.61        2976.50           1585          23.00        74.54
  209.64        2976.75           1588          25.00        83.26
  209.66        2977.00           1591          20.00        61.46
  209.69        2977.25           1595          20.00        61.46
  209.72        2977.50           1598          25.00        83.26
  209.74        2977.75           1601          24.00        78.90
  209.77        2978.00           1605          19.00        57.11
  209.80        2978.25           1608          16.00        44.03
  209.82        2978.50           1611          24.00        78.90
  209.85        2978.75           1615          24.00        78.90
  209.88        2979.00           1618          20.00        61.46
  209.91        2979.25           1621          19.00        57.11
  209.93        2979.50           1625          19.00        57.11
  209.96        2979.75           1628          23.00        74.54
  209.99        2980.00           1631          20.00        61.46
  210.02        2980.25           1635          19.00        57.11
  210.04        2980.50           1638          17.00        48.39
  210.07        2980.75           1641          24.00        78.90
  210.10        2981.00           1645          22.00        70.18
  210.12        2981.25           1648          21.00        65.82
  210.15        2981.50           1651          20.00        61.46
  210.18        2981.75           1655          22.00        70.18
  210.21        2982.00           1658          22.00        70.18
  210.23        2982.25           1661          17.00        48.39
  210.26        2982.50           1665          17.00        48.39
  210.29        2982.75           1668          21.00        65.82
  210.31        2983.00           1671          24.00        78.90
  210.34        2983.25           1675          20.00        61.46
  210.37        2983.50           1678          17.00        48.39
  210.40        2983.75           1681          21.00        65.82
  210.42        2984.00           1685          21.00        65.82
HS scan finished at 03:30:37
end
