************************************************************
  HS Scan of (1) Internal mercury lamp
************************************************************
Integration time is 0.2294 seconds per sample
dh170818Tamanrasset 22.79-5.529 4.974364pr865
************************************************************
Dead Time -------------------------  2.8E-08 
Number of Cycles Used -------------  4 
Starting Wavelength (Angstroms) ---  2950 
Final Wavelength (Angstoms) -------  2984 
Wavelength Increment (Angstroms) --  .25 
Filter Wheel #1 Position ---------- (1) Ground quartz diffuser (ND=2.32)
Filter Wheel #2 Position ---------- (1) Neutral Density 0.494



************************************************************
HS scan start time = 03:27:06
Dark Count =  4.6 


Time (GMT)  Wavelength (Ang)  Step Number  Raw Counts  Counts/Second

  207.45        2950.00           1233          21.00        71.49
  207.52        2950.25           1236          19.00        62.77
  207.55        2950.50           1239          21.00        71.49
  207.57        2950.75           1242          18.00        58.41
  207.60        2951.00           1246          20.00        67.13
  207.63        2951.25           1249          21.00        71.49
  207.65        2951.50           1252          21.00        71.49
  207.68        2951.75           1256          19.00        62.77
  207.71        2952.00           1259          21.00        71.49
  207.74        2952.25           1262          18.00        58.41
  207.76        2952.50           1266          22.00        75.85
  207.79        2952.75           1269          18.00        58.41
  207.82        2953.00           1272          20.00        67.13
  207.84        2953.25           1276          23.00        80.21
  207.87        2953.50           1279          18.00        58.41
  207.90        2953.75           1282          20.00        67.13
  207.93        2954.00           1286          21.00        71.49
  207.95        2954.25           1289          20.00        67.13
  207.98        2954.50           1292          23.00        80.21
  208.01        2954.75           1295          17.00        54.05
  208.03        2955.00           1299          22.00        75.85
  208.06        2955.25           1302          20.00        67.13
  208.09        2955.50           1305          18.00        58.41
  208.12        2955.75           1309          17.00        54.05
  208.14        2956.00           1312          21.00        71.49
  208.17        2956.25           1315          21.00        71.49
  208.20        2956.50           1319          20.00        67.13
  208.22        2956.75           1322          23.00        80.21
  208.25        2957.00           1325          17.00        54.05
  208.28        2957.25           1329          22.00        75.85
  208.31        2957.50           1332          20.00        67.13
  208.33        2957.75           1335          19.00        62.77
  208.36        2958.00           1339          20.00        67.13
  208.39        2958.25           1342          21.00        71.49
  208.41        2958.50           1345          21.00        71.49
  208.44        2958.75           1348          21.00        71.49
  208.47        2959.00           1352          15.00        45.34
  208.50        2959.25           1355          22.00        75.85
  208.52        2959.50           1358          28.00       102.01
  208.55        2959.75           1362          22.00        75.85
  208.58        2960.00           1365          26.00        93.29
  208.61        2960.25           1368          33.00       123.80
  208.63        2960.50           1372          33.00       123.80
  208.66        2960.75           1375          44.00       171.75
  208.69        2961.00           1378         126.00       529.21
  208.71        2961.25           1382         622.00      2691.57
  208.74        2961.50           1385        1541.00      6698.73
  208.77        2961.75           1388        3093.00     13468.03
  208.80        2962.00           1392        6175.00     26918.28
  208.82        2962.25           1395        9231.00     40265.08
  208.85        2962.50           1398       12382.00     54037.24
  208.88        2962.75           1402       16213.00     70795.82
  208.90        2963.00           1405       19262.00     84144.84
  208.93        2963.25           1408       22690.00     99165.11
  208.96        2963.50           1412       26545.00    116071.50
  208.99        2963.75           1415       29730.00    130051.60
  209.02        2964.00           1418       32773.00    143418.70
  209.04        2964.25           1422       36870.00    161431.60
  209.07        2964.50           1425       39996.00    175187.70
  209.10        2964.75           1428       43496.00    190602.10
  209.13        2965.00           1431       46363.00    203238.70
  209.15        2965.25           1435       50902.00    223263.20
  209.18        2965.50           1438       54039.00    237115.70
  209.21        2965.75           1441       57342.00    251712.90
  209.23        2966.00           1445       61472.00    269981.80
  209.26        2966.25           1448       64020.00    281262.20
  209.29        2966.50           1451       65878.00    289492.30
  209.32        2966.75           1455       67899.00    298448.80
  209.34        2967.00           1458       68189.00    299734.30
  209.37        2967.25           1461       68573.00    301436.70
  209.40        2967.50           1465       68222.00    299880.60
  209.43        2967.75           1468       67677.00    297464.70
  209.45        2968.00           1471       66330.00    291495.00
  209.48        2968.25           1475       63277.00    277972.00
  209.51        2968.50           1478       60383.00    265162.80
  209.53        2968.75           1481       56997.00    250187.70
  209.56        2969.00           1485       52773.00    231523.90
  209.59        2969.25           1488       49352.00    216422.60
  209.62        2969.50           1491       45651.00    200099.70
  209.64        2969.75           1495       41156.00    180295.00
  209.67        2970.00           1498       38175.00    167173.00
  209.70        2970.25           1501       34890.00    152724.10
  209.73        2970.50           1505       30426.00    133108.10
  209.75        2970.75           1508       27305.00    119406.40
  209.78        2971.00           1511       24137.00    105509.20
  209.81        2971.25           1515       20129.00     87942.53
  209.84        2971.50           1518       16790.00     73321.25
  209.86        2971.75           1521       13984.00     61043.22
  209.89        2972.00           1525        9839.00     42921.65
  209.92        2972.25           1528        6664.00     29053.27
  209.94        2972.50           1531        4170.00     18167.04
  209.97        2972.75           1535        1593.00      6925.49
  210.00        2973.00           1538         552.00      2386.38
  210.03        2973.25           1541         147.00       620.76
  210.05        2973.50           1545          50.00       197.91
  210.08        2973.75           1548          42.00       163.03
  210.11        2974.00           1551          32.00       119.44
  210.14        2974.25           1555          30.00       110.72
  210.16        2974.50           1558          26.00        93.29
  210.19        2974.75           1561          28.00       102.01
  210.22        2975.00           1565          25.00        88.93
  210.24        2975.25           1568          24.00        84.57
  210.27        2975.50           1571          26.00        93.29
  210.30        2975.75           1575          22.00        75.85
  210.33        2976.00           1578          25.00        88.93
  210.35        2976.25           1581          23.00        80.21
  210.38        2976.50           1585          23.00        80.21
  210.41        2976.75           1588          22.00        75.85
  210.43        2977.00           1591          26.00        93.29
  210.46        2977.25           1595          22.00        75.85
  210.49        2977.50           1598          23.00        80.21
  210.52        2977.75           1601          22.00        75.85
  210.54        2978.00           1605          23.00        80.21
  210.57        2978.25           1608          18.00        58.41
  210.60        2978.50           1611          23.00        80.21
  210.62        2978.75           1615          20.00        67.13
  210.65        2979.00           1618          25.00        88.93
  210.68        2979.25           1621          19.00        62.77
  210.71        2979.50           1625          20.00        67.13
  210.73        2979.75           1628          20.00        67.13
  210.76        2980.00           1631          21.00        71.49
  210.79        2980.25           1635          22.00        75.85
  210.81        2980.50           1638          21.00        71.49
  210.84        2980.75           1641          20.00        67.13
  210.87        2981.00           1645          17.00        54.05
  210.90        2981.25           1648          29.00       106.36
  210.92        2981.50           1651          21.00        71.49
  210.95        2981.75           1655          22.00        75.85
  210.98        2982.00           1658          21.00        71.49
  211.00        2982.25           1661          25.00        88.93
  211.03        2982.50           1665          20.00        67.13
  211.06        2982.75           1668          16.00        49.69
  211.09        2983.00           1671          18.00        58.41
  211.11        2983.25           1675          18.00        58.41
  211.14        2983.50           1678          19.00        62.77
  211.17        2983.75           1681          21.00        71.49
  211.19        2984.00           1685          26.00        93.29
HS scan finished at 03:31:23
end
