************************************************************
  HS Scan of (1) Internal mercury lamp
************************************************************
Integration time is 0.2294 seconds per sample
dh120817Tamanrasset 22.79-5.529 3.286823pr865
************************************************************
Dead Time -------------------------  2.8E-08 
Number of Cycles Used -------------  4 
Starting Wavelength (Angstroms) ---  2950 
Final Wavelength (Angstoms) -------  2984 
Wavelength Increment (Angstroms) --  .25 
Filter Wheel #1 Position ---------- (1) Ground quartz diffuser (ND=2.32)
Filter Wheel #2 Position ---------- (1) Neutral Density 0.494



************************************************************
HS scan start time = 03:24:54
Dark Count =  6.6 


Time (GMT)  Wavelength (Ang)  Step Number  Raw Counts  Counts/Second

  205.25        2950.00           1233          17.00        45.34
  205.32        2950.25           1236          20.00        58.41
  205.34        2950.50           1239          18.00        49.69
  205.37        2950.75           1242          22.00        67.13
  205.40        2951.00           1246          19.00        54.05
  205.43        2951.25           1249          17.00        45.34
  205.45        2951.50           1252          20.00        58.41
  205.48        2951.75           1256          18.00        49.69
  205.51        2952.00           1259          19.00        54.05
  205.53        2952.25           1262          17.00        45.34
  205.56        2952.50           1266          19.00        54.05
  205.59        2952.75           1269          19.00        54.05
  205.62        2953.00           1272          19.00        54.05
  205.64        2953.25           1276          14.00        32.26
  205.67        2953.50           1279          21.00        62.77
  205.70        2953.75           1282          16.00        40.98
  205.72        2954.00           1286          14.00        32.26
  205.75        2954.25           1289          21.00        62.77
  205.78        2954.50           1292          21.00        62.77
  205.81        2954.75           1295          18.00        49.69
  205.83        2955.00           1299          19.00        54.05
  205.86        2955.25           1302          22.00        67.13
  205.89        2955.50           1305          18.00        49.69
  205.91        2955.75           1309          17.00        45.34
  205.94        2956.00           1312          24.00        75.85
  205.97        2956.25           1315          21.00        62.77
  206.00        2956.50           1319          19.00        54.05
  206.02        2956.75           1322          22.00        67.13
  206.05        2957.00           1325          18.00        49.69
  206.08        2957.25           1329          18.00        49.69
  206.11        2957.50           1332          18.00        49.69
  206.13        2957.75           1335          16.00        40.98
  206.16        2958.00           1339          18.00        49.69
  206.19        2958.25           1342          16.00        40.98
  206.21        2958.50           1345          15.00        36.62
  206.24        2958.75           1348          18.00        49.69
  206.27        2959.00           1352          20.00        58.41
  206.30        2959.25           1355          19.00        54.05
  206.32        2959.50           1358          21.00        62.77
  206.35        2959.75           1362          26.00        84.57
  206.38        2960.00           1365          21.00        62.77
  206.40        2960.25           1368          33.00       115.08
  206.43        2960.50           1372          34.00       119.44
  206.46        2960.75           1375          41.00       149.96
  206.49        2961.00           1378         108.00       442.03
  206.51        2961.25           1382         543.00      2338.43
  206.54        2961.50           1385        1302.00      5647.80
  206.57        2961.75           1388        2787.00     12124.43
  206.60        2962.00           1392        5877.00     25608.59
  206.62        2962.25           1395        8370.00     36494.99
  206.65        2962.50           1398       11573.00     50491.57
  206.68        2962.75           1402       15443.00     67417.47
  206.71        2963.00           1405       18430.00     80492.46
  206.73        2963.25           1408       21607.00     94409.66
  206.76        2963.50           1412       25419.00    111122.90
  206.79        2963.75           1415       28663.00    125358.20
  206.81        2964.00           1418       31815.00    139200.60
  206.84        2964.25           1422       35564.00    155678.90
  206.87        2964.50           1425       38775.00    169804.60
  206.90        2964.75           1428       41948.00    183774.10
  206.92        2965.00           1431       44834.00    196489.60
  206.95        2965.25           1435       49183.00    215668.10
  206.98        2965.50           1438       52272.00    229302.70
  207.01        2965.75           1441       55268.00    242536.90
  207.03        2966.00           1445       59392.00    260769.80
  207.06        2966.25           1448       62065.00    272597.60
  207.09        2966.50           1451       63882.00    280642.10
  207.12        2966.75           1455       65554.00    288048.00
  207.14        2967.00           1458       66240.00    291087.40
  207.17        2967.25           1461       66318.00    291433.00
  207.20        2967.50           1465       66016.00    290094.80
  207.22        2967.75           1468       65618.00    288331.50
  207.25        2968.00           1471       64222.00    282147.90
  207.28        2968.25           1475       61430.00    269787.10
  207.31        2968.50           1478       58819.00    258235.40
  207.33        2968.75           1481       55803.00    244901.20
  207.36        2969.00           1485       51877.00    227558.70
  207.39        2969.25           1488       48980.00    214772.40
  207.42        2969.50           1491       45475.00    199315.00
  207.44        2969.75           1495       41359.00    181180.10
  207.47        2970.00           1498       38262.00    167547.00
  207.50        2970.25           1501       35043.00    153388.00
  207.53        2970.50           1505       30545.00    133621.90
  207.55        2970.75           1508       27632.00    120832.70
  207.58        2971.00           1511       24552.00    107320.30
  207.61        2971.25           1515       20428.00     89243.66
  207.64        2971.50           1518       17365.00     75829.54
  207.66        2971.75           1521       14570.00     63597.90
  207.69        2972.00           1525       10481.00     45718.47
  207.72        2972.25           1528        7576.00     33027.04
  207.75        2972.50           1531        5017.00     21854.70
  207.77        2972.75           1535        2201.00      9568.39
  207.80        2973.00           1538         859.00      3716.17
  207.83        2973.25           1541         280.00      1191.84
  207.85        2973.50           1545          59.00       228.42
  207.88        2973.75           1548          39.00       141.24
  207.91        2974.00           1551          32.00       110.72
  207.94        2974.25           1555          29.00        97.65
  207.96        2974.50           1558          30.00       102.01
  207.99        2974.75           1561          27.00        88.93
  208.02        2975.00           1565          24.00        75.85
  208.04        2975.25           1568          24.00        75.85
  208.07        2975.50           1571          19.00        54.05
  208.10        2975.75           1575          23.00        71.49
  208.13        2976.00           1578          22.00        67.13
  208.15        2976.25           1581          23.00        71.49
  208.18        2976.50           1585          22.00        67.13
  208.21        2976.75           1588          18.00        49.69
  208.23        2977.00           1591          19.00        54.05
  208.26        2977.25           1595          27.00        88.93
  208.29        2977.50           1598          25.00        80.21
  208.32        2977.75           1601          16.00        40.98
  208.34        2978.00           1605          23.00        71.49
  208.37        2978.25           1608          20.00        58.41
  208.40        2978.50           1611          23.00        71.49
  208.42        2978.75           1615          22.00        67.13
  208.45        2979.00           1618          22.00        67.13
  208.48        2979.25           1621          24.00        75.85
  208.51        2979.50           1625          22.00        67.13
  208.53        2979.75           1628          24.00        75.85
  208.56        2980.00           1631          23.00        71.49
  208.59        2980.25           1635          19.00        54.05
  208.62        2980.50           1638          22.00        67.13
  208.64        2980.75           1641          22.00        67.13
  208.67        2981.00           1645          22.00        67.13
  208.70        2981.25           1648          17.00        45.34
  208.72        2981.50           1651          23.00        71.49
  208.75        2981.75           1655          21.00        62.77
  208.78        2982.00           1658          24.00        75.85
  208.81        2982.25           1661          20.00        58.41
  208.83        2982.50           1665          20.00        58.41
  208.86        2982.75           1668          27.00        88.93
  208.89        2983.00           1671          22.00        67.13
  208.92        2983.25           1675          27.00        88.93
  208.94        2983.50           1678          20.00        58.41
  208.97        2983.75           1681          19.00        54.05
  209.00        2984.00           1685          21.00        62.77
HS scan finished at 03:29:11
end
