************************************************************
  HS Scan of (1) Internal mercury lamp
************************************************************
Integration time is 0.2294 seconds per sample
dh130817Tamanrasset 22.79-5.529 3.393887pr865
************************************************************
Dead Time -------------------------  2.8E-08 
Number of Cycles Used -------------  4 
Starting Wavelength (Angstroms) ---  2950 
Final Wavelength (Angstoms) -------  2984 
Wavelength Increment (Angstroms) --  .25 
Filter Wheel #1 Position ---------- (1) Ground quartz diffuser (ND=2.32)
Filter Wheel #2 Position ---------- (1) Neutral Density 0.494



************************************************************
HS scan start time = 03:25:16
Dark Count =  5.4 


Time (GMT)  Wavelength (Ang)  Step Number  Raw Counts  Counts/Second

  205.63        2950.00           1233          19.00        59.29
  205.70        2950.25           1236          18.00        54.93
  205.72        2950.50           1239          20.00        63.64
  205.75        2950.75           1242          19.00        59.29
  205.78        2951.00           1246          19.00        59.29
  205.80        2951.25           1249          19.00        59.29
  205.83        2951.50           1252          19.00        59.29
  205.86        2951.75           1256          21.00        68.00
  205.89        2952.00           1259          23.00        76.72
  205.91        2952.25           1262          15.00        41.85
  205.94        2952.50           1266          19.00        59.29
  205.97        2952.75           1269          22.00        72.36
  205.99        2953.00           1272          19.00        59.29
  206.02        2953.25           1276          23.00        76.72
  206.05        2953.50           1279          20.00        63.64
  206.08        2953.75           1282          22.00        72.36
  206.10        2954.00           1286          20.00        63.64
  206.13        2954.25           1289          22.00        72.36
  206.16        2954.50           1292          21.00        68.00
  206.18        2954.75           1295          18.00        54.93
  206.21        2955.00           1299          22.00        72.36
  206.24        2955.25           1302          22.00        72.36
  206.27        2955.50           1305          22.00        72.36
  206.29        2955.75           1309          19.00        59.29
  206.32        2956.00           1312          19.00        59.29
  206.35        2956.25           1315          18.00        54.93
  206.37        2956.50           1319          17.00        50.57
  206.40        2956.75           1322          23.00        76.72
  206.43        2957.00           1325          22.00        72.36
  206.46        2957.25           1329          16.00        46.21
  206.48        2957.50           1332          19.00        59.29
  206.51        2957.75           1335          21.00        68.00
  206.54        2958.00           1339          21.00        68.00
  206.56        2958.25           1342          20.00        63.64
  206.59        2958.50           1345          19.00        59.29
  206.62        2958.75           1348          21.00        68.00
  206.65        2959.00           1352          23.00        76.72
  206.67        2959.25           1355          17.00        50.57
  206.70        2959.50           1358          22.00        72.36
  206.73        2959.75           1362          22.00        72.36
  206.75        2960.00           1365          31.00       111.60
  206.78        2960.25           1368          29.00       102.88
  206.81        2960.50           1372          32.00       115.96
  206.84        2960.75           1375          49.00       190.06
  206.86        2961.00           1378         191.00       809.09
  206.89        2961.25           1382         838.00      3629.84
  206.92        2961.50           1385        1866.00      8112.57
  206.95        2961.75           1388        3623.00     15776.80
  206.97        2962.00           1392        7079.00     30861.88
  207.00        2962.25           1395       10094.00     44032.46
  207.03        2962.50           1398       13293.00     58017.45
  207.05        2962.75           1402       17334.00     75699.08
  207.08        2963.00           1405       20235.00     88403.38
  207.11        2963.25           1408       23663.00    103427.30
  207.14        2963.50           1412       27612.00    120750.20
  207.16        2963.75           1415       30501.00    133434.00
  207.19        2964.00           1418       33612.00    147102.50
  207.22        2964.25           1422       38115.00    166905.50
  207.25        2964.50           1425       41150.00    180265.10
  207.27        2964.75           1428       44067.00    193114.60
  207.30        2965.00           1431       47462.00    208081.50
  207.33        2965.25           1435       52018.00    228186.50
  207.36        2965.50           1438       55321.00    242776.40
  207.38        2965.75           1441       58745.00    257913.40
  207.41        2966.00           1445       62420.00    274174.40
  207.44        2966.25           1448       64629.00    283955.80
  207.47        2966.50           1451       66496.00    292227.00
  207.49        2966.75           1455       67992.00    298857.50
  207.52        2967.00           1458       68338.00    300391.40
  207.55        2967.25           1461       68192.00    299744.10
  207.57        2967.50           1465       67949.00    298666.90
  207.60        2967.75           1468       67106.00    294930.30
  207.63        2968.00           1471       65573.00    288137.50
  207.66        2968.25           1475       62552.00    274758.70
  207.68        2968.50           1478       59392.00    260775.10
  207.71        2968.75           1481       56278.00    247005.90
  207.74        2969.00           1485       51645.00    226539.70
  207.77        2969.25           1488       48554.00    212898.30
  207.79        2969.50           1491       44928.00    196909.20
  207.82        2969.75           1495       40745.00    178481.70
  207.85        2970.00           1498       37631.00    164775.90
  207.87        2970.25           1501       34223.00    149788.20
  207.90        2970.50           1505       30076.00    131567.50
  207.93        2970.75           1508       26884.00    117555.50
  207.96        2971.00           1511       23854.00    104264.70
  207.98        2971.25           1515       19636.00     85779.46
  208.01        2971.50           1518       16633.00     72630.56
  208.04        2971.75           1521       13393.00     58454.80
  208.07        2972.00           1525        9423.00     41100.45
  208.09        2972.25           1528        6344.00     27652.62
  208.12        2972.50           1531        3774.00     16435.64
  208.15        2972.75           1535        1455.00      6320.21
  208.17        2973.00           1538         525.00      2265.18
  208.20        2973.25           1541         142.00       595.48
  208.23        2973.50           1545          54.00       211.86
  208.26        2973.75           1548          40.00       150.83
  208.28        2974.00           1551          34.00       124.67
  208.31        2974.25           1555          31.00       111.60
  208.34        2974.50           1558          24.00        81.08
  208.37        2974.75           1561          28.00        98.52
  208.39        2975.00           1565          20.00        63.64
  208.42        2975.25           1568          24.00        81.08
  208.45        2975.50           1571          22.00        72.36
  208.47        2975.75           1575          24.00        81.08
  208.50        2976.00           1578          21.00        68.00
  208.53        2976.25           1581          23.00        76.72
  208.56        2976.50           1585          23.00        76.72
  208.58        2976.75           1588          26.00        89.80
  208.61        2977.00           1591          23.00        76.72
  208.64        2977.25           1595          25.00        85.44
  208.66        2977.50           1598          21.00        68.00
  208.69        2977.75           1601          16.00        46.21
  208.72        2978.00           1605          22.00        72.36
  208.75        2978.25           1608          22.00        72.36
  208.77        2978.50           1611          21.00        68.00
  208.80        2978.75           1615          21.00        68.00
  208.83        2979.00           1618          21.00        68.00
  208.85        2979.25           1621          22.00        72.36
  208.88        2979.50           1625          22.00        72.36
  208.91        2979.75           1628          23.00        76.72
  208.94        2980.00           1631          24.00        81.08
  208.96        2980.25           1635          27.00        94.16
  208.99        2980.50           1638          19.00        59.29
  209.02        2980.75           1641          23.00        76.72
  209.04        2981.00           1645          23.00        76.72
  209.07        2981.25           1648          19.00        59.29
  209.10        2981.50           1651          15.00        41.85
  209.13        2981.75           1655          22.00        72.36
  209.15        2982.00           1658          18.00        54.93
  209.18        2982.25           1661          23.00        76.72
  209.21        2982.50           1665          19.00        59.29
  209.23        2982.75           1668          23.00        76.72
  209.26        2983.00           1671          23.00        76.72
  209.29        2983.25           1675          21.00        68.00
  209.32        2983.50           1678          20.00        63.64
  209.34        2983.75           1681          20.00        63.64
  209.37        2984.00           1685          20.00        63.64
HS scan finished at 03:29:34
end
