************************************************************
  HS Scan of (1) Internal mercury lamp
************************************************************
Integration time is 0.2294 seconds per sample
dh150817Tamanrasset 22.79-5.529 3.429576pr865
************************************************************
Dead Time -------------------------  2.8E-08 
Number of Cycles Used -------------  4 
Starting Wavelength (Angstroms) ---  2950 
Final Wavelength (Angstoms) -------  2984 
Wavelength Increment (Angstroms) --  .25 
Filter Wheel #1 Position ---------- (1) Ground quartz diffuser (ND=2.32)
Filter Wheel #2 Position ---------- (1) Neutral Density 0.494



************************************************************
HS scan start time = 03:26:18
Dark Count =  6.5 


Time (GMT)  Wavelength (Ang)  Step Number  Raw Counts  Counts/Second

  206.65        2950.00           1233          20.00        58.85
  206.72        2950.25           1236          20.00        58.85
  206.74        2950.50           1239          19.00        54.49
  206.77        2950.75           1242          22.00        67.57
  206.80        2951.00           1246          15.00        37.05
  206.83        2951.25           1249          19.00        54.49
  206.85        2951.50           1252          21.00        63.21
  206.88        2951.75           1256          24.00        76.29
  206.91        2952.00           1259          17.00        45.77
  206.93        2952.25           1262          20.00        58.85
  206.96        2952.50           1266          21.00        63.21
  206.99        2952.75           1269          21.00        63.21
  207.02        2953.00           1272          19.00        54.49
  207.04        2953.25           1276          22.00        67.57
  207.07        2953.50           1279          17.00        45.77
  207.10        2953.75           1282          19.00        54.49
  207.12        2954.00           1286          21.00        63.21
  207.15        2954.25           1289          18.00        50.13
  207.18        2954.50           1292          22.00        67.57
  207.21        2954.75           1295          19.00        54.49
  207.23        2955.00           1299          25.00        80.65
  207.26        2955.25           1302          18.00        50.13
  207.29        2955.50           1305          21.00        63.21
  207.31        2955.75           1309          21.00        63.21
  207.34        2956.00           1312          22.00        67.57
  207.37        2956.25           1315          23.00        71.93
  207.40        2956.50           1319          23.00        71.93
  207.42        2956.75           1322          19.00        54.49
  207.45        2957.00           1325          22.00        67.57
  207.48        2957.25           1329          18.00        50.13
  207.51        2957.50           1332          18.00        50.13
  207.53        2957.75           1335          21.00        63.21
  207.56        2958.00           1339          17.00        45.77
  207.59        2958.25           1342          24.00        76.29
  207.61        2958.50           1345          19.00        54.49
  207.64        2958.75           1348          19.00        54.49
  207.67        2959.00           1352          23.00        71.93
  207.70        2959.25           1355          19.00        54.49
  207.72        2959.50           1358          23.00        71.93
  207.75        2959.75           1362          21.00        63.21
  207.78        2960.00           1365          21.00        63.21
  207.80        2960.25           1368          31.00       106.80
  207.83        2960.50           1372          39.00       141.67
  207.86        2960.75           1375          51.00       193.99
  207.89        2961.00           1378         156.00       651.71
  207.91        2961.25           1382         734.00      3171.60
  207.94        2961.50           1385        1710.00      7427.44
  207.97        2961.75           1388        3441.00     14977.95
  207.99        2962.00           1392        6595.00     28743.70
  208.02        2962.25           1395        9393.00     40964.57
  208.05        2962.50           1398       12516.00     54614.85
  208.08        2962.75           1402       16534.00     72192.43
  208.10        2963.00           1405       19714.00     86116.29
  208.13        2963.25           1408       22829.00     99766.10
  208.16        2963.50           1412       26760.00    117006.50
  208.19        2963.75           1415       30096.00    131650.50
  208.21        2964.00           1418       33214.00    145348.40
  208.24        2964.25           1422       37165.00    162721.00
  208.27        2964.50           1425       40485.00    177332.10
  208.30        2964.75           1428       43601.00    191056.40
  208.32        2965.00           1431       46664.00    204557.60
  208.35        2965.25           1435       51166.00    224420.20
  208.38        2965.50           1438       54278.00    238163.20
  208.40        2965.75           1441       57080.00    250546.20
  208.43        2966.00           1445       61424.00    269761.00
  208.46        2966.25           1448       63998.00    281156.30
  208.49        2966.50           1451       66081.00    290383.30
  208.51        2966.75           1455       67800.00    298001.50
  208.54        2967.00           1458       68329.00    300346.50
  208.57        2967.25           1461       68521.00    301197.80
  208.60        2967.50           1465       68115.00    299397.80
  208.62        2967.75           1468       67553.00    296906.60
  208.65        2968.00           1471       66667.00    292979.90
  208.68        2968.25           1475       63578.00    279296.50
  208.71        2968.50           1478       60646.00    266318.10
  208.73        2968.75           1481       57355.00    251762.00
  208.76        2969.00           1485       53121.00    233052.50
  208.79        2969.25           1488       49256.00    215990.70
  208.81        2969.50           1491       46048.00    201841.50
  208.84        2969.75           1495       41535.00    181955.60
  208.87        2970.00           1498       38375.00    168044.70
  208.90        2970.25           1501       35228.00    154201.90
  208.92        2970.50           1505       30670.00    134171.40
  208.95        2970.75           1508       27530.00    120385.50
  208.98        2971.00           1511       24458.00    106908.50
  209.01        2971.25           1515       20246.00     88446.76
  209.03        2971.50           1518       16955.00     74035.18
  209.06        2971.75           1521       14099.00     61537.95
  209.09        2972.00           1525        9962.00     43450.83
  209.11        2972.25           1528        6794.00     29612.60
  209.14        2972.50           1531        4291.00     18686.76
  209.17        2972.75           1535        1633.00      7091.64
  209.20        2973.00           1538         560.00      2412.98
  209.22        2973.25           1541         156.00       651.71
  209.25        2973.50           1545          50.00       189.63
  209.28        2973.75           1548          36.00       128.60
  209.31        2974.00           1551          37.00       132.96
  209.33        2974.25           1555          32.00       111.16
  209.36        2974.50           1558          24.00        76.29
  209.39        2974.75           1561          25.00        80.65
  209.41        2975.00           1565          23.00        71.93
  209.44        2975.25           1568          25.00        80.65
  209.47        2975.50           1571          28.00        93.72
  209.50        2975.75           1575          20.00        58.85
  209.52        2976.00           1578          24.00        76.29
  209.55        2976.25           1581          26.00        85.00
  209.58        2976.50           1585          19.00        54.49
  209.60        2976.75           1588          25.00        80.65
  209.63        2977.00           1591          27.00        89.36
  209.66        2977.25           1595          23.00        71.93
  209.69        2977.50           1598          21.00        63.21
  209.71        2977.75           1601          24.00        76.29
  209.74        2978.00           1605          18.00        50.13
  209.77        2978.25           1608          22.00        67.57
  209.79        2978.50           1611          21.00        63.21
  209.82        2978.75           1615          25.00        80.65
  209.85        2979.00           1618          27.00        89.36
  209.88        2979.25           1621          22.00        67.57
  209.90        2979.50           1625          22.00        67.57
  209.93        2979.75           1628          20.00        58.85
  209.96        2980.00           1631          21.00        63.21
  209.98        2980.25           1635          24.00        76.29
  210.01        2980.50           1638          26.00        85.00
  210.04        2980.75           1641          20.00        58.85
  210.07        2981.00           1645          19.00        54.49
  210.09        2981.25           1648          24.00        76.29
  210.12        2981.50           1651          23.00        71.93
  210.15        2981.75           1655          21.00        63.21
  210.17        2982.00           1658          22.00        67.57
  210.20        2982.25           1661          21.00        63.21
  210.23        2982.50           1665          17.00        45.77
  210.26        2982.75           1668          19.00        54.49
  210.28        2983.00           1671          24.00        76.29
  210.31        2983.25           1675          19.00        54.49
  210.34        2983.50           1678          19.00        54.49
  210.36        2983.75           1681          22.00        67.57
  210.39        2984.00           1685          21.00        63.21
HS scan finished at 03:30:35
end
