************************************************************
  HS Scan of (1) Internal mercury lamp
************************************************************
Integration time is 0.2294 seconds per sample
dh140818Tamanrasset 22.79-5.529 4.974364pr865
************************************************************
Dead Time -------------------------  2.8E-08 
Number of Cycles Used -------------  4 
Starting Wavelength (Angstroms) ---  2950 
Final Wavelength (Angstoms) -------  2984 
Wavelength Increment (Angstroms) --  .25 
Filter Wheel #1 Position ---------- (1) Ground quartz diffuser (ND=2.32)
Filter Wheel #2 Position ---------- (1) Neutral Density 0.494



************************************************************
HS scan start time = 03:25:03
Dark Count =  5.9 


Time (GMT)  Wavelength (Ang)  Step Number  Raw Counts  Counts/Second

  205.41        2950.00           1233          20.00        61.46
  205.47        2950.25           1236          18.00        52.75
  205.50        2950.50           1239          17.00        48.39
  205.53        2950.75           1242          20.00        61.46
  205.56        2951.00           1246          19.00        57.11
  205.58        2951.25           1249          20.00        61.46
  205.61        2951.50           1252          18.00        52.75
  205.64        2951.75           1256          24.00        78.90
  205.67        2952.00           1259          19.00        57.11
  205.69        2952.25           1262          18.00        52.75
  205.72        2952.50           1266          21.00        65.82
  205.75        2952.75           1269          18.00        52.75
  205.77        2953.00           1272          21.00        65.82
  205.80        2953.25           1276          18.00        52.75
  205.83        2953.50           1279          19.00        57.11
  205.85        2953.75           1282          20.00        61.46
  205.88        2954.00           1286          17.00        48.39
  205.91        2954.25           1289          19.00        57.11
  205.94        2954.50           1292          19.00        57.11
  205.96        2954.75           1295          18.00        52.75
  205.99        2955.00           1299          18.00        52.75
  206.02        2955.25           1302          20.00        61.46
  206.04        2955.50           1305          19.00        57.11
  206.07        2955.75           1309          20.00        61.46
  206.10        2956.00           1312          18.00        52.75
  206.13        2956.25           1315          20.00        61.46
  206.15        2956.50           1319          19.00        57.11
  206.18        2956.75           1322          22.00        70.18
  206.21        2957.00           1325          22.00        70.18
  206.24        2957.25           1329          19.00        57.11
  206.26        2957.50           1332          19.00        57.11
  206.29        2957.75           1335          23.00        74.54
  206.32        2958.00           1339          21.00        65.82
  206.34        2958.25           1342          19.00        57.11
  206.37        2958.50           1345          17.00        48.39
  206.40        2958.75           1348          16.00        44.03
  206.43        2959.00           1352          21.00        65.82
  206.45        2959.25           1355          21.00        65.82
  206.48        2959.50           1358          23.00        74.54
  206.51        2959.75           1362          22.00        70.18
  206.53        2960.00           1365          25.00        83.26
  206.56        2960.25           1368          29.00       100.70
  206.59        2960.50           1372          38.00       139.93
  206.62        2960.75           1375          45.00       170.45
  206.64        2961.00           1378         107.00       440.72
  206.67        2961.25           1382         536.00      2310.96
  206.70        2961.50           1385        1340.00      5816.55
  206.72        2961.75           1388        2737.00     11909.38
  206.75        2962.00           1392        5744.00     25031.05
  206.78        2962.25           1395        8396.00     36611.62
  206.81        2962.50           1398       11194.00     48837.88
  206.83        2962.75           1402       15088.00     65867.22
  206.86        2963.00           1405       18080.00     78962.97
  206.89        2963.25           1408       21116.00     92261.12
  206.92        2963.50           1412       24714.00    108033.80
  206.94        2963.75           1415       27589.00    120647.10
  206.97        2964.00           1418       30836.00    134903.10
  207.00        2964.25           1422       34626.00    151557.70
  207.03        2964.50           1425       37471.00    164069.80
  207.05        2964.75           1428       40667.00    178136.10
  207.08        2965.00           1431       43867.00    192231.10
  207.11        2965.25           1435       48010.00    210496.40
  207.13        2965.50           1438       51071.00    224003.50
  207.16        2965.75           1441       54106.00    237406.00
  207.19        2966.00           1445       58001.00    254621.00
  207.22        2966.25           1448       60599.00    266112.80
  207.24        2966.50           1451       62307.00    273671.90
  207.27        2966.75           1455       63920.00    280813.50
  207.30        2967.00           1458       64851.00    284936.90
  207.33        2967.25           1461       64945.00    285353.30
  207.35        2967.50           1465       64647.00    284033.30
  207.38        2967.75           1468       64112.00    281663.80
  207.41        2968.00           1471       62665.00    275256.70
  207.43        2968.25           1475       60507.00    265705.70
  207.46        2968.50           1478       57583.00    252772.70
  207.49        2968.75           1481       54217.00    237896.30
  207.52        2969.00           1485       50697.00    222352.60
  207.54        2969.25           1488       46979.00    205949.30
  207.57        2969.50           1491       43821.00    192028.40
  207.60        2969.75           1495       39961.00    175027.90
  207.63        2970.00           1498       36571.00    160110.70
  207.65        2970.25           1501       33716.00    147557.40
  207.68        2970.50           1505       29475.00    128926.20
  207.71        2970.75           1508       26477.00    115767.40
  207.73        2971.00           1511       23373.00    102153.60
  207.76        2971.25           1515       19552.00     85409.33
  207.79        2971.50           1518       16482.00     71967.46
  207.82        2971.75           1521       13678.00     59699.10
  207.84        2972.00           1525        9694.00     42282.37
  207.87        2972.25           1528        6920.00     30165.40
  207.90        2972.50           1531        4354.00     18964.30
  207.93        2972.75           1535        1750.00      7604.50
  207.95        2973.00           1538         643.00      2777.46
  207.98        2973.25           1541         188.00       793.83
  208.01        2973.50           1545          57.00       222.76
  208.03        2973.75           1548          41.00       153.01
  208.06        2974.00           1551          32.00       113.78
  208.09        2974.25           1555          30.00       105.06
  208.12        2974.50           1558          30.00       105.06
  208.14        2974.75           1561          25.00        83.26
  208.17        2975.00           1565          22.00        70.18
  208.20        2975.25           1568          28.00        96.34
  208.23        2975.50           1571          25.00        83.26
  208.25        2975.75           1575          24.00        78.90
  208.28        2976.00           1578          24.00        78.90
  208.31        2976.25           1581          21.00        65.82
  208.34        2976.50           1585          21.00        65.82
  208.36        2976.75           1588          23.00        74.54
  208.39        2977.00           1591          20.00        61.46
  208.42        2977.25           1595          25.00        83.26
  208.44        2977.50           1598          24.00        78.90
  208.47        2977.75           1601          28.00        96.34
  208.50        2978.00           1605          17.00        48.39
  208.52        2978.25           1608          23.00        74.54
  208.55        2978.50           1611          18.00        52.75
  208.58        2978.75           1615          19.00        57.11
  208.61        2979.00           1618          25.00        83.26
  208.63        2979.25           1621          21.00        65.82
  208.66        2979.50           1625          24.00        78.90
  208.69        2979.75           1628          22.00        70.18
  208.71        2980.00           1631          21.00        65.82
  208.74        2980.25           1635          21.00        65.82
  208.77        2980.50           1638          26.00        87.62
  208.80        2980.75           1641          22.00        70.18
  208.82        2981.00           1645          21.00        65.82
  208.85        2981.25           1648          24.00        78.90
  208.88        2981.50           1651          22.00        70.18
  208.90        2981.75           1655          15.00        39.67
  208.93        2982.00           1658          22.00        70.18
  208.96        2982.25           1661          20.00        61.46
  208.99        2982.50           1665          22.00        70.18
  209.01        2982.75           1668          21.00        65.82
  209.04        2983.00           1671          15.00        39.67
  209.07        2983.25           1675          25.00        83.26
  209.09        2983.50           1678          22.00        70.18
  209.12        2983.75           1681          17.00        48.39
  209.15        2984.00           1685          19.00        57.11
HS scan finished at 03:29:20
end
