************************************************************
  HS Scan of (1) Internal mercury lamp
************************************************************
Integration time is 0.2294 seconds per sample
dh150818Tamanrasset 22.79-5.529 4.974364pr865
************************************************************
Dead Time -------------------------  2.8E-08 
Number of Cycles Used -------------  4 
Starting Wavelength (Angstroms) ---  2950 
Final Wavelength (Angstoms) -------  2984 
Wavelength Increment (Angstroms) --  .25 
Filter Wheel #1 Position ---------- (1) Ground quartz diffuser (ND=2.32)
Filter Wheel #2 Position ---------- (1) Neutral Density 0.494



************************************************************
HS scan start time = 03:25:25
Dark Count =  4.5 


Time (GMT)  Wavelength (Ang)  Step Number  Raw Counts  Counts/Second

  205.78        2950.00           1233          19.00        63.21
  205.84        2950.25           1236          17.00        54.49
  205.87        2950.50           1239          21.00        71.93
  205.90        2950.75           1242          22.00        76.29
  205.92        2951.00           1246          19.00        63.21
  205.95        2951.25           1249          20.00        67.57
  205.98        2951.50           1252          22.00        76.29
  206.00        2951.75           1256          21.00        71.93
  206.03        2952.00           1259          22.00        76.29
  206.06        2952.25           1262          17.00        54.49
  206.09        2952.50           1266          20.00        67.57
  206.11        2952.75           1269          22.00        76.29
  206.14        2953.00           1272          15.00        45.77
  206.17        2953.25           1276          20.00        67.57
  206.20        2953.50           1279          19.00        63.21
  206.22        2953.75           1282          18.00        58.85
  206.25        2954.00           1286          19.00        63.21
  206.28        2954.25           1289          21.00        71.93
  206.30        2954.50           1292          16.00        50.13
  206.33        2954.75           1295          21.00        71.93
  206.36        2955.00           1299          20.00        67.57
  206.39        2955.25           1302          21.00        71.93
  206.41        2955.50           1305          22.00        76.29
  206.44        2955.75           1309          16.00        50.13
  206.47        2956.00           1312          20.00        67.57
  206.49        2956.25           1315          19.00        63.21
  206.52        2956.50           1319          18.00        58.85
  206.55        2956.75           1322          22.00        76.29
  206.58        2957.00           1325          22.00        76.29
  206.60        2957.25           1329          25.00        89.36
  206.63        2957.50           1332          18.00        58.85
  206.66        2957.75           1335          18.00        58.85
  206.69        2958.00           1339          20.00        67.57
  206.71        2958.25           1342          23.00        80.65
  206.74        2958.50           1345          17.00        54.49
  206.77        2958.75           1348          23.00        80.65
  206.79        2959.00           1352          21.00        71.93
  206.82        2959.25           1355          23.00        80.65
  206.85        2959.50           1358          19.00        63.21
  206.87        2959.75           1362          23.00        80.65
  206.90        2960.00           1365          25.00        89.36
  206.93        2960.25           1368          26.00        93.72
  206.96        2960.50           1372          38.00       146.03
  206.98        2960.75           1375          39.00       150.39
  207.01        2961.00           1378          97.00       403.23
  207.04        2961.25           1382         492.00      2125.24
  207.06        2961.50           1385        1241.00      5390.96
  207.09        2961.75           1388        2688.00     11701.74
  207.12        2962.00           1392        5552.00     24199.04
  207.15        2962.25           1395        8086.00     35263.66
  207.17        2962.50           1398       11046.00     48197.08
  207.20        2962.75           1402       14880.00     64963.32
  207.23        2963.00           1405       17791.00     77703.75
  207.26        2963.25           1408       20826.00     90996.60
  207.28        2963.50           1412       24650.00    107759.30
  207.31        2963.75           1415       27522.00    120359.20
  207.34        2964.00           1418       30541.00    133613.60
  207.37        2964.25           1422       34715.00    151955.10
  207.39        2964.50           1425       37743.00    165272.60
  207.42        2964.75           1428       40584.00    177776.80
  207.45        2965.00           1431       43417.00    190254.50
  207.48        2965.25           1435       47691.00    209095.50
  207.50        2965.50           1438       50892.00    223219.50
  207.53        2965.75           1441       53656.00    235424.30
  207.56        2966.00           1445       57232.00    251227.00
  207.58        2966.25           1448       60043.00    263659.00
  207.61        2966.50           1451       62245.00    273403.70
  207.64        2966.75           1455       64336.00    282662.10
  207.67        2967.00           1458       64932.00    285301.90
  207.69        2967.25           1461       65153.00    286280.80
  207.72        2967.50           1465       64519.00    283472.50
  207.75        2967.75           1468       64391.00    282905.60
  207.78        2968.00           1471       63262.00    277906.10
  207.80        2968.25           1475       60848.00    267220.80
  207.83        2968.50           1478       58333.00    256095.30
  207.86        2968.75           1481       55659.00    244274.00
  207.88        2969.00           1485       51783.00    227152.90
  207.91        2969.25           1488       48316.00    211852.40
  207.94        2969.50           1491       45120.00    197759.40
  207.97        2969.75           1495       40970.00    179476.40
  207.99        2970.00           1498       37689.00    165035.10
  208.02        2970.25           1501       34741.00    152069.40
  208.05        2970.50           1505       30475.00    133323.70
  208.08        2970.75           1508       27338.00    119551.70
  208.10        2971.00           1511       24422.00    106759.40
  208.13        2971.25           1515       20147.00     88021.82
  208.16        2971.50           1518       17168.00     74976.33
  208.19        2971.75           1521       14527.00     63418.97
  208.21        2972.00           1525       10600.00     46247.74
  208.24        2972.25           1528        7530.00     32835.32
  208.27        2972.50           1531        4948.00     21562.71
  208.29        2972.75           1535        2119.00      9219.90
  208.32        2973.00           1538         860.00      3729.68
  208.35        2973.25           1541         256.00      1096.37
  208.38        2973.50           1545          61.00       246.30
  208.40        2973.75           1548          41.00       159.11
  208.43        2974.00           1551          39.00       150.39
  208.46        2974.25           1555          36.00       137.32
  208.48        2974.50           1558          26.00        93.72
  208.51        2974.75           1561          26.00        93.72
  208.54        2975.00           1565          26.00        93.72
  208.57        2975.25           1568          25.00        89.36
  208.59        2975.50           1571          30.00       111.16
  208.62        2975.75           1575          22.00        76.29
  208.65        2976.00           1578          21.00        71.93
  208.67        2976.25           1581          24.00        85.00
  208.70        2976.50           1585          24.00        85.00
  208.73        2976.75           1588          23.00        80.65
  208.76        2977.00           1591          25.00        89.36
  208.78        2977.25           1595          22.00        76.29
  208.81        2977.50           1598          22.00        76.29
  208.84        2977.75           1601          19.00        63.21
  208.87        2978.00           1605          30.00       111.16
  208.89        2978.25           1608          21.00        71.93
  208.92        2978.50           1611          22.00        76.29
  208.95        2978.75           1615          20.00        67.57
  208.97        2979.00           1618          19.00        63.21
  209.00        2979.25           1621          23.00        80.65
  209.03        2979.50           1625          24.00        85.00
  209.06        2979.75           1628          24.00        85.00
  209.08        2980.00           1631          23.00        80.65
  209.11        2980.25           1635          20.00        67.57
  209.14        2980.50           1638          19.00        63.21
  209.16        2980.75           1641          23.00        80.65
  209.19        2981.00           1645          24.00        85.00
  209.22        2981.25           1648          21.00        71.93
  209.25        2981.50           1651          22.00        76.29
  209.27        2981.75           1655          21.00        71.93
  209.30        2982.00           1658          21.00        71.93
  209.33        2982.25           1661          20.00        67.57
  209.35        2982.50           1665          19.00        63.21
  209.38        2982.75           1668          21.00        71.93
  209.41        2983.00           1671          18.00        58.85
  209.44        2983.25           1675          21.00        71.93
  209.46        2983.50           1678          22.00        76.29
  209.49        2983.75           1681          23.00        80.65
  209.52        2984.00           1685          21.00        71.93
HS scan finished at 03:29:42
end
