************************************************************
  HS Scan of (1) Internal mercury lamp
************************************************************
Integration time is 0.2294 seconds per sample
dh160818Tamanrasset 22.79-5.529 4.974364pr865
************************************************************
Dead Time -------------------------  2.8E-08 
Number of Cycles Used -------------  4 
Starting Wavelength (Angstroms) ---  2950 
Final Wavelength (Angstoms) -------  2984 
Wavelength Increment (Angstroms) --  .25 
Filter Wheel #1 Position ---------- (1) Ground quartz diffuser (ND=2.32)
Filter Wheel #2 Position ---------- (1) Neutral Density 0.494



************************************************************
HS scan start time = 03:26:15
Dark Count =  5.2 


Time (GMT)  Wavelength (Ang)  Step Number  Raw Counts  Counts/Second

  206.60        2950.00           1233          20.00        64.52
  206.67        2950.25           1236          20.00        64.52
  206.70        2950.50           1239          19.00        60.16
  206.72        2950.75           1242          21.00        68.88
  206.75        2951.00           1246          21.00        68.88
  206.78        2951.25           1249          23.00        77.59
  206.80        2951.50           1252          21.00        68.88
  206.83        2951.75           1256          20.00        64.52
  206.86        2952.00           1259          17.00        51.44
  206.88        2952.25           1262          19.00        60.16
  206.91        2952.50           1266          18.00        55.80
  206.94        2952.75           1269          16.00        47.08
  206.97        2953.00           1272          23.00        77.59
  206.99        2953.25           1276          20.00        64.52
  207.02        2953.50           1279          22.00        73.23
  207.05        2953.75           1282          22.00        73.23
  207.07        2954.00           1286          19.00        60.16
  207.10        2954.25           1289          23.00        77.59
  207.13        2954.50           1292          19.00        60.16
  207.16        2954.75           1295          18.00        55.80
  207.18        2955.00           1299          19.00        60.16
  207.21        2955.25           1302          22.00        73.23
  207.24        2955.50           1305          18.00        55.80
  207.26        2955.75           1309          23.00        77.59
  207.29        2956.00           1312          21.00        68.88
  207.32        2956.25           1315          22.00        73.23
  207.35        2956.50           1319          18.00        55.80
  207.37        2956.75           1322          21.00        68.88
  207.40        2957.00           1325          18.00        55.80
  207.43        2957.25           1329          18.00        55.80
  207.46        2957.50           1332          19.00        60.16
  207.48        2957.75           1335          16.00        47.08
  207.51        2958.00           1339          23.00        77.59
  207.54        2958.25           1342          22.00        73.23
  207.56        2958.50           1345          29.00       103.75
  207.59        2958.75           1348          21.00        68.88
  207.62        2959.00           1352          19.00        60.16
  207.65        2959.25           1355          23.00        77.59
  207.67        2959.50           1358          22.00        73.23
  207.70        2959.75           1362          21.00        68.88
  207.73        2960.00           1365          24.00        81.95
  207.76        2960.25           1368          29.00       103.75
  207.78        2960.50           1372          31.00       112.47
  207.81        2960.75           1375          44.00       169.14
  207.84        2961.00           1378         123.00       513.52
  207.86        2961.25           1382         554.00      2392.49
  207.89        2961.50           1385        1342.00      5828.33
  207.92        2961.75           1388        2795.00     12165.44
  207.95        2962.00           1392        5746.00     25042.84
  207.97        2962.25           1395        8279.00     36103.61
  208.00        2962.50           1398       11003.00     48006.07
  208.03        2962.75           1402       14734.00     64321.50
  208.05        2963.00           1405       17676.00     77197.21
  208.08        2963.25           1408       20753.00     90673.69
  208.11        2963.50           1412       24218.00    105861.70
  208.14        2963.75           1415       27215.00    119008.80
  208.16        2964.00           1418       30230.00    132244.70
  208.19        2964.25           1422       33983.00    148734.10
  208.22        2964.50           1425       36947.00    161767.70
  208.25        2964.75           1428       39890.00    174718.40
  208.27        2965.00           1431       42810.00    187577.20
  208.30        2965.25           1435       46571.00    204153.20
  208.33        2965.50           1438       49789.00    218348.30
  208.36        2965.75           1441       52824.00    231746.50
  208.38        2966.00           1445       56515.00    248054.30
  208.41        2966.25           1448       58636.00    257432.20
  208.44        2966.50           1451       60800.00    267005.30
  208.47        2966.75           1455       62587.00    274914.50
  208.49        2967.00           1458       62874.00    276185.10
  208.52        2967.25           1461       62947.00    276508.30
  208.55        2967.50           1465       62637.00    275135.90
  208.57        2967.75           1468       62290.00    273599.80
  208.60        2968.00           1471       60822.00    267102.70
  208.63        2968.25           1475       58011.00    254668.30
  208.66        2968.50           1478       55816.00    244964.80
  208.68        2968.75           1481       52637.00    230920.70
  208.71        2969.00           1485       48884.00    214355.10
  208.74        2969.25           1488       45859.00    201014.00
  208.77        2969.50           1491       42535.00    186365.80
  208.79        2969.75           1495       38556.00    168847.00
  208.82        2970.00           1498       35602.00    155852.10
  208.85        2970.25           1501       32604.00    142673.40
  208.88        2970.50           1505       28566.00    124938.50
  208.90        2970.75           1508       25565.00    111769.50
  208.93        2971.00           1511       22697.00     99193.18
  208.96        2971.25           1515       18799.00     82114.48
  208.99        2971.50           1518       15972.00     69738.49
  209.01        2971.75           1521       12987.00     56680.12
  209.04        2972.00           1525        9476.00     41332.90
  209.07        2972.25           1528        6548.00     28544.17
  209.10        2972.50           1531        4044.00     17614.61
  209.12        2972.75           1535        1676.00      7284.83
  209.15        2973.00           1538         639.00      2763.07
  209.18        2973.25           1541         197.00       836.11
  209.20        2973.50           1545          48.00       186.57
  209.23        2973.75           1548          43.00       164.78
  209.26        2974.00           1551          36.00       134.26
  209.29        2974.25           1555          30.00       108.11
  209.31        2974.50           1558          25.00        86.31
  209.34        2974.75           1561          23.00        77.59
  209.37        2975.00           1565          22.00        73.23
  209.39        2975.25           1568          24.00        81.95
  209.42        2975.50           1571          25.00        86.31
  209.45        2975.75           1575          23.00        77.59
  209.48        2976.00           1578          20.00        64.52
  209.50        2976.25           1581          20.00        64.52
  209.53        2976.50           1585          19.00        60.16
  209.56        2976.75           1588          21.00        68.88
  209.58        2977.00           1591          27.00        95.03
  209.61        2977.25           1595          20.00        64.52
  209.64        2977.50           1598          28.00        99.39
  209.67        2977.75           1601          22.00        73.23
  209.69        2978.00           1605          18.00        55.80
  209.72        2978.25           1608          24.00        81.95
  209.75        2978.50           1611          24.00        81.95
  209.77        2978.75           1615          20.00        64.52
  209.80        2979.00           1618          18.00        55.80
  209.83        2979.25           1621          22.00        73.23
  209.86        2979.50           1625          23.00        77.59
  209.88        2979.75           1628          25.00        86.31
  209.91        2980.00           1631          22.00        73.23
  209.94        2980.25           1635          19.00        60.16
  209.96        2980.50           1638          19.00        60.16
  209.99        2980.75           1641          22.00        73.23
  210.02        2981.00           1645          21.00        68.88
  210.05        2981.25           1648          21.00        68.88
  210.07        2981.50           1651          19.00        60.16
  210.10        2981.75           1655          26.00        90.67
  210.13        2982.00           1658          20.00        64.52
  210.15        2982.25           1661          26.00        90.67
  210.18        2982.50           1665          19.00        60.16
  210.21        2982.75           1668          16.00        47.08
  210.24        2983.00           1671          19.00        60.16
  210.26        2983.25           1675          20.00        64.52
  210.29        2983.50           1678          18.00        55.80
  210.32        2983.75           1681          18.00        55.80
  210.34        2984.00           1685          23.00        77.59
HS scan finished at 03:30:32
end
