************************************************************
  HS Scan of (1) Internal mercury lamp
************************************************************
Integration time is 0.2294 seconds per sample
dh210818Tamanrasset 22.79-5.529 4.974364pr865
************************************************************
Dead Time -------------------------  2.8E-08 
Number of Cycles Used -------------  4 
Starting Wavelength (Angstroms) ---  2950 
Final Wavelength (Angstoms) -------  2984 
Wavelength Increment (Angstroms) --  .25 
Filter Wheel #1 Position ---------- (1) Ground quartz diffuser (ND=2.32)
Filter Wheel #2 Position ---------- (1) Neutral Density 0.494



************************************************************
HS scan start time = 03:28:11
Dark Count =  6.9 


Time (GMT)  Wavelength (Ang)  Step Number  Raw Counts  Counts/Second

  208.55        2950.00           1233          21.00        61.46
  208.61        2950.25           1236          20.00        57.11
  208.64        2950.50           1239          19.00        52.75
  208.67        2950.75           1242          19.00        52.75
  208.69        2951.00           1246          24.00        74.54
  208.72        2951.25           1249          21.00        61.46
  208.75        2951.50           1252          19.00        52.75
  208.77        2951.75           1256          25.00        78.90
  208.80        2952.00           1259          19.00        52.75
  208.83        2952.25           1262          24.00        74.54
  208.86        2952.50           1266          19.00        52.75
  208.88        2952.75           1269          20.00        57.11
  208.91        2953.00           1272          18.00        48.39
  208.94        2953.25           1276          21.00        61.46
  208.96        2953.50           1279          23.00        70.18
  208.99        2953.75           1282          15.00        35.31
  209.02        2954.00           1286          22.00        65.82
  209.05        2954.25           1289          23.00        70.18
  209.07        2954.50           1292          20.00        57.11
  209.10        2954.75           1295          22.00        65.82
  209.13        2955.00           1299          21.00        61.46
  209.15        2955.25           1302          18.00        48.39
  209.18        2955.50           1305          19.00        52.75
  209.21        2955.75           1309          22.00        65.82
  209.24        2956.00           1312          19.00        52.75
  209.26        2956.25           1315          21.00        61.46
  209.29        2956.50           1319          16.00        39.67
  209.32        2956.75           1322          17.00        44.03
  209.34        2957.00           1325          18.00        48.39
  209.37        2957.25           1329          22.00        65.82
  209.40        2957.50           1332          22.00        65.82
  209.43        2957.75           1335          23.00        70.18
  209.45        2958.00           1339          23.00        70.18
  209.48        2958.25           1342          17.00        44.03
  209.51        2958.50           1345          18.00        48.39
  209.53        2958.75           1348          19.00        52.75
  209.56        2959.00           1352          18.00        48.39
  209.59        2959.25           1355          22.00        65.82
  209.62        2959.50           1358          20.00        57.11
  209.64        2959.75           1362          23.00        70.18
  209.67        2960.00           1365          26.00        83.26
  209.70        2960.25           1368          30.00       100.70
  209.72        2960.50           1372          40.00       144.29
  209.75        2960.75           1375          47.00       174.80
  209.78        2961.00           1378         114.00       466.88
  209.81        2961.25           1382         590.00      2542.03
  209.83        2961.50           1385        1470.00      6379.08
  209.86        2961.75           1388        3025.00     13161.35
  209.89        2962.00           1392        6312.00     27506.36
  209.92        2962.25           1395        9259.00     40377.36
  209.94        2962.50           1398       12262.00     53502.50
  209.97        2962.75           1402       16509.00     72081.26
  210.00        2963.00           1405       19736.00     86210.91
  210.02        2963.25           1408       22957.00    100325.50
  210.05        2963.50           1412       27104.00    118514.30
  210.08        2963.75           1415       30170.00    131973.70
  210.11        2964.00           1418       33405.00    146186.10
  210.13        2964.25           1422       37688.00    165020.10
  210.16        2964.50           1425       40841.00    178897.80
  210.19        2964.75           1428       44271.00    194007.00
  210.22        2965.00           1431       47264.00    207201.70
  210.24        2965.25           1435       51851.00    227442.50
  210.27        2965.50           1438       55238.00    242403.00
  210.30        2965.75           1441       58422.00    256478.30
  210.33        2966.00           1445       62695.00    275385.10
  210.35        2966.25           1448       65308.00    286956.80
  210.38        2966.50           1451       67270.00    295650.50
  210.41        2966.75           1455       68761.00    302260.10
  210.43        2967.00           1458       69305.00    304672.20
  210.46        2967.25           1461       69628.00    306104.50
  210.49        2967.50           1465       69084.00    303692.20
  210.52        2967.75           1468       68477.00    301000.90
  210.54        2968.00           1471       67058.00    294711.00
  210.57        2968.25           1475       64246.00    282252.80
  210.60        2968.50           1478       61213.00    268825.40
  210.63        2968.75           1481       58044.00    254806.70
  210.65        2969.00           1485       53659.00    235427.00
  210.68        2969.25           1488       50020.00    219360.20
  210.71        2969.50           1491       46737.00    204877.70
  210.74        2969.75           1495       42338.00    185490.60
  210.76        2970.00           1498       39075.00    171123.60
  210.79        2970.25           1501       35748.00    156486.70
  210.82        2970.50           1505       31365.00    137222.40
  210.85        2970.75           1508       28197.00    123311.30
  210.87        2971.00           1511       24950.00    109064.50
  210.90        2971.25           1515       20798.00     90863.40
  210.93        2971.50           1518       17739.00     77465.58
  210.95        2971.75           1521       14577.00     63627.21
  210.98        2972.00           1525       10308.00     44961.10
  211.01        2972.25           1528        7226.00     31497.25
  211.04        2972.50           1531        4574.00     19920.00
  211.06        2972.75           1535        1798.00      7809.47
  211.09        2973.00           1538         670.00      2890.82
  211.12        2973.25           1541         188.00       789.47
  211.15        2973.50           1545          60.00       231.47
  211.17        2973.75           1548          42.00       153.01
  211.20        2974.00           1551          37.00       131.21
  211.23        2974.25           1555          30.00       100.70
  211.25        2974.50           1558          34.00       118.13
  211.28        2974.75           1561          36.00       126.85
  211.31        2975.00           1565          31.00       105.06
  211.34        2975.25           1568          25.00        78.90
  211.36        2975.50           1571          21.00        61.46
  211.39        2975.75           1575          24.00        74.54
  211.42        2976.00           1578          26.00        83.26
  211.45        2976.25           1581          29.00        96.34
  211.47        2976.50           1585          19.00        52.75
  211.50        2976.75           1588          24.00        74.54
  211.53        2977.00           1591          18.00        48.39
  211.55        2977.25           1595          20.00        57.11
  211.58        2977.50           1598          26.00        83.26
  211.61        2977.75           1601          25.00        78.90
  211.64        2978.00           1605          23.00        70.18
  211.66        2978.25           1608          19.00        52.75
  211.69        2978.50           1611          26.00        83.26
  211.72        2978.75           1615          18.00        48.39
  211.74        2979.00           1618          21.00        61.46
  211.77        2979.25           1621          25.00        78.90
  211.80        2979.50           1625          26.00        83.26
  211.83        2979.75           1628          23.00        70.18
  211.85        2980.00           1631          21.00        61.46
  211.88        2980.25           1635          19.00        52.75
  211.91        2980.50           1638          22.00        65.82
  211.93        2980.75           1641          24.00        74.54
  211.96        2981.00           1645          27.00        87.62
  211.99        2981.25           1648          19.00        52.75
  212.02        2981.50           1651          17.00        44.03
  212.04        2981.75           1655          23.00        70.18
  212.07        2982.00           1658          21.00        61.46
  212.10        2982.25           1661          25.00        78.90
  212.12        2982.50           1665          25.00        78.90
  212.15        2982.75           1668          18.00        48.39
  212.18        2983.00           1671          23.00        70.18
  212.21        2983.25           1675          21.00        61.46
  212.23        2983.50           1678          24.00        74.54
  212.26        2983.75           1681          24.00        74.54
  212.29        2984.00           1685          23.00        70.18
HS scan finished at 03:32:28
end
