************************************************************
  HS Scan of (1) Internal mercury lamp
************************************************************
Integration time is 0.2294 seconds per sample
dh260818Tamanrasset 22.79-5.529 4.974364pr865
************************************************************
Dead Time -------------------------  2.8E-08 
Number of Cycles Used -------------  4 
Starting Wavelength (Angstroms) ---  2950 
Final Wavelength (Angstoms) -------  2984 
Wavelength Increment (Angstroms) --  .25 
Filter Wheel #1 Position ---------- (1) Ground quartz diffuser (ND=2.32)
Filter Wheel #2 Position ---------- (1) Neutral Density 0.494



************************************************************
HS scan start time = 03:29:22
Dark Count =  5.1 


Time (GMT)  Wavelength (Ang)  Step Number  Raw Counts  Counts/Second

  209.73        2950.00           1233          18.00        56.23
  209.79        2950.25           1236          17.00        51.87
  209.82        2950.50           1239          21.00        69.31
  209.85        2950.75           1242          17.00        51.87
  209.87        2951.00           1246          19.00        60.59
  209.90        2951.25           1249          22.00        73.67
  209.93        2951.50           1252          22.00        73.67
  209.96        2951.75           1256          16.00        47.52
  209.98        2952.00           1259          18.00        56.23
  210.01        2952.25           1262          19.00        60.59
  210.04        2952.50           1266          20.00        64.95
  210.06        2952.75           1269          23.00        78.03
  210.09        2953.00           1272          16.00        47.52
  210.12        2953.25           1276          18.00        56.23
  210.15        2953.50           1279          19.00        60.59
  210.17        2953.75           1282          23.00        78.03
  210.20        2954.00           1286          19.00        60.59
  210.23        2954.25           1289          21.00        69.31
  210.25        2954.50           1292          21.00        69.31
  210.28        2954.75           1295          19.00        60.59
  210.31        2955.00           1299          15.00        43.16
  210.34        2955.25           1302          19.00        60.59
  210.36        2955.50           1305          19.00        60.59
  210.39        2955.75           1309          20.00        64.95
  210.42        2956.00           1312          21.00        69.31
  210.45        2956.25           1315          16.00        47.52
  210.47        2956.50           1319          22.00        73.67
  210.50        2956.75           1322          17.00        51.87
  210.53        2957.00           1325          20.00        64.95
  210.56        2957.25           1329          19.00        60.59
  210.58        2957.50           1332          19.00        60.59
  210.61        2957.75           1335          23.00        78.03
  210.64        2958.00           1339          22.00        73.67
  210.66        2958.25           1342          20.00        64.95
  210.69        2958.50           1345          18.00        56.23
  210.72        2958.75           1348          18.00        56.23
  210.75        2959.00           1352          22.00        73.67
  210.77        2959.25           1355          20.00        64.95
  210.80        2959.50           1358          23.00        78.03
  210.83        2959.75           1362          23.00        78.03
  210.85        2960.00           1365          26.00        91.11
  210.88        2960.25           1368          22.00        73.67
  210.91        2960.50           1372          29.00       104.19
  210.94        2960.75           1375          42.00       160.86
  210.96        2961.00           1378         117.00       487.80
  210.99        2961.25           1382         573.00      2475.76
  211.02        2961.50           1385        1413.00      6138.37
  211.05        2961.75           1388        2748.00     11960.85
  211.07        2962.00           1392        5582.00     24327.38
  211.10        2962.25           1395        8153.00     35553.68
  211.13        2962.50           1398       11065.00     48277.51
  211.16        2962.75           1402       14574.00     63621.96
  211.18        2963.00           1405       17152.00     74903.66
  211.21        2963.25           1408       19939.00     87108.02
  211.24        2963.50           1412       23610.00    103196.20
  211.26        2963.75           1415       26383.00    115358.50
  211.29        2964.00           1418       29423.00    128701.40
  211.32        2964.25           1422       32879.00    143882.30
  211.35        2964.50           1425       35444.00    155157.80
  211.37        2964.75           1428       38435.00    168314.90
  211.40        2965.00           1431       41329.00    181054.60
  211.43        2965.25           1435       44962.00    197060.40
  211.46        2965.50           1438       47616.00    208762.10
  211.48        2965.75           1441       50436.00    221204.10
  211.51        2966.00           1445       54235.00    237979.30
  211.54        2966.25           1448       56324.00    247210.50
  211.56        2966.50           1451       58564.00    257114.20
  211.59        2966.75           1455       59858.00    262837.90
  211.62        2967.00           1458       60479.00    265585.40
  211.65        2967.25           1461       60559.00    265939.40
  211.67        2967.50           1465       60322.00    264890.70
  211.70        2967.75           1468       59856.00    262829.00
  211.73        2968.00           1471       58609.00    257313.20
  211.76        2968.25           1475       56191.00    246622.60
  211.78        2968.50           1478       53773.00    235938.50
  211.81        2968.75           1481       50960.00    223517.00
  211.84        2969.00           1485       46776.00    205057.60
  211.86        2969.25           1488       43934.00    192529.90
  211.89        2969.50           1491       41077.00    179944.90
  211.92        2969.75           1495       37290.00    163277.00
  211.95        2970.00           1498       34360.00    150391.80
  211.97        2970.25           1501       31209.00    136545.00
  212.00        2970.50           1505       27662.00    120971.00
  212.03        2970.75           1508       24890.00    108809.20
  212.06        2971.00           1511       22018.00     96217.46
  212.08        2971.25           1515       18293.00     79899.13
  212.11        2971.50           1518       15492.00     67638.45
  212.14        2971.75           1521       12701.00     55429.91
  212.17        2972.00           1525        9162.00     39961.43
  212.19        2972.25           1528        6375.00     27789.27
  212.22        2972.50           1531        4000.00     17423.06
  212.25        2972.75           1535        1680.00      7302.71
  212.27        2973.00           1538         606.00      2619.63
  212.30        2973.25           1541         180.00       762.44
  212.33        2973.50           1545          48.00       187.01
  212.36        2973.75           1548          37.00       139.06
  212.38        2974.00           1551          36.00       134.70
  212.41        2974.25           1555          28.00        99.83
  212.44        2974.50           1558          23.00        78.03
  212.47        2974.75           1561          18.00        56.23
  212.49        2975.00           1565          20.00        64.95
  212.52        2975.25           1568          22.00        73.67
  212.55        2975.50           1571          25.00        86.75
  212.57        2975.75           1575          23.00        78.03
  212.60        2976.00           1578          22.00        73.67
  212.63        2976.25           1581          23.00        78.03
  212.65        2976.50           1585          24.00        82.39
  212.68        2976.75           1588          23.00        78.03
  212.71        2977.00           1591          24.00        82.39
  212.74        2977.25           1595          20.00        64.95
  212.76        2977.50           1598          22.00        73.67
  212.79        2977.75           1601          21.00        69.31
  212.82        2978.00           1605          23.00        78.03
  212.84        2978.25           1608          23.00        78.03
  212.87        2978.50           1611          19.00        60.59
  212.90        2978.75           1615          21.00        69.31
  212.93        2979.00           1618          18.00        56.23
  212.95        2979.25           1621          20.00        64.95
  212.98        2979.50           1625          21.00        69.31
  213.01        2979.75           1628          24.00        82.39
  213.03        2980.00           1631          21.00        69.31
  213.06        2980.25           1635          19.00        60.59
  213.09        2980.50           1638          18.00        56.23
  213.12        2980.75           1641          20.00        64.95
  213.14        2981.00           1645          19.00        60.59
  213.17        2981.25           1648          22.00        73.67
  213.20        2981.50           1651          21.00        69.31
  213.22        2981.75           1655          18.00        56.23
  213.25        2982.00           1658          18.00        56.23
  213.28        2982.25           1661          20.00        64.95
  213.31        2982.50           1665          19.00        60.59
  213.33        2982.75           1668          20.00        64.95
  213.36        2983.00           1671          20.00        64.95
  213.39        2983.25           1675          22.00        73.67
  213.41        2983.50           1678          21.00        69.31
  213.44        2983.75           1681          19.00        60.59
  213.47        2984.00           1685          25.00        86.75
HS scan finished at 03:33:39
end
