************************************************************
  HS Scan of (1) Internal mercury lamp
************************************************************
Integration time is 0.2294 seconds per sample
dh200818Tamanrasset 22.79-5.529 4.974364pr865
************************************************************
Dead Time -------------------------  2.8E-08 
Number of Cycles Used -------------  4 
Starting Wavelength (Angstroms) ---  2950 
Final Wavelength (Angstoms) -------  2984 
Wavelength Increment (Angstroms) --  .25 
Filter Wheel #1 Position ---------- (1) Ground quartz diffuser (ND=2.32)
Filter Wheel #2 Position ---------- (1) Neutral Density 0.494



************************************************************
HS scan start time = 03:27:16
Dark Count =  4.5 


Time (GMT)  Wavelength (Ang)  Step Number  Raw Counts  Counts/Second

  207.62        2950.00           1233          24.00        85.00
  207.69        2950.25           1236          22.00        76.29
  207.71        2950.50           1239          23.00        80.65
  207.74        2950.75           1242          20.00        67.57
  207.77        2951.00           1246          23.00        80.65
  207.80        2951.25           1249          21.00        71.93
  207.82        2951.50           1252          16.00        50.13
  207.85        2951.75           1256          21.00        71.93
  207.88        2952.00           1259          22.00        76.29
  207.90        2952.25           1262          22.00        76.29
  207.93        2952.50           1266          21.00        71.93
  207.96        2952.75           1269          24.00        85.00
  207.99        2953.00           1272          21.00        71.93
  208.01        2953.25           1276          23.00        80.65
  208.04        2953.50           1279          21.00        71.93
  208.07        2953.75           1282          20.00        67.57
  208.09        2954.00           1286          23.00        80.65
  208.12        2954.25           1289          17.00        54.49
  208.15        2954.50           1292          18.00        58.85
  208.18        2954.75           1295          20.00        67.57
  208.20        2955.00           1299          23.00        80.65
  208.23        2955.25           1302          20.00        67.57
  208.26        2955.50           1305          22.00        76.29
  208.28        2955.75           1309          22.00        76.29
  208.31        2956.00           1312          18.00        58.85
  208.34        2956.25           1315          17.00        54.49
  208.37        2956.50           1319          18.00        58.85
  208.39        2956.75           1322          23.00        80.65
  208.42        2957.00           1325          15.00        45.77
  208.45        2957.25           1329          21.00        71.93
  208.47        2957.50           1332          19.00        63.21
  208.50        2957.75           1335          19.00        63.21
  208.53        2958.00           1339          18.00        58.85
  208.56        2958.25           1342          20.00        67.57
  208.58        2958.50           1345          19.00        63.21
  208.61        2958.75           1348          21.00        71.93
  208.64        2959.00           1352          23.00        80.65
  208.66        2959.25           1355          16.00        50.13
  208.69        2959.50           1358          23.00        80.65
  208.72        2959.75           1362          25.00        89.36
  208.75        2960.00           1365          26.00        93.72
  208.77        2960.25           1368          28.00       102.44
  208.80        2960.50           1372          35.00       132.96
  208.83        2960.75           1375          45.00       176.55
  208.85        2961.00           1378         100.00       416.31
  208.88        2961.25           1382         574.00      2482.74
  208.91        2961.50           1385        1377.00      5984.00
  208.94        2961.75           1388        2776.00     12085.61
  208.96        2962.00           1392        5888.00     25665.78
  208.99        2962.25           1395        8633.00     37653.02
  209.02        2962.50           1398       11723.00     51156.49
  209.04        2962.75           1402       15530.00     67807.35
  209.07        2963.00           1405       18788.00     82069.37
  209.10        2963.25           1408       21723.00     94927.22
  209.13        2963.50           1412       25761.00    112632.30
  209.15        2963.75           1415       28781.00    125885.40
  209.18        2964.00           1418       31973.00    139904.00
  209.21        2964.25           1422       36113.00    158102.50
  209.24        2964.50           1425       39066.00    171094.50
  209.26        2964.75           1428       42604.00    186672.80
  209.29        2965.00           1431       45645.00    200073.70
  209.32        2965.25           1435       49720.00    218046.90
  209.35        2965.50           1438       52943.00    232275.20
  209.37        2965.75           1441       56094.00    246196.60
  209.40        2966.00           1445       59983.00    263393.60
  209.43        2966.25           1448       62857.00    276113.00
  209.45        2966.50           1451       64933.00    285306.30
  209.48        2966.75           1455       67050.00    294686.20
  209.51        2967.00           1458       67538.00    296849.00
  209.54        2967.25           1461       68125.00    299451.00
  209.56        2967.50           1465       67538.00    296849.00
  209.59        2967.75           1468       67269.00    295656.70
  209.62        2968.00           1471       65687.00    288646.50
  209.65        2968.25           1475       63137.00    277352.60
  209.67        2968.50           1478       60335.00    264950.90
  209.70        2968.75           1481       57615.00    252920.40
  209.73        2969.00           1485       53376.00    234187.60
  209.76        2969.25           1488       49839.00    218572.00
  209.78        2969.50           1491       46552.00    204072.50
  209.81        2969.75           1495       42220.00    184981.40
  209.84        2970.00           1498       39163.00    171521.40
  209.86        2970.25           1501       35549.00    155622.10
  209.89        2970.50           1505       31469.00    137689.80
  209.92        2970.75           1508       28357.00    124024.10
  209.95        2971.00           1511       24764.00    108259.20
  209.97        2971.25           1515       20746.00     90646.08
  210.00        2971.50           1518       17586.00     76806.25
  210.03        2971.75           1521       14535.00     63453.97
  210.06        2972.00           1525       10364.00     45216.32
  210.08        2972.25           1528        7586.00     33079.89
  210.11        2972.50           1531        4852.00     21143.73
  210.14        2972.75           1535        2031.00      8836.10
  210.16        2973.00           1538         771.00      3341.64
  210.19        2973.25           1541         223.00       952.51
  210.22        2973.50           1545          59.00       237.58
  210.25        2973.75           1548          40.00       154.75
  210.27        2974.00           1551          39.00       150.39
  210.30        2974.25           1555          30.00       111.16
  210.33        2974.50           1558          29.00       106.80
  210.35        2974.75           1561          23.00        80.65
  210.38        2975.00           1565          24.00        85.00
  210.41        2975.25           1568          22.00        76.29
  210.44        2975.50           1571          24.00        85.00
  210.46        2975.75           1575          21.00        71.93
  210.49        2976.00           1578          23.00        80.65
  210.52        2976.25           1581          24.00        85.00
  210.54        2976.50           1585          22.00        76.29
  210.57        2976.75           1588          24.00        85.00
  210.60        2977.00           1591          22.00        76.29
  210.63        2977.25           1595          21.00        71.93
  210.65        2977.50           1598          23.00        80.65
  210.68        2977.75           1601          19.00        63.21
  210.71        2978.00           1605          25.00        89.36
  210.74        2978.25           1608          17.00        54.49
  210.76        2978.50           1611          21.00        71.93
  210.79        2978.75           1615          20.00        67.57
  210.82        2979.00           1618          27.00        98.08
  210.85        2979.25           1621          25.00        89.36
  210.87        2979.50           1625          26.00        93.72
  210.90        2979.75           1628          23.00        80.65
  210.93        2980.00           1631          18.00        58.85
  210.95        2980.25           1635          27.00        98.08
  210.98        2980.50           1638          21.00        71.93
  211.01        2980.75           1641          23.00        80.65
  211.04        2981.00           1645          23.00        80.65
  211.06        2981.25           1648          22.00        76.29
  211.09        2981.50           1651          21.00        71.93
  211.12        2981.75           1655          19.00        63.21
  211.15        2982.00           1658          18.00        58.85
  211.17        2982.25           1661          17.00        54.49
  211.20        2982.50           1665          19.00        63.21
  211.23        2982.75           1668          24.00        85.00
  211.25        2983.00           1671          19.00        63.21
  211.28        2983.25           1675          21.00        71.93
  211.31        2983.50           1678          19.00        63.21
  211.34        2983.75           1681          20.00        67.57
  211.36        2984.00           1685          21.00        71.93
HS scan finished at 03:31:33
end
