************************************************************
  HS Scan of (1) Internal mercury lamp
************************************************************
Integration time is 0.2294 seconds per sample
dh270817Tamanrasset 22.79-5.529 3.291921pr865
************************************************************
Dead Time -------------------------  2.8E-08 
Number of Cycles Used -------------  4 
Starting Wavelength (Angstroms) ---  2950 
Final Wavelength (Angstoms) -------  2984 
Wavelength Increment (Angstroms) --  .25 
Filter Wheel #1 Position ---------- (1) Ground quartz diffuser (ND=2.32)
Filter Wheel #2 Position ---------- (1) Neutral Density 0.494



************************************************************
HS scan start time = 03:30:20
Dark Count =  5.3 


Time (GMT)  Wavelength (Ang)  Step Number  Raw Counts  Counts/Second

  210.68        2950.00           1233          16.00        46.64
  210.75        2950.25           1236          19.00        59.72
  210.78        2950.50           1239          18.00        55.36
  210.80        2950.75           1242          21.00        68.44
  210.83        2951.00           1246          18.00        55.36
  210.86        2951.25           1249          21.00        68.44
  210.88        2951.50           1252          19.00        59.72
  210.91        2951.75           1256          21.00        68.44
  210.94        2952.00           1259          23.00        77.16
  210.97        2952.25           1262          22.00        72.80
  210.99        2952.50           1266          22.00        72.80
  211.02        2952.75           1269          19.00        59.72
  211.05        2953.00           1272          18.00        55.36
  211.07        2953.25           1276          22.00        72.80
  211.10        2953.50           1279          24.00        81.52
  211.13        2953.75           1282          17.00        51.00
  211.16        2954.00           1286          17.00        51.00
  211.18        2954.25           1289          19.00        59.72
  211.21        2954.50           1292          18.00        55.36
  211.24        2954.75           1295          18.00        55.36
  211.26        2955.00           1299          17.00        51.00
  211.29        2955.25           1302          25.00        85.88
  211.32        2955.50           1305          14.00        37.93
  211.35        2955.75           1309          22.00        72.80
  211.37        2956.00           1312          25.00        85.88
  211.40        2956.25           1315          18.00        55.36
  211.43        2956.50           1319          19.00        59.72
  211.45        2956.75           1322          19.00        59.72
  211.48        2957.00           1325          23.00        77.16
  211.51        2957.25           1329          21.00        68.44
  211.53        2957.50           1332          24.00        81.52
  211.56        2957.75           1335          23.00        77.16
  211.59        2958.00           1339          18.00        55.36
  211.62        2958.25           1342          19.00        59.72
  211.64        2958.50           1345          24.00        81.52
  211.67        2958.75           1348          21.00        68.44
  211.70        2959.00           1352          21.00        68.44
  211.73        2959.25           1355          21.00        68.44
  211.75        2959.50           1358          24.00        81.52
  211.78        2959.75           1362          22.00        72.80
  211.81        2960.00           1365          25.00        85.88
  211.83        2960.25           1368          28.00        98.95
  211.86        2960.50           1372          33.00       120.75
  211.89        2960.75           1375          44.00       168.70
  211.92        2961.00           1378         156.00       656.94
  211.94        2961.25           1382         659.00      2849.84
  211.97        2961.50           1385        1634.00      7101.24
  212.00        2961.75           1388        3132.00     13635.11
  212.02        2962.00           1392        6245.00     27220.83
  212.05        2962.25           1395        9120.00     39777.06
  212.08        2962.50           1398       12007.00     52394.60
  212.11        2962.75           1402       15852.00     69212.91
  212.13        2963.00           1405       19044.00     83187.00
  212.16        2963.25           1408       22105.00     96597.89
  212.19        2963.50           1412       25883.00    113164.00
  212.22        2963.75           1415       28810.00    126009.20
  212.24        2964.00           1418       32073.00    140339.90
  212.27        2964.25           1422       35946.00    157364.50
  212.30        2964.50           1425       38897.00    170347.20
  212.32        2964.75           1428       42209.00    184929.40
  212.35        2965.00           1431       45149.00    197883.70
  212.38        2965.25           1435       49225.00    215859.20
  212.41        2965.50           1438       52606.00    230783.40
  212.43        2965.75           1441       55505.00    243589.90
  212.46        2966.00           1445       59226.00    260041.30
  212.49        2966.25           1448       61633.00    270691.30
  212.52        2966.50           1451       64017.00    281245.80
  212.54        2966.75           1455       65736.00    288860.10
  212.57        2967.00           1458       66515.00    292311.70
  212.60        2967.25           1461       66519.00    292329.40
  212.63        2967.50           1465       66355.00    291602.70
  212.65        2967.75           1468       65411.00    287420.20
  212.68        2968.00           1471       64385.00    282875.50
  212.71        2968.25           1475       62006.00    272342.20
  212.74        2968.50           1478       59381.00    260726.90
  212.76        2968.75           1481       56010.00    245821.80
  212.79        2969.00           1485       51631.00    226478.30
  212.82        2969.25           1488       48435.00    212373.80
  212.84        2969.50           1491       45105.00    197689.80
  212.87        2969.75           1495       41136.00    180203.80
  212.90        2970.00           1498       38102.00    166848.70
  212.93        2970.25           1501       34776.00    152219.80
  212.95        2970.50           1505       30550.00    133649.60
  212.98        2970.75           1508       27237.00    119104.90
  213.01        2971.00           1511       24106.00    105370.10
  213.04        2971.25           1515       19951.00     87159.71
  213.06        2971.50           1518       16997.00     74224.28
  213.09        2971.75           1521       13785.00     60169.73
  213.12        2972.00           1525        9857.00     42997.24
  213.15        2972.25           1528        6915.00     30146.19
  213.17        2972.50           1531        4265.00     18578.54
  213.20        2972.75           1535        1749.00      7602.75
  213.23        2973.00           1538         660.00      2854.20
  213.25        2973.25           1541         197.00       835.68
  213.28        2973.50           1545          58.00       229.73
  213.31        2973.75           1548          44.00       168.70
  213.34        2974.00           1551          33.00       120.75
  213.36        2974.25           1555          32.00       116.39
  213.39        2974.50           1558          29.00       103.31
  213.42        2974.75           1561          29.00       103.31
  213.44        2975.00           1565          25.00        85.88
  213.47        2975.25           1568          23.00        77.16
  213.50        2975.50           1571          22.00        72.80
  213.53        2975.75           1575          24.00        81.52
  213.55        2976.00           1578          24.00        81.52
  213.58        2976.25           1581          24.00        81.52
  213.61        2976.50           1585          22.00        72.80
  213.63        2976.75           1588          20.00        64.08
  213.66        2977.00           1591          26.00        90.24
  213.69        2977.25           1595          23.00        77.16
  213.72        2977.50           1598          22.00        72.80
  213.74        2977.75           1601          21.00        68.44
  213.77        2978.00           1605          29.00       103.31
  213.80        2978.25           1608          21.00        68.44
  213.82        2978.50           1611          24.00        81.52
  213.85        2978.75           1615          22.00        72.80
  213.88        2979.00           1618          23.00        77.16
  213.91        2979.25           1621          19.00        59.72
  213.93        2979.50           1625          19.00        59.72
  213.96        2979.75           1628          22.00        72.80
  213.99        2980.00           1631          18.00        55.36
  214.01        2980.25           1635          17.00        51.00
  214.04        2980.50           1638          24.00        81.52
  214.07        2980.75           1641          22.00        72.80
  214.10        2981.00           1645          22.00        72.80
  214.12        2981.25           1648          21.00        68.44
  214.15        2981.50           1651          25.00        85.88
  214.18        2981.75           1655          20.00        64.08
  214.21        2982.00           1658          22.00        72.80
  214.23        2982.25           1661          21.00        68.44
  214.26        2982.50           1665          17.00        51.00
  214.29        2982.75           1668          20.00        64.08
  214.31        2983.00           1671          20.00        64.08
  214.34        2983.25           1675          17.00        51.00
  214.37        2983.50           1678          23.00        77.16
  214.40        2983.75           1681          22.00        72.80
  214.42        2984.00           1685          22.00        72.80
HS scan finished at 03:34:37
end
