************************************************************
  HS Scan of (1) Internal mercury lamp
************************************************************
Integration time is 0.2294 seconds per sample
dh230818Tamanrasset 22.79-5.529 4.974364pr865
************************************************************
Dead Time -------------------------  2.8E-08 
Number of Cycles Used -------------  4 
Starting Wavelength (Angstroms) ---  2950 
Final Wavelength (Angstoms) -------  2984 
Wavelength Increment (Angstroms) --  .25 
Filter Wheel #1 Position ---------- (1) Ground quartz diffuser (ND=2.32)
Filter Wheel #2 Position ---------- (1) Neutral Density 0.494



************************************************************
HS scan start time = 03:29:05
Dark Count =  7.1 


Time (GMT)  Wavelength (Ang)  Step Number  Raw Counts  Counts/Second

  209.43        2950.00           1233          22.00        64.95
  209.50        2950.25           1236          22.00        64.95
  209.52        2950.50           1239          22.00        64.95
  209.55        2950.75           1242          22.00        64.95
  209.58        2951.00           1246          22.00        64.95
  209.60        2951.25           1249          21.00        60.59
  209.63        2951.50           1252          26.00        82.39
  209.66        2951.75           1256          22.00        64.95
  209.69        2952.00           1259          16.00        38.80
  209.71        2952.25           1262          18.00        47.52
  209.74        2952.50           1266          28.00        91.11
  209.77        2952.75           1269          21.00        60.59
  209.79        2953.00           1272          18.00        47.52
  209.82        2953.25           1276          16.00        38.80
  209.85        2953.50           1279          15.00        34.44
  209.88        2953.75           1282          23.00        69.31
  209.90        2954.00           1286          22.00        64.95
  209.93        2954.25           1289          21.00        60.59
  209.96        2954.50           1292          18.00        47.52
  209.98        2954.75           1295          23.00        69.31
  210.01        2955.00           1299          17.00        43.16
  210.04        2955.25           1302          22.00        64.95
  210.07        2955.50           1305          22.00        64.95
  210.09        2955.75           1309          19.00        51.87
  210.12        2956.00           1312          19.00        51.87
  210.15        2956.25           1315          19.00        51.87
  210.17        2956.50           1319          20.00        56.23
  210.20        2956.75           1322          19.00        51.87
  210.23        2957.00           1325          19.00        51.87
  210.26        2957.25           1329          17.00        43.16
  210.28        2957.50           1332          18.00        47.52
  210.31        2957.75           1335          19.00        51.87
  210.34        2958.00           1339          17.00        43.16
  210.36        2958.25           1342          23.00        69.31
  210.39        2958.50           1345          17.00        43.16
  210.42        2958.75           1348          22.00        64.95
  210.45        2959.00           1352          22.00        64.95
  210.47        2959.25           1355          18.00        47.52
  210.50        2959.50           1358          20.00        56.23
  210.53        2959.75           1362          28.00        91.11
  210.55        2960.00           1365          33.00       112.90
  210.58        2960.25           1368          37.00       130.34
  210.61        2960.50           1372          39.00       139.06
  210.64        2960.75           1375          52.00       195.73
  210.66        2961.00           1378         172.00       718.85
  210.69        2961.25           1382         779.00      3365.18
  210.72        2961.50           1385        1842.00      8000.48
  210.74        2961.75           1388        3653.00     15900.28
  210.77        2962.00           1392        6945.00     30269.33
  210.80        2962.25           1395        9869.00     43041.82
  210.83        2962.50           1398       12992.00     56693.68
  210.85        2962.75           1402       17158.00     74921.18
  210.88        2963.00           1405       20421.00     89210.80
  210.91        2963.25           1408       23728.00    103704.80
  210.94        2963.50           1412       27457.00    120062.50
  210.96        2963.75           1415       30606.00    133887.70
  210.99        2964.00           1418       33712.00    147534.50
  211.02        2964.25           1422       37912.00    166004.80
  211.05        2964.50           1425       41061.00    179865.70
  211.07        2964.75           1428       44247.00    193900.40
  211.10        2965.00           1431       47464.00    208082.90
  211.13        2965.25           1435       51760.00    227039.90
  211.15        2965.50           1438       55182.00    242154.70
  211.18        2965.75           1441       58555.00    257065.60
  211.21        2966.00           1445       62490.00    274476.70
  211.24        2966.25           1448       64659.00    284081.10
  211.26        2966.50           1451       66872.00    293885.80
  211.29        2966.75           1455       67978.00    298787.90
  211.32        2967.00           1458       68249.00    299989.20
  211.35        2967.25           1461       68530.00    301235.00
  211.37        2967.50           1465       68126.00    299444.00
  211.40        2967.75           1468       67450.00    296447.50
  211.43        2968.00           1471       65514.00    287868.50
  211.46        2968.25           1475       62111.00    272799.00
  211.48        2968.50           1478       59301.00    260365.10
  211.51        2968.75           1481       55943.00    245517.70
  211.54        2969.00           1485       51534.00    226042.10
  211.56        2969.25           1488       48271.00    211642.40
  211.59        2969.50           1491       45104.00    197677.40
  211.62        2969.75           1495       40510.00    177439.60
  211.65        2970.00           1498       37480.00    164104.10
  211.67        2970.25           1501       34228.00    149802.70
  211.70        2970.50           1505       29914.00    130848.60
  211.73        2970.75           1508       26730.00    116872.20
  211.76        2971.00           1511       23825.00    104130.10
  211.78        2971.25           1515       19654.00     85850.85
  211.81        2971.50           1518       16457.00     71852.79
  211.84        2971.75           1521       13271.00     57913.81
  211.86        2972.00           1525        9352.00     40782.82
  211.89        2972.25           1528        6425.00     27998.84
  211.92        2972.50           1531        3742.00     16288.60
  211.95        2972.75           1535        1339.00      5806.96
  211.97        2973.00           1538         441.00      1891.56
  212.00        2973.25           1541         125.00       513.96
  212.03        2973.50           1545          51.00       191.37
  212.06        2973.75           1548          41.00       147.78
  212.08        2974.00           1551          38.00       134.70
  212.11        2974.25           1555          33.00       112.90
  212.14        2974.50           1558          29.00        95.47
  212.16        2974.75           1561          31.00       104.19
  212.19        2975.00           1565          31.00       104.19
  212.22        2975.25           1568          23.00        69.31
  212.25        2975.50           1571          20.00        56.23
  212.27        2975.75           1575          26.00        82.39
  212.30        2976.00           1578          25.00        78.03
  212.33        2976.25           1581          21.00        60.59
  212.35        2976.50           1585          22.00        64.95
  212.38        2976.75           1588          25.00        78.03
  212.41        2977.00           1591          22.00        64.95
  212.44        2977.25           1595          22.00        64.95
  212.46        2977.50           1598          18.00        47.52
  212.49        2977.75           1601          23.00        69.31
  212.52        2978.00           1605          22.00        64.95
  212.54        2978.25           1608          22.00        64.95
  212.57        2978.50           1611          18.00        47.52
  212.60        2978.75           1615          27.00        86.75
  212.63        2979.00           1618          23.00        69.31
  212.65        2979.25           1621          21.00        60.59
  212.68        2979.50           1625          17.00        43.16
  212.71        2979.75           1628          23.00        69.31
  212.73        2980.00           1631          22.00        64.95
  212.76        2980.25           1635          20.00        56.23
  212.79        2980.50           1638          23.00        69.31
  212.82        2980.75           1641          22.00        64.95
  212.84        2981.00           1645          20.00        56.23
  212.87        2981.25           1648          23.00        69.31
  212.90        2981.50           1651          25.00        78.03
  212.92        2981.75           1655          18.00        47.52
  212.95        2982.00           1658          22.00        64.95
  212.98        2982.25           1661          21.00        60.59
  213.01        2982.50           1665          21.00        60.59
  213.03        2982.75           1668          25.00        78.03
  213.06        2983.00           1671          21.00        60.59
  213.09        2983.25           1675          19.00        51.87
  213.11        2983.50           1678          23.00        69.31
  213.14        2983.75           1681          24.00        73.67
  213.17        2984.00           1685          20.00        56.23
HS scan finished at 03:33:21
end
