************************************************************
  HS Scan of (1) Internal mercury lamp
************************************************************
Integration time is 0.2294 seconds per sample
dh240818Tamanrasset 22.79-5.529 4.974364pr865
************************************************************
Dead Time -------------------------  2.8E-08 
Number of Cycles Used -------------  4 
Starting Wavelength (Angstroms) ---  2950 
Final Wavelength (Angstoms) -------  2984 
Wavelength Increment (Angstroms) --  .25 
Filter Wheel #1 Position ---------- (1) Ground quartz diffuser (ND=2.32)
Filter Wheel #2 Position ---------- (1) Neutral Density 0.494



************************************************************
HS scan start time = 03:29:11
Dark Count =  6.6 


Time (GMT)  Wavelength (Ang)  Step Number  Raw Counts  Counts/Second

  209.54        2950.00           1233          17.00        45.34
  209.61        2950.25           1236          20.00        58.41
  209.63        2950.50           1239          17.00        45.34
  209.66        2950.75           1242          16.00        40.98
  209.69        2951.00           1246          17.00        45.34
  209.72        2951.25           1249          18.00        49.69
  209.74        2951.50           1252          21.00        62.77
  209.77        2951.75           1256          20.00        58.41
  209.80        2952.00           1259          17.00        45.34
  209.82        2952.25           1262          22.00        67.13
  209.85        2952.50           1266          18.00        49.69
  209.88        2952.75           1269          21.00        62.77
  209.91        2953.00           1272          20.00        58.41
  209.93        2953.25           1276          22.00        67.13
  209.96        2953.50           1279          19.00        54.05
  209.99        2953.75           1282          23.00        71.49
  210.02        2954.00           1286          20.00        58.41
  210.04        2954.25           1289          21.00        62.77
  210.07        2954.50           1292          16.00        40.98
  210.10        2954.75           1295          19.00        54.05
  210.12        2955.00           1299          17.00        45.34
  210.15        2955.25           1302          21.00        62.77
  210.18        2955.50           1305          24.00        75.85
  210.21        2955.75           1309          23.00        71.49
  210.23        2956.00           1312          18.00        49.69
  210.26        2956.25           1315          19.00        54.05
  210.29        2956.50           1319          18.00        49.69
  210.31        2956.75           1322          19.00        54.05
  210.34        2957.00           1325          18.00        49.69
  210.37        2957.25           1329          20.00        58.41
  210.40        2957.50           1332          23.00        71.49
  210.42        2957.75           1335          21.00        62.77
  210.45        2958.00           1339          22.00        67.13
  210.48        2958.25           1342          19.00        54.05
  210.50        2958.50           1345          16.00        40.98
  210.53        2958.75           1348          22.00        67.13
  210.56        2959.00           1352          21.00        62.77
  210.58        2959.25           1355          18.00        49.69
  210.61        2959.50           1358          21.00        62.77
  210.64        2959.75           1362          21.00        62.77
  210.67        2960.00           1365          24.00        75.85
  210.69        2960.25           1368          38.00       136.88
  210.72        2960.50           1372          37.00       132.52
  210.75        2960.75           1375          46.00       171.75
  210.77        2961.00           1378         129.00       533.57
  210.80        2961.25           1382         650.00      2804.93
  210.83        2961.50           1385        1520.00      6598.43
  210.86        2961.75           1388        3119.00     13572.73
  210.88        2962.00           1392        6200.00     27018.69
  210.91        2962.25           1395        9090.00     39640.31
  210.94        2962.50           1398       12254.00     53468.83
  210.97        2962.75           1402       16199.00     70725.81
  210.99        2963.00           1405       19233.00     84009.06
  211.02        2963.25           1408       22522.00     98419.94
  211.05        2963.50           1412       26484.00    115795.10
  211.07        2963.75           1415       29272.00    128031.80
  211.10        2964.00           1418       32683.00    143014.50
  211.13        2964.25           1422       36731.00    160811.40
  211.16        2964.50           1425       39621.00    173528.10
  211.18        2964.75           1428       42929.00    188095.30
  211.21        2965.00           1431       46202.00    202520.00
  211.24        2965.25           1435       50188.00    220103.00
  211.27        2965.50           1438       54059.00    237195.20
  211.29        2965.75           1441       56842.00    249493.60
  211.32        2966.00           1445       60981.00    267800.00
  211.35        2966.25           1448       63383.00    278432.50
  211.38        2966.50           1451       65615.00    288318.20
  211.40        2966.75           1455       67225.00    295452.40
  211.43        2967.00           1458       67920.00    298533.00
  211.46        2967.25           1461       68068.00    299189.10
  211.48        2967.50           1465       67989.00    298838.90
  211.51        2967.75           1468       67285.00    295718.40
  211.54        2968.00           1471       65935.00    289736.00
  211.57        2968.25           1475       63242.00    277808.20
  211.59        2968.50           1478       60490.00    265627.40
  211.62        2968.75           1481       57364.00    251801.30
  211.65        2969.00           1485       53045.00    232716.30
  211.68        2969.25           1488       49511.00    217115.40
  211.70        2969.50           1491       46331.00    203088.80
  211.73        2969.75           1495       42065.00    184289.40
  211.76        2970.00           1498       38584.00    168964.00
  211.79        2970.25           1501       35419.00    155041.30
  211.81        2970.50           1505       31092.00    136024.50
  211.84        2970.75           1508       28107.00    122917.50
  211.87        2971.00           1511       24629.00    107658.00
  211.89        2971.25           1515       20488.00     89506.52
  211.92        2971.50           1518       17070.00     74538.15
  211.95        2971.75           1521       13954.00     60903.25
  211.98        2972.00           1525        9912.00     43231.90
  212.00        2972.25           1528        6899.00     30070.65
  212.03        2972.50           1531        4355.00     18965.61
  212.06        2972.75           1535        1779.00      7727.91
  212.09        2973.00           1538         626.00      2700.29
  212.11        2973.25           1541         177.00       742.82
  212.14        2973.50           1545          53.00       202.27
  212.17        2973.75           1548          40.00       145.60
  212.19        2974.00           1551          33.00       115.08
  212.22        2974.25           1555          34.00       119.44
  212.25        2974.50           1558          29.00        97.65
  212.28        2974.75           1561          26.00        84.57
  212.30        2975.00           1565          27.00        88.93
  212.33        2975.25           1568          29.00        97.65
  212.36        2975.50           1571          24.00        75.85
  212.38        2975.75           1575          26.00        84.57
  212.41        2976.00           1578          26.00        84.57
  212.44        2976.25           1581          27.00        88.93
  212.47        2976.50           1585          20.00        58.41
  212.49        2976.75           1588          24.00        75.85
  212.52        2977.00           1591          25.00        80.21
  212.55        2977.25           1595          24.00        75.85
  212.57        2977.50           1598          22.00        67.13
  212.60        2977.75           1601          21.00        62.77
  212.63        2978.00           1605          23.00        71.49
  212.66        2978.25           1608          26.00        84.57
  212.68        2978.50           1611          18.00        49.69
  212.71        2978.75           1615          22.00        67.13
  212.74        2979.00           1618          26.00        84.57
  212.76        2979.25           1621          26.00        84.57
  212.79        2979.50           1625          19.00        54.05
  212.82        2979.75           1628          26.00        84.57
  212.85        2980.00           1631          26.00        84.57
  212.87        2980.25           1635          19.00        54.05
  212.90        2980.50           1638          24.00        75.85
  212.93        2980.75           1641          22.00        67.13
  212.95        2981.00           1645          25.00        80.21
  212.98        2981.25           1648          19.00        54.05
  213.01        2981.50           1651          23.00        71.49
  213.04        2981.75           1655          20.00        58.41
  213.06        2982.00           1658          21.00        62.77
  213.09        2982.25           1661          23.00        71.49
  213.12        2982.50           1665          23.00        71.49
  213.14        2982.75           1668          22.00        67.13
  213.17        2983.00           1671          20.00        58.41
  213.20        2983.25           1675          20.00        58.41
  213.23        2983.50           1678          19.00        54.05
  213.25        2983.75           1681          20.00        58.41
  213.28        2984.00           1685          21.00        62.77
HS scan finished at 03:33:28
end
