************************************************************
  HS Scan of (1) Internal mercury lamp
************************************************************
Integration time is 0.2294 seconds per sample
dh240817Tamanrasset 22.79-5.529 3.169561pr865
************************************************************
Dead Time -------------------------  2.8E-08 
Number of Cycles Used -------------  4 
Starting Wavelength (Angstroms) ---  2950 
Final Wavelength (Angstoms) -------  2984 
Wavelength Increment (Angstroms) --  .25 
Filter Wheel #1 Position ---------- (1) Ground quartz diffuser (ND=2.32)
Filter Wheel #2 Position ---------- (1) Neutral Density 0.494



************************************************************
HS scan start time = 03:29:19
Dark Count =  3.5 


Time (GMT)  Wavelength (Ang)  Step Number  Raw Counts  Counts/Second

  209.67        2950.00           1233          21.00        76.29
  209.73        2950.25           1236          22.00        80.65
  209.76        2950.50           1239          16.00        54.49
  209.79        2950.75           1242          20.00        71.93
  209.82        2951.00           1246          20.00        71.93
  209.84        2951.25           1249          21.00        76.29
  209.87        2951.50           1252          22.00        80.65
  209.90        2951.75           1256          17.00        58.85
  209.93        2952.00           1259          19.00        67.57
  209.95        2952.25           1262          20.00        71.93
  209.98        2952.50           1266          17.00        58.85
  210.01        2952.75           1269          17.00        58.85
  210.03        2953.00           1272          22.00        80.65
  210.06        2953.25           1276          18.00        63.21
  210.09        2953.50           1279          24.00        89.36
  210.12        2953.75           1282          18.00        63.21
  210.14        2954.00           1286          19.00        67.57
  210.17        2954.25           1289          17.00        58.85
  210.20        2954.50           1292          17.00        58.85
  210.22        2954.75           1295          20.00        71.93
  210.25        2955.00           1299          20.00        71.93
  210.28        2955.25           1302          19.00        67.57
  210.31        2955.50           1305          21.00        76.29
  210.33        2955.75           1309          16.00        54.49
  210.36        2956.00           1312          17.00        58.85
  210.39        2956.25           1315          18.00        63.21
  210.41        2956.50           1319          21.00        76.29
  210.44        2956.75           1322          16.00        54.49
  210.47        2957.00           1325          22.00        80.65
  210.50        2957.25           1329          15.00        50.13
  210.52        2957.50           1332          18.00        63.21
  210.55        2957.75           1335          24.00        89.36
  210.58        2958.00           1339          22.00        80.65
  210.60        2958.25           1342          18.00        63.21
  210.63        2958.50           1345          23.00        85.00
  210.66        2958.75           1348          19.00        67.57
  210.69        2959.00           1352          16.00        54.49
  210.71        2959.25           1355          19.00        67.57
  210.74        2959.50           1358          22.00        80.65
  210.77        2959.75           1362          27.00       102.44
  210.80        2960.00           1365          29.00       111.16
  210.82        2960.25           1368          23.00        85.00
  210.85        2960.50           1372          42.00       167.83
  210.88        2960.75           1375          56.00       228.86
  210.90        2961.00           1378         203.00       869.68
  210.93        2961.25           1382         845.00      3668.64
  210.96        2961.50           1385        1937.00      8430.50
  210.98        2961.75           1388        3720.00     16208.31
  211.01        2962.00           1392        6877.00     29988.12
  211.04        2962.25           1395        9626.00     41995.74
  211.07        2962.50           1398       12565.00     54842.22
  211.09        2962.75           1402       16183.00     70669.34
  211.12        2963.00           1405       18992.00     82967.15
  211.15        2963.25           1408       22109.00     96623.31
  211.18        2963.50           1412       25683.00    112294.60
  211.20        2963.75           1415       28385.00    124151.40
  211.23        2964.00           1418       31363.00    137228.50
  211.26        2964.25           1422       35237.00    154254.60
  211.29        2964.50           1425       38229.00    167415.50
  211.31        2964.75           1428       41181.00    180409.90
  211.34        2965.00           1431       44336.00    194308.40
  211.37        2965.25           1435       48495.00    212646.40
  211.39        2965.50           1438       51140.00    224318.70
  211.42        2965.75           1441       54094.00    237363.50
  211.45        2966.00           1445       57949.00    254401.60
  211.48        2966.25           1448       60148.00    264128.00
  211.50        2966.50           1451       62178.00    273111.50
  211.53        2966.75           1455       63448.00    278734.00
  211.56        2967.00           1458       63814.00    280354.80
  211.59        2967.25           1461       63824.00    280399.00
  211.61        2967.50           1465       63500.00    278964.30
  211.64        2967.75           1468       62886.00    276245.80
  211.67        2968.00           1471       61494.00    270084.00
  211.70        2968.25           1475       59020.00    259138.10
  211.72        2968.50           1478       56054.00    246024.20
  211.75        2968.75           1481       53052.00    232761.00
  211.78        2969.00           1485       48819.00    214075.80
  211.81        2969.25           1488       45867.00    201056.80
  211.83        2969.50           1491       42877.00    187879.90
  211.86        2969.75           1495       38893.00    170337.50
  211.89        2970.00           1498       35796.00    156712.70
  211.91        2970.25           1501       32848.00    143753.10
  211.94        2970.50           1505       28755.00    125775.70
  211.97        2970.75           1508       25554.00    111728.70
  212.00        2971.00           1511       22699.00     99209.39
  212.02        2971.25           1515       19003.00     83015.32
  212.05        2971.50           1518       15994.00     69842.21
  212.08        2971.75           1521       13118.00     57260.44
  212.11        2972.00           1525        9379.00     40916.51
  212.13        2972.25           1528        6471.00     28215.40
  212.16        2972.50           1531        3932.00     17133.33
  212.19        2972.75           1535        1535.00      6677.36
  212.22        2973.00           1538         551.00      2386.82
  212.24        2973.25           1541         157.00       669.15
  212.27        2973.50           1545          53.00       215.78
  212.30        2973.75           1548          42.00       167.83
  212.32        2974.00           1551          29.00       111.16
  212.35        2974.25           1555          22.00        80.65
  212.38        2974.50           1558          26.00        98.08
  212.41        2974.75           1561          30.00       115.52
  212.43        2975.00           1565          20.00        71.93
  212.46        2975.25           1568          24.00        89.36
  212.49        2975.50           1571          19.00        67.57
  212.51        2975.75           1575          20.00        71.93
  212.54        2976.00           1578          20.00        71.93
  212.57        2976.25           1581          24.00        89.36
  212.60        2976.50           1585          19.00        67.57
  212.62        2976.75           1588          23.00        85.00
  212.65        2977.00           1591          25.00        93.72
  212.68        2977.25           1595          23.00        85.00
  212.70        2977.50           1598          17.00        58.85
  212.73        2977.75           1601          20.00        71.93
  212.76        2978.00           1605          22.00        80.65
  212.79        2978.25           1608          24.00        89.36
  212.81        2978.50           1611          22.00        80.65
  212.84        2978.75           1615          23.00        85.00
  212.87        2979.00           1618          22.00        80.65
  212.90        2979.25           1621          20.00        71.93
  212.92        2979.50           1625          19.00        67.57
  212.95        2979.75           1628          23.00        85.00
  212.98        2980.00           1631          18.00        63.21
  213.00        2980.25           1635          15.00        50.13
  213.03        2980.50           1638          18.00        63.21
  213.06        2980.75           1641          24.00        89.36
  213.09        2981.00           1645          18.00        63.21
  213.11        2981.25           1648          23.00        85.00
  213.14        2981.50           1651          22.00        80.65
  213.17        2981.75           1655          17.00        58.85
  213.19        2982.00           1658          20.00        71.93
  213.22        2982.25           1661          18.00        63.21
  213.25        2982.50           1665          21.00        76.29
  213.28        2982.75           1668          21.00        76.29
  213.30        2983.00           1671          19.00        67.57
  213.33        2983.25           1675          14.00        45.77
  213.36        2983.50           1678          16.00        54.49
  213.39        2983.75           1681          22.00        80.65
  213.41        2984.00           1685          23.00        85.00
HS scan finished at 03:33:36
end
