************************************************************
  HS Scan of (1) Internal mercury lamp
************************************************************
Integration time is 0.2294 seconds per sample
dh200817Tamanrasset 22.79-5.529 3.256233pr865
************************************************************
Dead Time -------------------------  2.8E-08 
Number of Cycles Used -------------  4 
Starting Wavelength (Angstroms) ---  2950 
Final Wavelength (Angstoms) -------  2984 
Wavelength Increment (Angstroms) --  .25 
Filter Wheel #1 Position ---------- (1) Ground quartz diffuser (ND=2.32)
Filter Wheel #2 Position ---------- (1) Neutral Density 0.494



************************************************************
HS scan start time = 03:28:48
Dark Count =  4.9 


Time (GMT)  Wavelength (Ang)  Step Number  Raw Counts  Counts/Second

  209.15        2950.00           1233          19.00        61.46
  209.22        2950.25           1236          22.00        74.54
  209.25        2950.50           1239          17.00        52.75
  209.27        2950.75           1242          23.00        78.90
  209.30        2951.00           1246          19.00        61.46
  209.33        2951.25           1249          20.00        65.82
  209.35        2951.50           1252          24.00        83.26
  209.38        2951.75           1256          23.00        78.90
  209.41        2952.00           1259          18.00        57.11
  209.43        2952.25           1262          18.00        57.11
  209.46        2952.50           1266          20.00        65.82
  209.49        2952.75           1269          28.00       100.70
  209.52        2953.00           1272          23.00        78.90
  209.54        2953.25           1276          21.00        70.18
  209.57        2953.50           1279          15.00        44.03
  209.60        2953.75           1282          23.00        78.90
  209.63        2954.00           1286          18.00        57.11
  209.65        2954.25           1289          21.00        70.18
  209.68        2954.50           1292          21.00        70.18
  209.71        2954.75           1295          21.00        70.18
  209.73        2955.00           1299          21.00        70.18
  209.76        2955.25           1302          18.00        57.11
  209.79        2955.50           1305          16.00        48.39
  209.82        2955.75           1309          18.00        57.11
  209.84        2956.00           1312          21.00        70.18
  209.87        2956.25           1315          18.00        57.11
  209.90        2956.50           1319          17.00        52.75
  209.92        2956.75           1322          15.00        44.03
  209.95        2957.00           1325          23.00        78.90
  209.98        2957.25           1329          21.00        70.18
  210.01        2957.50           1332          19.00        61.46
  210.03        2957.75           1335          17.00        52.75
  210.06        2958.00           1339          20.00        65.82
  210.09        2958.25           1342          18.00        57.11
  210.11        2958.50           1345          19.00        61.46
  210.14        2958.75           1348          18.00        57.11
  210.17        2959.00           1352          22.00        74.54
  210.20        2959.25           1355          18.00        57.11
  210.22        2959.50           1358          27.00        96.34
  210.25        2959.75           1362          26.00        91.98
  210.28        2960.00           1365          24.00        83.26
  210.30        2960.25           1368          31.00       113.78
  210.33        2960.50           1372          36.00       135.57
  210.36        2960.75           1375          44.00       170.45
  210.39        2961.00           1378         153.00       645.61
  210.41        2961.25           1382         658.00      2847.22
  210.44        2961.50           1385        1602.00      6963.43
  210.47        2961.75           1388        3221.00     14025.12
  210.49        2962.00           1392        6457.00     28148.16
  210.52        2962.25           1395        9087.00     39634.63
  210.55        2962.50           1398       12250.00     53458.78
  210.58        2962.75           1402       16061.00     70129.29
  210.60        2963.00           1405       18983.00     82921.60
  210.63        2963.25           1408       22205.00     97037.93
  210.66        2963.50           1412       25838.00    112968.40
  210.69        2963.75           1415       28688.00    125475.40
  210.71        2964.00           1418       31743.00    138891.80
  210.74        2964.25           1422       35719.00    156368.00
  210.77        2964.50           1425       38752.00    169710.80
  210.80        2964.75           1428       42070.00    184318.90
  210.82        2965.00           1431       45030.00    197361.00
  210.85        2965.25           1435       49052.00    215097.60
  210.88        2965.50           1438       52214.00    229054.20
  210.90        2965.75           1441       55309.00    242725.60
  210.93        2966.00           1445       59212.00    259981.10
  210.96        2966.25           1448       61580.00    270458.50
  210.99        2966.50           1451       63677.00    279741.90
  211.01        2966.75           1455       65232.00    286629.00
  211.04        2967.00           1458       65940.00    289765.60
  211.07        2967.25           1461       66191.00    290877.80
  211.10        2967.50           1465       65537.00    287980.20
  211.12        2967.75           1468       65257.00    286739.80
  211.15        2968.00           1471       63687.00    279786.20
  211.18        2968.25           1475       61299.00    269214.80
  211.20        2968.50           1478       58357.00    256199.70
  211.23        2968.75           1481       55387.00    243070.30
  211.26        2969.00           1485       51094.00    224109.40
  211.29        2969.25           1488       47833.00    209720.10
  211.31        2969.50           1491       44547.00    195232.20
  211.34        2969.75           1495       40446.00    177167.50
  211.37        2970.00           1498       37258.00    163137.10
  211.40        2970.25           1501       34314.00    150190.40
  211.42        2970.50           1505       30026.00    131350.10
  211.45        2970.75           1508       26929.00    117755.10
  211.48        2971.00           1511       24024.00    105012.30
  211.51        2971.25           1515       19806.00     86526.29
  211.53        2971.50           1518       16800.00     73363.71
  211.56        2971.75           1521       13825.00     60346.43
  211.59        2972.00           1525        9828.00     42872.27
  211.61        2972.25           1528        6904.00     30099.90
  211.64        2972.50           1531        4133.00     18004.28
  211.67        2972.75           1535        1687.00      7334.11
  211.70        2973.00           1538         624.00      2698.98
  211.72        2973.25           1541         174.00       737.16
  211.75        2973.50           1545          56.00       222.76
  211.78        2973.75           1548          46.00       179.16
  211.81        2974.00           1551          34.00       126.85
  211.83        2974.25           1555          28.00       100.70
  211.86        2974.50           1558          21.00        70.18
  211.89        2974.75           1561          28.00       100.70
  211.91        2975.00           1565          23.00        78.90
  211.94        2975.25           1568          25.00        87.62
  211.97        2975.50           1571          25.00        87.62
  212.00        2975.75           1575          30.00       109.42
  212.02        2976.00           1578          22.00        74.54
  212.05        2976.25           1581          25.00        87.62
  212.08        2976.50           1585          23.00        78.90
  212.10        2976.75           1588          26.00        91.98
  212.13        2977.00           1591          22.00        74.54
  212.16        2977.25           1595          22.00        74.54
  212.19        2977.50           1598          19.00        61.46
  212.21        2977.75           1601          21.00        70.18
  212.24        2978.00           1605          23.00        78.90
  212.27        2978.25           1608          18.00        57.11
  212.29        2978.50           1611          19.00        61.46
  212.32        2978.75           1615          22.00        74.54
  212.35        2979.00           1618          24.00        83.26
  212.38        2979.25           1621          21.00        70.18
  212.40        2979.50           1625          23.00        78.90
  212.43        2979.75           1628          22.00        74.54
  212.46        2980.00           1631          19.00        61.46
  212.48        2980.25           1635          23.00        78.90
  212.51        2980.50           1638          20.00        65.82
  212.54        2980.75           1641          20.00        65.82
  212.57        2981.00           1645          21.00        70.18
  212.59        2981.25           1648          19.00        61.46
  212.62        2981.50           1651          19.00        61.46
  212.65        2981.75           1655          18.00        57.11
  212.67        2982.00           1658          18.00        57.11
  212.70        2982.25           1661          21.00        70.18
  212.73        2982.50           1665          18.00        57.11
  212.76        2982.75           1668          20.00        65.82
  212.78        2983.00           1671          19.00        61.46
  212.81        2983.25           1675          20.00        65.82
  212.84        2983.50           1678          20.00        65.82
  212.86        2983.75           1681          21.00        70.18
  212.89        2984.00           1685          25.00        87.62
HS scan finished at 03:33:05
end
