************************************************************
  HS Scan of (1) Internal mercury lamp
************************************************************
Integration time is 0.2294 seconds per sample
dh180818Tamanrasset 22.79-5.529 4.974364pr865
************************************************************
Dead Time -------------------------  2.8E-08 
Number of Cycles Used -------------  4 
Starting Wavelength (Angstroms) ---  2950 
Final Wavelength (Angstoms) -------  2984 
Wavelength Increment (Angstroms) --  .25 
Filter Wheel #1 Position ---------- (1) Ground quartz diffuser (ND=2.32)
Filter Wheel #2 Position ---------- (1) Neutral Density 0.494



************************************************************
HS scan start time = 03:27:06
Dark Count =  5.9 


Time (GMT)  Wavelength (Ang)  Step Number  Raw Counts  Counts/Second

  207.46        2950.00           1233          19.00        57.11
  207.52        2950.25           1236          21.00        65.82
  207.55        2950.50           1239          24.00        78.90
  207.58        2950.75           1242          19.00        57.11
  207.60        2951.00           1246          22.00        70.18
  207.63        2951.25           1249          21.00        65.82
  207.66        2951.50           1252          22.00        70.18
  207.69        2951.75           1256          22.00        70.18
  207.71        2952.00           1259          17.00        48.39
  207.74        2952.25           1262          19.00        57.11
  207.77        2952.50           1266          24.00        78.90
  207.79        2952.75           1269          23.00        74.54
  207.82        2953.00           1272          24.00        78.90
  207.85        2953.25           1276          25.00        83.26
  207.88        2953.50           1279          17.00        48.39
  207.90        2953.75           1282          17.00        48.39
  207.93        2954.00           1286          20.00        61.46
  207.96        2954.25           1289          21.00        65.82
  207.98        2954.50           1292          19.00        57.11
  208.01        2954.75           1295          19.00        57.11
  208.04        2955.00           1299          23.00        74.54
  208.07        2955.25           1302          18.00        52.75
  208.09        2955.50           1305          15.00        39.67
  208.12        2955.75           1309          18.00        52.75
  208.15        2956.00           1312          20.00        61.46
  208.18        2956.25           1315          23.00        74.54
  208.20        2956.50           1319          17.00        48.39
  208.23        2956.75           1322          22.00        70.18
  208.26        2957.00           1325          19.00        57.11
  208.28        2957.25           1329          23.00        74.54
  208.31        2957.50           1332          18.00        52.75
  208.34        2957.75           1335          17.00        48.39
  208.36        2958.00           1339          19.00        57.11
  208.39        2958.25           1342          21.00        65.82
  208.42        2958.50           1345          22.00        70.18
  208.45        2958.75           1348          25.00        83.26
  208.47        2959.00           1352          21.00        65.82
  208.50        2959.25           1355          22.00        70.18
  208.53        2959.50           1358          24.00        78.90
  208.55        2959.75           1362          25.00        83.26
  208.58        2960.00           1365          28.00        96.34
  208.61        2960.25           1368          27.00        91.98
  208.64        2960.50           1372          32.00       113.78
  208.66        2960.75           1375          41.00       153.01
  208.69        2961.00           1378         113.00       466.88
  208.72        2961.25           1382         566.00      2441.75
  208.75        2961.50           1385        1442.00      6261.34
  208.77        2961.75           1388        2878.00     12524.44
  208.80        2962.00           1392        5903.00     25725.15
  208.83        2962.25           1395        8581.00     37419.75
  208.85        2962.50           1398       11488.00     50123.04
  208.88        2962.75           1402       15224.00     66462.28
  208.91        2963.00           1405       18497.00     80788.91
  208.94        2963.25           1408       21237.00     92791.34
  208.96        2963.50           1412       25162.00    109998.70
  208.99        2963.75           1415       28133.00    123034.70
  209.02        2964.00           1418       31024.00    135728.90
  209.05        2964.25           1422       34965.00    153048.10
  209.07        2964.50           1425       37969.00    166260.90
  209.10        2964.75           1428       40930.00    179294.10
  209.13        2965.00           1431       44173.00    193579.60
  209.15        2965.25           1435       48046.00    210655.20
  209.18        2965.50           1438       51110.00    224175.60
  209.21        2965.75           1441       54272.00    238139.30
  209.24        2966.00           1445       57996.00    254598.90
  209.26        2966.25           1448       60476.00    265568.60
  209.29        2966.50           1451       62440.00    274260.70
  209.32        2966.75           1455       64272.00    282372.40
  209.35        2967.00           1458       64874.00    285038.80
  209.37        2967.25           1461       64891.00    285114.10
  209.40        2967.50           1465       65070.00    285907.00
  209.43        2967.75           1468       64524.00    283488.50
  209.46        2968.00           1471       63289.00    278019.40
  209.48        2968.25           1475       60932.00    267586.30
  209.51        2968.50           1478       58497.00    256814.40
  209.54        2968.75           1481       55526.00    243680.10
  209.56        2969.00           1485       51301.00    225018.80
  209.59        2969.25           1488       47891.00    209971.50
  209.62        2969.50           1491       44778.00    196245.90
  209.65        2969.75           1495       40834.00    178871.40
  209.67        2970.00           1498       37486.00    164135.80
  209.70        2970.25           1501       34553.00    151236.70
  209.73        2970.50           1505       30466.00    133278.10
  209.76        2970.75           1508       27384.00    119747.40
  209.78        2971.00           1511       24263.00    106056.00
  209.81        2971.25           1515       20118.00     87888.64
  209.84        2971.50           1518       17145.00     74869.52
  209.87        2971.75           1521       14380.00     62769.77
  209.89        2972.00           1525       10647.00     46447.03
  209.92        2972.25           1528        7536.00     32855.41
  209.95        2972.50           1531        4971.00     21656.98
  209.98        2972.75           1535        2228.00      9689.20
  210.00        2973.00           1538         962.00      4168.32
  210.03        2973.25           1541         293.00      1251.57
  210.06        2973.50           1545          59.00       231.47
  210.08        2973.75           1548          35.00       126.85
  210.11        2974.00           1551          34.00       122.49
  210.14        2974.25           1555          30.00       105.06
  210.17        2974.50           1558          30.00       105.06
  210.19        2974.75           1561          27.00        91.98
  210.22        2975.00           1565          22.00        70.18
  210.25        2975.25           1568          24.00        78.90
  210.27        2975.50           1571          19.00        57.11
  210.30        2975.75           1575          20.00        61.46
  210.33        2976.00           1578          22.00        70.18
  210.36        2976.25           1581          19.00        57.11
  210.38        2976.50           1585          23.00        74.54
  210.41        2976.75           1588          24.00        78.90
  210.44        2977.00           1591          20.00        61.46
  210.46        2977.25           1595          19.00        57.11
  210.49        2977.50           1598          23.00        74.54
  210.52        2977.75           1601          22.00        70.18
  210.55        2978.00           1605          21.00        65.82
  210.57        2978.25           1608          18.00        52.75
  210.60        2978.50           1611          23.00        74.54
  210.63        2978.75           1615          21.00        65.82
  210.65        2979.00           1618          17.00        48.39
  210.68        2979.25           1621          22.00        70.18
  210.71        2979.50           1625          18.00        52.75
  210.74        2979.75           1628          27.00        91.98
  210.76        2980.00           1631          23.00        74.54
  210.79        2980.25           1635          22.00        70.18
  210.82        2980.50           1638          22.00        70.18
  210.84        2980.75           1641          18.00        52.75
  210.87        2981.00           1645          22.00        70.18
  210.90        2981.25           1648          22.00        70.18
  210.93        2981.50           1651          17.00        48.39
  210.95        2981.75           1655          14.00        35.31
  210.98        2982.00           1658          19.00        57.11
  211.01        2982.25           1661          20.00        61.46
  211.04        2982.50           1665          22.00        70.18
  211.06        2982.75           1668          24.00        78.90
  211.09        2983.00           1671          21.00        65.82
  211.12        2983.25           1675          20.00        61.46
  211.14        2983.50           1678          18.00        52.75
  211.17        2983.75           1681          22.00        70.18
  211.20        2984.00           1685          21.00        65.82
HS scan finished at 03:31:23
end
