************************************************************
  HS Scan of (1) Internal mercury lamp
************************************************************
Integration time is 0.2294 seconds per sample
dh220818Tamanrasset 22.79-5.529 4.974364pr865
************************************************************
Dead Time -------------------------  2.8E-08 
Number of Cycles Used -------------  4 
Starting Wavelength (Angstroms) ---  2950 
Final Wavelength (Angstoms) -------  2984 
Wavelength Increment (Angstroms) --  .25 
Filter Wheel #1 Position ---------- (1) Ground quartz diffuser (ND=2.32)
Filter Wheel #2 Position ---------- (1) Neutral Density 0.494



************************************************************
HS scan start time = 03:29:06
Dark Count =  7.2 


Time (GMT)  Wavelength (Ang)  Step Number  Raw Counts  Counts/Second

  209.46        2950.00           1233          19.00        51.44
  209.52        2950.25           1236          19.00        51.44
  209.55        2950.50           1239          26.00        81.95
  209.58        2950.75           1242          20.00        55.80
  209.60        2951.00           1246          19.00        51.44
  209.63        2951.25           1249          20.00        55.80
  209.66        2951.50           1252          23.00        68.88
  209.68        2951.75           1256          18.00        47.08
  209.71        2952.00           1259          21.00        60.16
  209.74        2952.25           1262          22.00        64.52
  209.76        2952.50           1266          20.00        55.80
  209.79        2952.75           1269          19.00        51.44
  209.82        2953.00           1272          22.00        64.52
  209.85        2953.25           1276          23.00        68.88
  209.87        2953.50           1279          18.00        47.08
  209.90        2953.75           1282          15.00        34.00
  209.93        2954.00           1286          22.00        64.52
  209.95        2954.25           1289          25.00        77.59
  209.98        2954.50           1292          19.00        51.44
  210.01        2954.75           1295          17.00        42.72
  210.04        2955.00           1299          21.00        60.16
  210.06        2955.25           1302          16.00        38.36
  210.09        2955.50           1305          18.00        47.08
  210.12        2955.75           1309          21.00        60.16
  210.14        2956.00           1312          20.00        55.80
  210.17        2956.25           1315          20.00        55.80
  210.20        2956.50           1319          23.00        68.88
  210.23        2956.75           1322          16.00        38.36
  210.25        2957.00           1325          18.00        47.08
  210.28        2957.25           1329          20.00        55.80
  210.31        2957.50           1332          21.00        60.16
  210.33        2957.75           1335          19.00        51.44
  210.36        2958.00           1339          24.00        73.23
  210.39        2958.25           1342          15.00        34.00
  210.42        2958.50           1345          23.00        68.88
  210.44        2958.75           1348          19.00        51.44
  210.47        2959.00           1352          21.00        60.16
  210.50        2959.25           1355          20.00        55.80
  210.52        2959.50           1358          21.00        60.16
  210.55        2959.75           1362          23.00        68.88
  210.58        2960.00           1365          28.00        90.67
  210.61        2960.25           1368          31.00       103.75
  210.63        2960.50           1372          35.00       121.19
  210.66        2960.75           1375          44.00       160.42
  210.69        2961.00           1378         130.00       535.32
  210.71        2961.25           1382         610.00      2627.92
  210.74        2961.50           1385        1464.00      6351.61
  210.77        2961.75           1388        3076.00     13382.52
  210.80        2962.00           1392        5975.00     26033.79
  210.82        2962.25           1395        8782.00     38292.13
  210.85        2962.50           1398       11905.00     51940.35
  210.88        2962.75           1402       15652.00     68329.40
  210.91        2963.00           1405       18903.00     82561.18
  210.93        2963.25           1408       21948.00     95901.47
  210.96        2963.50           1412       26001.00    113673.40
  210.99        2963.75           1415       29154.00    127511.10
  211.02        2964.00           1418       32258.00    141144.40
  211.04        2964.25           1422       36410.00    159396.90
  211.07        2964.50           1425       39481.00    172909.20
  211.10        2964.75           1428       43002.00    188414.20
  211.12        2965.00           1431       46156.00    202314.60
  211.15        2965.25           1435       50341.00    220775.60
  211.18        2965.50           1438       53432.00    234423.00
  211.21        2965.75           1441       56471.00    247851.00
  211.23        2966.00           1445       60820.00    267085.00
  211.26        2966.25           1448       63307.00    278093.40
  211.29        2966.50           1451       65071.00    285905.60
  211.32        2966.75           1455       67059.00    294714.00
  211.34        2967.00           1458       67917.00    298517.00
  211.37        2967.25           1461       67847.00    298206.70
  211.40        2967.50           1465       67832.00    298140.20
  211.43        2967.75           1468       67063.00    294731.80
  211.45        2968.00           1471       65790.00    289090.90
  211.48        2968.25           1475       63176.00    277513.40
  211.51        2968.50           1478       60766.00    266846.00
  211.53        2968.75           1481       57300.00    251515.70
  211.56        2969.00           1485       53385.00    234215.40
  211.59        2969.25           1488       49722.00    218043.80
  211.62        2969.50           1491       46505.00    203853.40
  211.64        2969.75           1495       41884.00    183489.60
  211.67        2970.00           1498       38817.00    169986.80
  211.70        2970.25           1501       35546.00    155597.10
  211.73        2970.50           1505       31080.00    135969.10
  211.75        2970.75           1508       28043.00    122634.00
  211.78        2971.00           1511       24815.00    108471.10
  211.81        2971.25           1515       21000.00     91747.16
  211.84        2971.50           1518       17650.00     77074.62
  211.86        2971.75           1521       14667.00     64019.62
  211.89        2972.00           1525       10741.00     46852.18
  211.92        2972.25           1528        7547.00     32897.77
  211.95        2972.50           1531        4862.00     21175.59
  211.97        2972.75           1535        2040.00      8863.58
  212.00        2973.00           1538         841.00      3635.07
  212.03        2973.25           1541         238.00      1006.13
  212.05        2973.50           1545          58.00       221.45
  212.08        2973.75           1548          38.00       134.26
  212.11        2974.00           1551          36.00       125.55
  212.14        2974.25           1555          30.00        99.39
  212.16        2974.50           1558          31.00       103.75
  212.19        2974.75           1561          23.00        68.88
  212.22        2975.00           1565          23.00        68.88
  212.24        2975.25           1568          24.00        73.23
  212.27        2975.50           1571          24.00        73.23
  212.30        2975.75           1575          30.00        99.39
  212.33        2976.00           1578          28.00        90.67
  212.35        2976.25           1581          21.00        60.16
  212.38        2976.50           1585          25.00        77.59
  212.41        2976.75           1588          24.00        73.23
  212.43        2977.00           1591          23.00        68.88
  212.46        2977.25           1595          27.00        86.31
  212.49        2977.50           1598          25.00        77.59
  212.52        2977.75           1601          26.00        81.95
  212.54        2978.00           1605          22.00        64.52
  212.57        2978.25           1608          21.00        60.16
  212.60        2978.50           1611          18.00        47.08
  212.62        2978.75           1615          24.00        73.23
  212.65        2979.00           1618          24.00        73.23
  212.68        2979.25           1621          22.00        64.52
  212.71        2979.50           1625          20.00        55.80
  212.73        2979.75           1628          23.00        68.88
  212.76        2980.00           1631          22.00        64.52
  212.79        2980.25           1635          23.00        68.88
  212.82        2980.50           1638          22.00        64.52
  212.84        2980.75           1641          24.00        73.23
  212.87        2981.00           1645          21.00        60.16
  212.90        2981.25           1648          21.00        60.16
  212.92        2981.50           1651          21.00        60.16
  212.95        2981.75           1655          18.00        47.08
  212.98        2982.00           1658          21.00        60.16
  213.01        2982.25           1661          18.00        47.08
  213.03        2982.50           1665          24.00        73.23
  213.06        2982.75           1668          18.00        47.08
  213.09        2983.00           1671          21.00        60.16
  213.11        2983.25           1675          23.00        68.88
  213.14        2983.50           1678          21.00        60.16
  213.17        2983.75           1681          24.00        73.23
  213.20        2984.00           1685          25.00        77.59
HS scan finished at 03:33:23
end
