************************************************************
  HS Scan of (1) Internal mercury lamp
************************************************************
Integration time is 0.2294 seconds per sample
dh270818Tamanrasset 22.79-5.529 4.974364pr865
************************************************************
Dead Time -------------------------  2.8E-08 
Number of Cycles Used -------------  4 
Starting Wavelength (Angstroms) ---  2950 
Final Wavelength (Angstoms) -------  2984 
Wavelength Increment (Angstroms) --  .25 
Filter Wheel #1 Position ---------- (1) Ground quartz diffuser (ND=2.32)
Filter Wheel #2 Position ---------- (1) Neutral Density 0.494



************************************************************
HS scan start time = 03:30:23
Dark Count =  5.3 


Time (GMT)  Wavelength (Ang)  Step Number  Raw Counts  Counts/Second

  210.74        2950.00           1233          21.00        68.44
  210.80        2950.25           1236          20.00        64.08
  210.83        2950.50           1239          17.00        51.00
  210.85        2950.75           1242          22.00        72.80
  210.88        2951.00           1246          18.00        55.36
  210.91        2951.25           1249          19.00        59.72
  210.94        2951.50           1252          22.00        72.80
  210.96        2951.75           1256          18.00        55.36
  210.99        2952.00           1259          23.00        77.16
  211.02        2952.25           1262          24.00        81.52
  211.04        2952.50           1266          20.00        64.08
  211.07        2952.75           1269          22.00        72.80
  211.10        2953.00           1272          21.00        68.44
  211.13        2953.25           1276          19.00        59.72
  211.15        2953.50           1279          20.00        64.08
  211.18        2953.75           1282          24.00        81.52
  211.21        2954.00           1286          24.00        81.52
  211.24        2954.25           1289          15.00        42.28
  211.26        2954.50           1292          24.00        81.52
  211.29        2954.75           1295          21.00        68.44
  211.32        2955.00           1299          25.00        85.88
  211.34        2955.25           1302          19.00        59.72
  211.37        2955.50           1305          19.00        59.72
  211.40        2955.75           1309          25.00        85.88
  211.43        2956.00           1312          19.00        59.72
  211.45        2956.25           1315          20.00        64.08
  211.48        2956.50           1319          20.00        64.08
  211.51        2956.75           1322          19.00        59.72
  211.53        2957.00           1325          21.00        68.44
  211.56        2957.25           1329          18.00        55.36
  211.59        2957.50           1332          16.00        46.64
  211.62        2957.75           1335          20.00        64.08
  211.64        2958.00           1339          24.00        81.52
  211.67        2958.25           1342          20.00        64.08
  211.70        2958.50           1345          17.00        51.00
  211.72        2958.75           1348          16.00        46.64
  211.75        2959.00           1352          20.00        64.08
  211.78        2959.25           1355          20.00        64.08
  211.81        2959.50           1358          25.00        85.88
  211.83        2959.75           1362          23.00        77.16
  211.86        2960.00           1365          28.00        98.95
  211.89        2960.25           1368          32.00       116.39
  211.91        2960.50           1372          39.00       146.91
  211.94        2960.75           1375          36.00       133.83
  211.97        2961.00           1378         121.00       504.37
  212.00        2961.25           1382         609.00      2631.84
  212.02        2961.50           1385        1434.00      6229.07
  212.05        2961.75           1388        2878.00     12527.06
  212.08        2962.00           1392        5592.00     24370.16
  212.11        2962.25           1395        8349.00     36408.94
  212.13        2962.50           1398       11305.00     49325.71
  212.16        2962.75           1402       14974.00     65371.07
  212.19        2963.00           1405       18009.00     78654.72
  212.21        2963.25           1408       20884.00     91247.22
  212.24        2963.50           1412       24601.00    107540.90
  212.27        2963.75           1415       27887.00    121957.60
  212.30        2964.00           1418       30591.00    133829.70
  212.32        2964.25           1422       34430.00    150698.60
  212.35        2964.50           1425       37520.00    164288.00
  212.38        2964.75           1428       40615.00    177909.80
  212.41        2965.00           1431       43507.00    190647.50
  212.43        2965.25           1435       47498.00    208240.80
  212.46        2965.50           1438       50522.00    221582.80
  212.49        2965.75           1441       53474.00    234616.90
  212.51        2966.00           1445       57477.00    252306.70
  212.54        2966.25           1448       59910.00    263067.10
  212.57        2966.50           1451       61821.00    271523.40
  212.60        2966.75           1455       63418.00    278593.30
  212.62        2967.00           1458       63845.00    280484.10
  212.65        2967.25           1461       64230.00    282189.10
  212.68        2967.50           1465       63883.00    280652.40
  212.71        2967.75           1468       63399.00    278509.10
  212.73        2968.00           1471       62077.00    272656.50
  212.76        2968.25           1475       59106.00    259510.50
  212.79        2968.50           1478       56851.00    249539.10
  212.82        2968.75           1481       53823.00    236158.50
  212.84        2969.00           1485       49672.00    217831.60
  212.87        2969.25           1488       46264.00    202799.10
  212.90        2969.50           1491       43425.00    190286.20
  212.92        2969.75           1495       39153.00    171473.90
  212.95        2970.00           1498       36265.00    158767.40
  212.98        2970.25           1501       33102.00    144861.40
  213.01        2970.50           1505       29165.00    127567.80
  213.03        2970.75           1508       26082.00    114037.00
  213.06        2971.00           1511       23159.00    101218.00
  213.09        2971.25           1515       19224.00     83975.34
  213.12        2971.50           1518       16298.00     71164.78
  213.14        2971.75           1521       13233.00     57755.49
  213.17        2972.00           1525        9380.00     40913.02
  213.20        2972.25           1528        6593.00     28740.21
  213.23        2972.50           1531        4082.00     17779.99
  213.25        2972.75           1535        1670.00      7258.23
  213.28        2973.00           1538         637.00      2753.92
  213.31        2973.25           1541         183.00       774.65
  213.33        2973.50           1545          54.00       212.29
  213.36        2973.75           1548          41.00       155.62
  213.39        2974.00           1551          35.00       129.47
  213.42        2974.25           1555          29.00       103.31
  213.44        2974.50           1558          27.00        94.59
  213.47        2974.75           1561          25.00        85.88
  213.50        2975.00           1565          26.00        90.24
  213.52        2975.25           1568          21.00        68.44
  213.55        2975.50           1571          20.00        64.08
  213.58        2975.75           1575          24.00        81.52
  213.61        2976.00           1578          27.00        94.59
  213.63        2976.25           1581          25.00        85.88
  213.66        2976.50           1585          21.00        68.44
  213.69        2976.75           1588          29.00       103.31
  213.71        2977.00           1591          24.00        81.52
  213.74        2977.25           1595          22.00        72.80
  213.77        2977.50           1598          22.00        72.80
  213.80        2977.75           1601          18.00        55.36
  213.82        2978.00           1605          15.00        42.28
  213.85        2978.25           1608          23.00        77.16
  213.88        2978.50           1611          23.00        77.16
  213.90        2978.75           1615          27.00        94.59
  213.93        2979.00           1618          20.00        64.08
  213.96        2979.25           1621          24.00        81.52
  213.99        2979.50           1625          21.00        68.44
  214.01        2979.75           1628          24.00        81.52
  214.04        2980.00           1631          20.00        64.08
  214.07        2980.25           1635          22.00        72.80
  214.10        2980.50           1638          20.00        64.08
  214.12        2980.75           1641          22.00        72.80
  214.15        2981.00           1645          17.00        51.00
  214.18        2981.25           1648          22.00        72.80
  214.20        2981.50           1651          21.00        68.44
  214.23        2981.75           1655          16.00        46.64
  214.26        2982.00           1658          21.00        68.44
  214.29        2982.25           1661          19.00        59.72
  214.31        2982.50           1665          24.00        81.52
  214.34        2982.75           1668          20.00        64.08
  214.37        2983.00           1671          21.00        68.44
  214.39        2983.25           1675          19.00        59.72
  214.42        2983.50           1678          20.00        64.08
  214.45        2983.75           1681          20.00        64.08
  214.48        2984.00           1685          23.00        77.16
HS scan finished at 03:34:40
end
