************************************************************
  HS Scan of (1) Internal mercury lamp
************************************************************
Integration time is 0.2294 seconds per sample
dh250817Tamanrasset 22.79-5.529 3.215446pr865
************************************************************
Dead Time -------------------------  2.8E-08 
Number of Cycles Used -------------  4 
Starting Wavelength (Angstroms) ---  2950 
Final Wavelength (Angstoms) -------  2984 
Wavelength Increment (Angstroms) --  .25 
Filter Wheel #1 Position ---------- (1) Ground quartz diffuser (ND=2.32)
Filter Wheel #2 Position ---------- (1) Neutral Density 0.494



************************************************************
HS scan start time = 03:30:48
Dark Count =  5.5 


Time (GMT)  Wavelength (Ang)  Step Number  Raw Counts  Counts/Second

  211.16        2950.00           1233          23.00        76.29
  211.23        2950.25           1236          17.00        50.13
  211.25        2950.50           1239          22.00        71.93
  211.28        2950.75           1242          18.00        54.49
  211.31        2951.00           1246          18.00        54.49
  211.33        2951.25           1249          19.00        58.85
  211.36        2951.50           1252          16.00        45.77
  211.39        2951.75           1256          16.00        45.77
  211.42        2952.00           1259          19.00        58.85
  211.44        2952.25           1262          18.00        54.49
  211.47        2952.50           1266          25.00        85.00
  211.50        2952.75           1269          20.00        63.21
  211.52        2953.00           1272          18.00        54.49
  211.55        2953.25           1276          20.00        63.21
  211.58        2953.50           1279          21.00        67.57
  211.61        2953.75           1282          21.00        67.57
  211.63        2954.00           1286          24.00        80.65
  211.66        2954.25           1289          20.00        63.21
  211.69        2954.50           1292          19.00        58.85
  211.72        2954.75           1295          21.00        67.57
  211.74        2955.00           1299          19.00        58.85
  211.77        2955.25           1302          17.00        50.13
  211.80        2955.50           1305          16.00        45.77
  211.82        2955.75           1309          22.00        71.93
  211.85        2956.00           1312          23.00        76.29
  211.88        2956.25           1315          16.00        45.77
  211.91        2956.50           1319          22.00        71.93
  211.93        2956.75           1322          12.00        28.33
  211.96        2957.00           1325          18.00        54.49
  211.99        2957.25           1329          14.00        37.05
  212.01        2957.50           1332          22.00        71.93
  212.04        2957.75           1335          19.00        58.85
  212.07        2958.00           1339          20.00        63.21
  212.10        2958.25           1342          17.00        50.13
  212.12        2958.50           1345          20.00        63.21
  212.15        2958.75           1348          18.00        54.49
  212.18        2959.00           1352          14.00        37.05
  212.20        2959.25           1355          16.00        45.77
  212.23        2959.50           1358          25.00        85.00
  212.26        2959.75           1362          22.00        71.93
  212.29        2960.00           1365          26.00        89.36
  212.31        2960.25           1368          35.00       128.60
  212.34        2960.50           1372          33.00       119.88
  212.37        2960.75           1375          40.00       150.39
  212.39        2961.00           1378         137.00       573.24
  212.42        2961.25           1382         646.00      2792.28
  212.45        2961.50           1385        1474.00      6402.63
  212.48        2961.75           1388        3031.00     13193.63
  212.50        2962.00           1392        6009.00     26189.65
  212.53        2962.25           1395        8688.00     37888.92
  212.56        2962.50           1398       11514.00     50238.45
  212.58        2962.75           1402       15538.00     67837.98
  212.61        2963.00           1405       18172.00     79367.56
  212.64        2963.25           1408       21288.00     93016.57
  212.67        2963.50           1412       25251.00    110390.80
  212.69        2963.75           1415       28144.00    123084.80
  212.72        2964.00           1418       31079.00    135972.20
  212.75        2964.25           1422       35422.00    155059.30
  212.78        2964.50           1425       38245.00    167477.10
  212.80        2964.75           1428       41167.00    180339.40
  212.83        2965.00           1431       44523.00    195123.70
  212.86        2965.25           1435       48241.00    211517.10
  212.89        2965.50           1438       51335.00    225170.60
  212.91        2965.75           1441       54141.00    237562.30
  212.94        2966.00           1445       57889.00    254127.50
  212.97        2966.25           1448       60283.00    264716.40
  213.00        2966.50           1451       62616.00    275041.60
  213.02        2966.75           1455       63936.00    280886.20
  213.05        2967.00           1458       64285.00    282431.80
  213.08        2967.25           1461       64476.00    283277.70
  213.10        2967.50           1465       64209.00    282095.20
  213.13        2967.75           1468       63382.00    278433.00
  213.16        2968.00           1471       62169.00    273062.80
  213.19        2968.25           1475       59576.00    261588.60
  213.21        2968.50           1478       57012.00    250250.00
  213.24        2968.75           1481       54071.00    237253.10
  213.27        2969.00           1485       49576.00    217407.10
  213.30        2969.25           1488       46618.00    204359.10
  213.33        2969.50           1491       43366.00    190025.40
  213.35        2969.75           1495       39413.00    172617.40
  213.38        2970.00           1498       36223.00    158581.90
  213.41        2970.25           1501       33358.00    145985.70
  213.43        2970.50           1505       29174.00    127606.40
  213.46        2970.75           1508       26304.00    115010.10
  213.49        2971.00           1511       23343.00    102023.80
  213.52        2971.25           1515       19254.00     84105.85
  213.54        2971.50           1518       16197.00     70721.86
  213.57        2971.75           1521       13376.00     58380.01
  213.60        2972.00           1525        9508.00     41471.41
  213.63        2972.25           1528        6708.00     29241.46
  213.65        2972.50           1531        4153.00     18088.93
  213.68        2972.75           1535        1597.00      6939.01
  213.71        2973.00           1538         629.00      2718.17
  213.73        2973.25           1541         198.00       839.17
  213.76        2973.50           1545          52.00       202.70
  213.79        2973.75           1548          35.00       128.60
  213.82        2974.00           1551          28.00        98.08
  213.84        2974.25           1555          29.00       102.44
  213.87        2974.50           1558          26.00        89.36
  213.90        2974.75           1561          25.00        85.00
  213.93        2975.00           1565          24.00        80.65
  213.95        2975.25           1568          21.00        67.57
  213.98        2975.50           1571          23.00        76.29
  214.01        2975.75           1575          20.00        63.21
  214.03        2976.00           1578          22.00        71.93
  214.06        2976.25           1581          24.00        80.65
  214.09        2976.50           1585          19.00        58.85
  214.12        2976.75           1588          23.00        76.29
  214.14        2977.00           1591          25.00        85.00
  214.17        2977.25           1595          18.00        54.49
  214.20        2977.50           1598          17.00        50.13
  214.22        2977.75           1601          22.00        71.93
  214.25        2978.00           1605          20.00        63.21
  214.28        2978.25           1608          21.00        67.57
  214.31        2978.50           1611          21.00        67.57
  214.33        2978.75           1615          24.00        80.65
  214.36        2979.00           1618          20.00        63.21
  214.39        2979.25           1621          18.00        54.49
  214.41        2979.50           1625          25.00        85.00
  214.44        2979.75           1628          21.00        67.57
  214.47        2980.00           1631          19.00        58.85
  214.50        2980.25           1635          25.00        85.00
  214.52        2980.50           1638          21.00        67.57
  214.55        2980.75           1641          20.00        63.21
  214.58        2981.00           1645          22.00        71.93
  214.61        2981.25           1648          17.00        50.13
  214.63        2981.50           1651          21.00        67.57
  214.66        2981.75           1655          18.00        54.49
  214.69        2982.00           1658          23.00        76.29
  214.71        2982.25           1661          18.00        54.49
  214.74        2982.50           1665          24.00        80.65
  214.77        2982.75           1668          22.00        71.93
  214.80        2983.00           1671          18.00        54.49
  214.82        2983.25           1675          16.00        45.77
  214.85        2983.50           1678          21.00        67.57
  214.88        2983.75           1681          20.00        63.21
  214.90        2984.00           1685          18.00        54.49
HS scan finished at 03:35:05
end
