************************************************************
  HS Scan of (1) Internal mercury lamp
************************************************************
Integration time is 0.2294 seconds per sample
dh190818Tamanrasset 22.79-5.529 4.974364pr865
************************************************************
Dead Time -------------------------  2.8E-08 
Number of Cycles Used -------------  4 
Starting Wavelength (Angstroms) ---  2950 
Final Wavelength (Angstoms) -------  2984 
Wavelength Increment (Angstroms) --  .25 
Filter Wheel #1 Position ---------- (1) Ground quartz diffuser (ND=2.32)
Filter Wheel #2 Position ---------- (1) Neutral Density 0.494



************************************************************
HS scan start time = 03:27:05
Dark Count =  4.8 


Time (GMT)  Wavelength (Ang)  Step Number  Raw Counts  Counts/Second

  207.43        2950.00           1233          19.00        61.90
  207.50        2950.25           1236          19.00        61.90
  207.53        2950.50           1239          16.00        48.82
  207.55        2950.75           1242          18.00        57.54
  207.58        2951.00           1246          20.00        66.26
  207.61        2951.25           1249          20.00        66.26
  207.63        2951.50           1252          22.00        74.98
  207.66        2951.75           1256          17.00        53.18
  207.69        2952.00           1259          16.00        48.82
  207.71        2952.25           1262          18.00        57.54
  207.74        2952.50           1266          22.00        74.98
  207.77        2952.75           1269          16.00        48.82
  207.80        2953.00           1272          24.00        83.70
  207.82        2953.25           1276          19.00        61.90
  207.85        2953.50           1279          23.00        79.34
  207.88        2953.75           1282          20.00        66.26
  207.91        2954.00           1286          20.00        66.26
  207.93        2954.25           1289          18.00        57.54
  207.96        2954.50           1292          22.00        74.98
  207.99        2954.75           1295          19.00        61.90
  208.01        2955.00           1299          16.00        48.82
  208.04        2955.25           1302          19.00        61.90
  208.07        2955.50           1305          18.00        57.54
  208.09        2955.75           1309          23.00        79.34
  208.12        2956.00           1312          24.00        83.70
  208.15        2956.25           1315          22.00        74.98
  208.18        2956.50           1319          20.00        66.26
  208.20        2956.75           1322          22.00        74.98
  208.23        2957.00           1325          16.00        48.82
  208.26        2957.25           1329          23.00        79.34
  208.28        2957.50           1332          24.00        83.70
  208.31        2957.75           1335          21.00        70.62
  208.34        2958.00           1339          19.00        61.90
  208.37        2958.25           1342          18.00        57.54
  208.39        2958.50           1345          18.00        57.54
  208.42        2958.75           1348          17.00        53.18
  208.45        2959.00           1352          20.00        66.26
  208.47        2959.25           1355          21.00        70.62
  208.50        2959.50           1358          24.00        83.70
  208.53        2959.75           1362          24.00        83.70
  208.56        2960.00           1365          28.00       101.13
  208.58        2960.25           1368          33.00       122.93
  208.61        2960.50           1372          31.00       114.21
  208.64        2960.75           1375          38.00       144.73
  208.66        2961.00           1378         112.00       467.31
  208.69        2961.25           1382         523.00      2259.08
  208.72        2961.50           1385        1303.00      5660.01
  208.75        2961.75           1388        2667.00     11608.83
  208.77        2962.00           1392        5598.00     24398.53
  208.80        2962.25           1395        8252.00     35987.42
  208.83        2962.50           1398       11110.00     48475.52
  208.86        2962.75           1402       14953.00     65281.38
  208.88        2963.00           1405       17780.00     77654.27
  208.91        2963.25           1408       20959.00     91578.02
  208.94        2963.50           1412       24840.00    108591.20
  208.96        2963.75           1415       27556.00    120507.10
  208.99        2964.00           1418       30727.00    134429.20
  209.02        2964.25           1422       34548.00    151219.60
  209.05        2964.50           1425       37558.00    164457.40
  209.07        2964.75           1428       40826.00    178841.00
  209.10        2965.00           1431       43725.00    191610.30
  209.13        2965.25           1435       47649.00    208908.90
  209.16        2965.50           1438       51106.00    224162.80
  209.18        2965.75           1441       53749.00    235833.80
  209.21        2966.00           1445       57185.00    251017.90
  209.24        2966.25           1448       60097.00    263896.60
  209.27        2966.50           1451       62336.00    273805.20
  209.29        2966.75           1455       64232.00    282200.10
  209.32        2967.00           1458       65112.00    286097.90
  209.35        2967.25           1461       65221.00    286580.70
  209.37        2967.50           1465       65240.00    286664.90
  209.40        2967.75           1468       64734.00    284423.50
  209.43        2968.00           1471       63739.00    280016.90
  209.46        2968.25           1475       61302.00    269228.60
  209.48        2968.50           1478       58765.00    258004.50
  209.51        2968.75           1481       55762.00    244727.90
  209.54        2969.00           1485       51792.00    227191.30
  209.57        2969.25           1488       48464.00    212503.90
  209.59        2969.50           1491       45298.00    198542.70
  209.62        2969.75           1495       40982.00    179527.90
  209.65        2970.00           1498       37924.00    166067.70
  209.68        2970.25           1501       34874.00    152652.90
  209.70        2970.50           1505       30932.00    135329.60
  209.73        2970.75           1508       27593.00    120669.50
  209.76        2971.00           1511       24497.00    107087.00
  209.78        2971.25           1515       20617.00     90079.58
  209.81        2971.50           1518       17656.00     77111.40
  209.84        2971.75           1521       14596.00     63719.52
  209.87        2972.00           1525       10635.00     46399.39
  209.89        2972.25           1528        7600.00     33139.72
  209.92        2972.50           1531        4983.00     21714.16
  209.95        2972.75           1535        2234.00      9720.17
  209.98        2973.00           1538         849.00      3680.41
  210.00        2973.25           1541         255.00      1090.70
  210.03        2973.50           1545          52.00       205.76
  210.06        2973.75           1548          39.00       149.09
  210.09        2974.00           1551          34.00       127.29
  210.11        2974.25           1555          28.00       101.13
  210.14        2974.50           1558          25.00        88.06
  210.17        2974.75           1561          32.00       118.57
  210.19        2975.00           1565          28.00       101.13
  210.22        2975.25           1568          30.00       109.85
  210.25        2975.50           1571          25.00        88.06
  210.28        2975.75           1575          20.00        66.26
  210.30        2976.00           1578          22.00        74.98
  210.33        2976.25           1581          20.00        66.26
  210.36        2976.50           1585          21.00        70.62
  210.38        2976.75           1588          22.00        74.98
  210.41        2977.00           1591          21.00        70.62
  210.44        2977.25           1595          20.00        66.26
  210.47        2977.50           1598          17.00        53.18
  210.49        2977.75           1601          25.00        88.06
  210.52        2978.00           1605          22.00        74.98
  210.55        2978.25           1608          28.00       101.13
  210.57        2978.50           1611          24.00        83.70
  210.60        2978.75           1615          25.00        88.06
  210.63        2979.00           1618          18.00        57.54
  210.66        2979.25           1621          23.00        79.34
  210.68        2979.50           1625          16.00        48.82
  210.71        2979.75           1628          21.00        70.62
  210.74        2980.00           1631          24.00        83.70
  210.77        2980.25           1635          23.00        79.34
  210.79        2980.50           1638          21.00        70.62
  210.82        2980.75           1641          18.00        57.54
  210.85        2981.00           1645          21.00        70.62
  210.87        2981.25           1648          23.00        79.34
  210.90        2981.50           1651          18.00        57.54
  210.93        2981.75           1655          21.00        70.62
  210.95        2982.00           1658          24.00        83.70
  210.98        2982.25           1661          19.00        61.90
  211.01        2982.50           1665          24.00        83.70
  211.04        2982.75           1668          19.00        61.90
  211.06        2983.00           1671          20.00        66.26
  211.09        2983.25           1675          24.00        83.70
  211.12        2983.50           1678          22.00        74.98
  211.15        2983.75           1681          17.00        53.18
  211.17        2984.00           1685          20.00        66.26
HS scan finished at 03:31:22
end
