************************************************************
  HS Scan of (1) Internal mercury lamp
************************************************************
Integration time is 0.2294 seconds per sample
dh230817Tamanrasset 22.79-5.529 3.246036pr865
************************************************************
Dead Time -------------------------  2.8E-08 
Number of Cycles Used -------------  4 
Starting Wavelength (Angstroms) ---  2950 
Final Wavelength (Angstoms) -------  2984 
Wavelength Increment (Angstroms) --  .25 
Filter Wheel #1 Position ---------- (1) Ground quartz diffuser (ND=2.32)
Filter Wheel #2 Position ---------- (1) Neutral Density 0.494



************************************************************
HS scan start time = 03:29:17
Dark Count =  4.9 


Time (GMT)  Wavelength (Ang)  Step Number  Raw Counts  Counts/Second

  209.64        2950.00           1233          20.00        65.82
  209.70        2950.25           1236          18.00        57.11
  209.73        2950.50           1239          19.00        61.46
  209.75        2950.75           1242          18.00        57.11
  209.78        2951.00           1246          19.00        61.46
  209.81        2951.25           1249          21.00        70.18
  209.84        2951.50           1252          18.00        57.11
  209.86        2951.75           1256          16.00        48.39
  209.89        2952.00           1259          18.00        57.11
  209.92        2952.25           1262          15.00        44.03
  209.94        2952.50           1266          17.00        52.75
  209.97        2952.75           1269          23.00        78.90
  210.00        2953.00           1272          18.00        57.11
  210.03        2953.25           1276          22.00        74.54
  210.05        2953.50           1279          20.00        65.82
  210.08        2953.75           1282          19.00        61.46
  210.11        2954.00           1286          15.00        44.03
  210.13        2954.25           1289          20.00        65.82
  210.16        2954.50           1292          22.00        74.54
  210.19        2954.75           1295          20.00        65.82
  210.22        2955.00           1299          15.00        44.03
  210.24        2955.25           1302          19.00        61.46
  210.27        2955.50           1305          19.00        61.46
  210.30        2955.75           1309          20.00        65.82
  210.32        2956.00           1312          21.00        70.18
  210.35        2956.25           1315          21.00        70.18
  210.38        2956.50           1319          19.00        61.46
  210.41        2956.75           1322          17.00        52.75
  210.43        2957.00           1325          20.00        65.82
  210.46        2957.25           1329          19.00        61.46
  210.49        2957.50           1332          17.00        52.75
  210.51        2957.75           1335          19.00        61.46
  210.54        2958.00           1339          19.00        61.46
  210.57        2958.25           1342          19.00        61.46
  210.60        2958.50           1345          20.00        65.82
  210.62        2958.75           1348          20.00        65.82
  210.65        2959.00           1352          17.00        52.75
  210.68        2959.25           1355          20.00        65.82
  210.70        2959.50           1358          20.00        65.82
  210.73        2959.75           1362          18.00        57.11
  210.76        2960.00           1365          25.00        87.62
  210.79        2960.25           1368          30.00       109.42
  210.81        2960.50           1372          33.00       122.49
  210.84        2960.75           1375          49.00       192.24
  210.87        2961.00           1378         182.00       772.03
  210.90        2961.25           1382         851.00      3688.70
  210.92        2961.50           1385        1863.00      8101.66
  210.95        2961.75           1388        3592.00     15643.73
  210.98        2962.00           1392        7004.00     30536.56
  211.00        2962.25           1395        9796.00     42732.44
  211.03        2962.50           1398       12549.00     54766.13
  211.06        2962.75           1402       16694.00     72899.75
  211.09        2963.00           1405       19704.00     86079.50
  211.11        2963.25           1408       22595.00     98747.38
  211.14        2963.50           1412       26379.00    115341.80
  211.17        2963.75           1415       29436.00    128759.40
  211.20        2964.00           1418       32642.00    142841.80
  211.22        2964.25           1422       36509.00    159842.40
  211.25        2964.50           1425       39428.00    172686.10
  211.28        2964.75           1428       42740.00    187270.20
  211.30        2965.00           1431       45339.00    198723.00
  211.33        2965.25           1435       49434.00    216783.10
  211.36        2965.50           1438       52546.00    230520.20
  211.39        2965.75           1441       55422.00    243225.00
  211.41        2966.00           1445       59484.00    261184.30
  211.44        2966.25           1448       61761.00    271259.50
  211.47        2966.50           1451       63771.00    280158.20
  211.50        2966.75           1455       64930.00    285291.30
  211.52        2967.00           1458       65444.00    287568.20
  211.55        2967.25           1461       65793.00    289114.40
  211.58        2967.50           1465       65272.00    286806.20
  211.61        2967.75           1468       64564.00    283670.10
  211.63        2968.00           1471       63009.00    276784.10
  211.66        2968.25           1475       60293.00    264763.30
  211.69        2968.50           1478       57267.00    251380.00
  211.71        2968.75           1481       54496.00    239133.30
  211.74        2969.00           1485       50139.00    219894.20
  211.77        2969.25           1488       47067.00    206341.70
  211.80        2969.50           1491       43867.00    192235.50
  211.82        2969.75           1495       39697.00    173870.10
  211.85        2970.00           1498       36579.00    160150.30
  211.88        2970.25           1501       33608.00    147087.10
  211.91        2970.50           1505       29066.00    127134.90
  211.93        2970.75           1508       26264.00    114837.30
  211.96        2971.00           1511       23172.00    101276.80
  211.99        2971.25           1515       19135.00     83587.29
  212.01        2971.50           1518       16058.00     70116.16
  212.04        2971.75           1521       13287.00     57993.40
  212.07        2972.00           1525        9459.00     41259.93
  212.10        2972.25           1528        6517.00     28410.13
  212.12        2972.50           1531        4072.00     17738.10
  212.15        2972.75           1535        1562.00      6789.00
  212.18        2973.00           1538         569.00      2459.19
  212.21        2973.25           1541         163.00       689.20
  212.23        2973.50           1545          43.00       166.09
  212.26        2973.75           1548          44.00       170.45
  212.29        2974.00           1551          33.00       122.49
  212.31        2974.25           1555          29.00       105.06
  212.34        2974.50           1558          29.00       105.06
  212.37        2974.75           1561          27.00        96.34
  212.40        2975.00           1565          26.00        91.98
  212.42        2975.25           1568          26.00        91.98
  212.45        2975.50           1571          27.00        96.34
  212.48        2975.75           1575          23.00        78.90
  212.50        2976.00           1578          20.00        65.82
  212.53        2976.25           1581          23.00        78.90
  212.56        2976.50           1585          22.00        74.54
  212.59        2976.75           1588          21.00        70.18
  212.61        2977.00           1591          21.00        70.18
  212.64        2977.25           1595          22.00        74.54
  212.67        2977.50           1598          25.00        87.62
  212.70        2977.75           1601          22.00        74.54
  212.72        2978.00           1605          19.00        61.46
  212.75        2978.25           1608          25.00        87.62
  212.78        2978.50           1611          24.00        83.26
  212.80        2978.75           1615          22.00        74.54
  212.83        2979.00           1618          20.00        65.82
  212.86        2979.25           1621          24.00        83.26
  212.89        2979.50           1625          21.00        70.18
  212.91        2979.75           1628          22.00        74.54
  212.94        2980.00           1631          16.00        48.39
  212.97        2980.25           1635          21.00        70.18
  212.99        2980.50           1638          20.00        65.82
  213.02        2980.75           1641          19.00        61.46
  213.05        2981.00           1645          19.00        61.46
  213.08        2981.25           1648          21.00        70.18
  213.10        2981.50           1651          20.00        65.82
  213.13        2981.75           1655          25.00        87.62
  213.16        2982.00           1658          17.00        52.75
  213.18        2982.25           1661          19.00        61.46
  213.21        2982.50           1665          19.00        61.46
  213.24        2982.75           1668          20.00        65.82
  213.27        2983.00           1671          23.00        78.90
  213.29        2983.25           1675          22.00        74.54
  213.32        2983.50           1678          18.00        57.11
  213.35        2983.75           1681          20.00        65.82
  213.37        2984.00           1685          18.00        57.11
HS scan finished at 03:33:34
end
