************************************************************
  HS Scan of (1) Internal mercury lamp
************************************************************
Integration time is 0.2294 seconds per sample
dh250818Tamanrasset 22.79-5.529 4.974364pr865
************************************************************
Dead Time -------------------------  2.8E-08 
Number of Cycles Used -------------  4 
Starting Wavelength (Angstroms) ---  2950 
Final Wavelength (Angstoms) -------  2984 
Wavelength Increment (Angstroms) --  .25 
Filter Wheel #1 Position ---------- (1) Ground quartz diffuser (ND=2.32)
Filter Wheel #2 Position ---------- (1) Neutral Density 0.494



************************************************************
HS scan start time = 03:29:20
Dark Count =  6 


Time (GMT)  Wavelength (Ang)  Step Number  Raw Counts  Counts/Second

  209.70        2950.00           1233          22.00        69.75
  209.76        2950.25           1236          15.00        39.23
  209.79        2950.50           1239          19.00        56.67
  209.82        2950.75           1242          24.00        78.47
  209.84        2951.00           1246          17.00        47.95
  209.87        2951.25           1249          25.00        82.82
  209.90        2951.50           1252          17.00        47.95
  209.92        2951.75           1256          18.00        52.31
  209.95        2952.00           1259          19.00        56.67
  209.98        2952.25           1262          25.00        82.82
  210.01        2952.50           1266          19.00        56.67
  210.03        2952.75           1269          18.00        52.31
  210.06        2953.00           1272          17.00        47.95
  210.09        2953.25           1276          17.00        47.95
  210.11        2953.50           1279          23.00        74.11
  210.14        2953.75           1282          22.00        69.75
  210.17        2954.00           1286          19.00        56.67
  210.20        2954.25           1289          21.00        65.39
  210.22        2954.50           1292          20.00        61.03
  210.25        2954.75           1295          23.00        74.11
  210.28        2955.00           1299          19.00        56.67
  210.31        2955.25           1302          17.00        47.95
  210.33        2955.50           1305          22.00        69.75
  210.36        2955.75           1309          20.00        61.03
  210.39        2956.00           1312          19.00        56.67
  210.41        2956.25           1315          18.00        52.31
  210.44        2956.50           1319          20.00        61.03
  210.47        2956.75           1322          20.00        61.03
  210.50        2957.00           1325          22.00        69.75
  210.52        2957.25           1329          20.00        61.03
  210.55        2957.50           1332          19.00        56.67
  210.58        2957.75           1335          23.00        74.11
  210.60        2958.00           1339          17.00        47.95
  210.63        2958.25           1342          20.00        61.03
  210.66        2958.50           1345          22.00        69.75
  210.69        2958.75           1348          19.00        56.67
  210.71        2959.00           1352          24.00        78.47
  210.74        2959.25           1355          21.00        65.39
  210.77        2959.50           1358          18.00        52.31
  210.79        2959.75           1362          27.00        91.54
  210.82        2960.00           1365          26.00        87.18
  210.85        2960.25           1368          34.00       122.06
  210.88        2960.50           1372          45.00       170.01
  210.90        2960.75           1375          61.00       239.76
  210.93        2961.00           1378         199.00       841.35
  210.96        2961.25           1382         909.00      3936.79
  210.99        2961.50           1385        2058.00      8947.32
  211.01        2961.75           1388        3774.00     16433.02
  211.04        2962.00           1392        7066.00     30802.49
  211.07        2962.25           1395       10035.00     43772.02
  211.09        2962.50           1398       12840.00     56033.80
  211.12        2962.75           1402       16787.00     73302.00
  211.15        2963.00           1405       19814.00     86556.52
  211.18        2963.25           1408       22863.00     99917.34
  211.20        2963.50           1412       26677.00    116644.50
  211.23        2963.75           1415       29545.00    129233.10
  211.26        2964.00           1418       32446.00    141975.70
  211.29        2964.25           1422       36533.00    159943.10
  211.31        2964.50           1425       39286.00    172056.20
  211.34        2964.75           1428       42452.00    185996.70
  211.37        2965.00           1431       45472.00    199304.40
  211.40        2965.25           1435       49706.00    217978.50
  211.42        2965.50           1438       52925.00    232189.00
  211.45        2965.75           1441       55816.00    244961.30
  211.48        2966.00           1445       59781.00    262493.30
  211.51        2966.25           1448       61876.00    271763.70
  211.53        2966.50           1451       63908.00    280760.00
  211.56        2966.75           1455       65171.00    286353.90
  211.59        2967.00           1458       65537.00    287975.30
  211.61        2967.25           1461       65668.00    288555.70
  211.64        2967.50           1465       65111.00    286088.20
  211.67        2967.75           1468       64243.00    282243.50
  211.70        2968.00           1471       62887.00    276239.10
  211.72        2968.25           1475       60062.00    263736.40
  211.75        2968.50           1478       57401.00    251967.60
  211.78        2968.75           1481       54249.00    238037.20
  211.81        2969.00           1485       49974.00    219161.20
  211.83        2969.25           1488       46888.00    205547.50
  211.86        2969.50           1491       43607.00    191085.10
  211.89        2969.75           1495       39395.00    172536.00
  211.92        2970.00           1498       36256.00    158724.80
  211.94        2970.25           1501       33461.00    146436.20
  211.97        2970.50           1505       29120.00    127367.10
  212.00        2970.75           1508       25944.00    113428.60
  212.02        2971.00           1511       23003.00    100531.10
  212.05        2971.25           1515       19196.00     83849.65
  212.08        2971.50           1518       15989.00     69809.38
  212.11        2971.75           1521       13033.00     56877.78
  212.13        2972.00           1525        9232.00     40263.33
  212.16        2972.25           1528        6319.00     27540.85
  212.19        2972.50           1531        3873.00     16864.98
  212.22        2972.75           1535        1465.00      6361.20
  212.24        2973.00           1538         501.00      2157.93
  212.27        2973.25           1541         126.00       523.11
  212.30        2973.50           1545          50.00       191.81
  212.33        2973.75           1548          41.00       152.57
  212.35        2974.00           1551          35.00       126.42
  212.38        2974.25           1555          30.00       104.62
  212.41        2974.50           1558          29.00       100.26
  212.43        2974.75           1561          21.00        65.39
  212.46        2975.00           1565          20.00        61.03
  212.49        2975.25           1568          23.00        74.11
  212.52        2975.50           1571          27.00        91.54
  212.54        2975.75           1575          24.00        78.47
  212.57        2976.00           1578          26.00        87.18
  212.60        2976.25           1581          18.00        52.31
  212.62        2976.50           1585          22.00        69.75
  212.65        2976.75           1588          23.00        74.11
  212.68        2977.00           1591          22.00        69.75
  212.71        2977.25           1595          25.00        82.82
  212.73        2977.50           1598          23.00        74.11
  212.76        2977.75           1601          18.00        52.31
  212.79        2978.00           1605          18.00        52.31
  212.82        2978.25           1608          22.00        69.75
  212.84        2978.50           1611          22.00        69.75
  212.87        2978.75           1615          20.00        61.03
  212.90        2979.00           1618          20.00        61.03
  212.92        2979.25           1621          23.00        74.11
  212.95        2979.50           1625          19.00        56.67
  212.98        2979.75           1628          17.00        47.95
  213.01        2980.00           1631          19.00        56.67
  213.03        2980.25           1635          21.00        65.39
  213.06        2980.50           1638          26.00        87.18
  213.09        2980.75           1641          18.00        52.31
  213.11        2981.00           1645          24.00        78.47
  213.14        2981.25           1648          21.00        65.39
  213.17        2981.50           1651          19.00        56.67
  213.20        2981.75           1655          20.00        61.03
  213.22        2982.00           1658          18.00        52.31
  213.25        2982.25           1661          21.00        65.39
  213.28        2982.50           1665          22.00        69.75
  213.30        2982.75           1668          18.00        52.31
  213.33        2983.00           1671          20.00        61.03
  213.36        2983.25           1675          19.00        56.67
  213.39        2983.50           1678          22.00        69.75
  213.41        2983.75           1681          24.00        78.47
  213.44        2984.00           1685          18.00        52.31
HS scan finished at 03:33:38
end
