************************************************************
  HS Scan of (1) Internal mercury lamp
************************************************************
Integration time is 0.2294 seconds per sample
dh260817Tamanrasset 22.79-5.529 3.149168pr865
************************************************************
Dead Time -------------------------  2.8E-08 
Number of Cycles Used -------------  4 
Starting Wavelength (Angstroms) ---  2950 
Final Wavelength (Angstoms) -------  2984 
Wavelength Increment (Angstroms) --  .25 
Filter Wheel #1 Position ---------- (1) Ground quartz diffuser (ND=2.32)
Filter Wheel #2 Position ---------- (1) Neutral Density 0.494



************************************************************
HS scan start time = 03:30:20
Dark Count =  5 


Time (GMT)  Wavelength (Ang)  Step Number  Raw Counts  Counts/Second

  210.70        2950.00           1233          24.00        82.82
  210.76        2950.25           1236          23.00        78.47
  210.79        2950.50           1239          21.00        69.75
  210.81        2950.75           1242          17.00        52.31
  210.84        2951.00           1246          16.00        47.95
  210.87        2951.25           1249          18.00        56.67
  210.89        2951.50           1252          17.00        52.31
  210.92        2951.75           1256          20.00        65.39
  210.95        2952.00           1259          24.00        82.82
  210.98        2952.25           1262          18.00        56.67
  211.00        2952.50           1266          21.00        69.75
  211.03        2952.75           1269          20.00        65.39
  211.06        2953.00           1272          20.00        65.39
  211.08        2953.25           1276          23.00        78.47
  211.11        2953.50           1279          21.00        69.75
  211.14        2953.75           1282          15.00        43.59
  211.17        2954.00           1286          20.00        65.39
  211.19        2954.25           1289          22.00        74.11
  211.22        2954.50           1292          18.00        56.67
  211.25        2954.75           1295          19.00        61.03
  211.27        2955.00           1299          19.00        61.03
  211.30        2955.25           1302          22.00        74.11
  211.33        2955.50           1305          25.00        87.18
  211.36        2955.75           1309          17.00        52.31
  211.38        2956.00           1312          19.00        61.03
  211.41        2956.25           1315          18.00        56.67
  211.44        2956.50           1319          17.00        52.31
  211.46        2956.75           1322          22.00        74.11
  211.49        2957.00           1325          22.00        74.11
  211.52        2957.25           1329          20.00        65.39
  211.55        2957.50           1332          17.00        52.31
  211.57        2957.75           1335          18.00        56.67
  211.60        2958.00           1339          21.00        69.75
  211.63        2958.25           1342          20.00        65.39
  211.65        2958.50           1345          20.00        65.39
  211.68        2958.75           1348          20.00        65.39
  211.71        2959.00           1352          21.00        69.75
  211.74        2959.25           1355          20.00        65.39
  211.76        2959.50           1358          20.00        65.39
  211.79        2959.75           1362          24.00        82.82
  211.82        2960.00           1365          26.00        91.54
  211.84        2960.25           1368          33.00       122.06
  211.87        2960.50           1372          31.00       113.34
  211.90        2960.75           1375          46.00       178.73
  211.93        2961.00           1378         158.00       666.97
  211.95        2961.25           1382         696.00      3012.46
  211.98        2961.50           1385        1559.00      6775.48
  212.01        2961.75           1388        3117.00     13570.98
  212.04        2962.00           1392        6239.00     27195.94
  212.06        2962.25           1395        8889.00     38769.18
  212.09        2962.50           1398       11929.00     52054.90
  212.12        2962.75           1402       15594.00     68085.21
  212.14        2963.00           1405       18492.00     80770.96
  212.17        2963.25           1408       21420.00     93597.19
  212.20        2963.50           1412       25056.00    109537.70
  212.23        2963.75           1415       27888.00    121963.30
  212.25        2964.00           1418       30912.00    135240.90
  212.28        2964.25           1422       34547.00    151214.30
  212.31        2964.50           1425       37617.00    164716.10
  212.34        2964.75           1428       40352.00    176753.20
  212.36        2965.00           1431       43261.00    189565.00
  212.39        2965.25           1435       47285.00    207302.70
  212.42        2965.50           1438       50291.00    220564.60
  212.44        2965.75           1441       53111.00    233014.90
  212.47        2966.00           1445       56841.00    249496.30
  212.50        2966.25           1448       59080.00    259396.80
  212.53        2966.50           1451       61295.00    269196.70
  212.55        2966.75           1455       62509.00    274570.10
  212.58        2967.00           1458       62956.00    276549.00
  212.61        2967.25           1461       63164.00    277470.00
  212.64        2967.50           1465       63012.00    276797.00
  212.66        2967.75           1468       62245.00    273401.50
  212.69        2968.00           1471       60971.00    267762.90
  212.72        2968.25           1475       58425.00    256500.00
  212.75        2968.50           1478       55768.00    244753.50
  212.77        2968.75           1481       52876.00    231977.00
  212.80        2969.00           1485       48990.00    214823.60
  212.83        2969.25           1488       45863.00    201032.50
  212.85        2969.50           1491       42632.00    186794.00
  212.88        2969.75           1495       38851.00    170146.10
  212.91        2970.00           1498       35658.00    156099.30
  212.94        2970.25           1501       32560.00    142481.00
  212.96        2970.50           1505       28530.00    124781.30
  212.99        2970.75           1508       25447.00    111252.70
  213.02        2971.00           1511       22392.00     97857.12
  213.05        2971.25           1515       18653.00     81476.00
  213.07        2971.50           1518       15866.00     69275.49
  213.10        2971.75           1521       12830.00     55994.44
  213.13        2972.00           1525        9064.00     39533.72
  213.16        2972.25           1528        6347.00     27667.46
  213.18        2972.50           1531        3946.00     17187.87
  213.21        2972.75           1535        1446.00      6282.71
  213.24        2973.00           1538         525.00      2266.93
  213.26        2973.25           1541         161.00       680.05
  213.29        2973.50           1545          47.00       183.09
  213.32        2973.75           1548          39.00       148.21
  213.35        2974.00           1551          28.00       100.26
  213.37        2974.25           1555          28.00       100.26
  213.40        2974.50           1558          28.00       100.26
  213.43        2974.75           1561          23.00        78.47
  213.45        2975.00           1565          24.00        82.82
  213.48        2975.25           1568          23.00        78.47
  213.51        2975.50           1571          22.00        74.11
  213.54        2975.75           1575          24.00        82.82
  213.56        2976.00           1578          28.00       100.26
  213.59        2976.25           1581          26.00        91.54
  213.62        2976.50           1585          21.00        69.75
  213.64        2976.75           1588          21.00        69.75
  213.67        2977.00           1591          24.00        82.82
  213.70        2977.25           1595          25.00        87.18
  213.73        2977.50           1598          22.00        74.11
  213.75        2977.75           1601          23.00        78.47
  213.78        2978.00           1605          19.00        61.03
  213.81        2978.25           1608          22.00        74.11
  213.83        2978.50           1611          24.00        82.82
  213.86        2978.75           1615          22.00        74.11
  213.89        2979.00           1618          27.00        95.90
  213.92        2979.25           1621          18.00        56.67
  213.94        2979.50           1625          19.00        61.03
  213.97        2979.75           1628          16.00        47.95
  214.00        2980.00           1631          19.00        61.03
  214.02        2980.25           1635          22.00        74.11
  214.05        2980.50           1638          21.00        69.75
  214.08        2980.75           1641          20.00        65.39
  214.11        2981.00           1645          21.00        69.75
  214.13        2981.25           1648          21.00        69.75
  214.16        2981.50           1651          17.00        52.31
  214.19        2981.75           1655          14.00        39.23
  214.21        2982.00           1658          17.00        52.31
  214.24        2982.25           1661          21.00        69.75
  214.27        2982.50           1665          18.00        56.67
  214.30        2982.75           1668          18.00        56.67
  214.32        2983.00           1671          23.00        78.47
  214.35        2983.25           1675          20.00        65.39
  214.38        2983.50           1678          19.00        61.03
  214.40        2983.75           1681          21.00        69.75
  214.43        2984.00           1685          20.00        65.39
HS scan finished at 03:34:37
end
