************************************************************
  HS Scan of (1) Internal mercury lamp
************************************************************
Integration time is 0.2294 seconds per sample
dh220817Tamanrasset 22.79-5.529 3.154266pr865
************************************************************
Dead Time -------------------------  2.8E-08 
Number of Cycles Used -------------  4 
Starting Wavelength (Angstroms) ---  2950 
Final Wavelength (Angstoms) -------  2984 
Wavelength Increment (Angstroms) --  .25 
Filter Wheel #1 Position ---------- (1) Ground quartz diffuser (ND=2.32)
Filter Wheel #2 Position ---------- (1) Neutral Density 0.494



************************************************************
HS scan start time = 03:29:19
Dark Count =  5.3 


Time (GMT)  Wavelength (Ang)  Step Number  Raw Counts  Counts/Second

  209.68        2950.00           1233          15.00        42.28
  209.74        2950.25           1236          21.00        68.44
  209.77        2950.50           1239          22.00        72.80
  209.79        2950.75           1242          22.00        72.80
  209.82        2951.00           1246          17.00        51.00
  209.85        2951.25           1249          20.00        64.08
  209.88        2951.50           1252          18.00        55.36
  209.90        2951.75           1256          19.00        59.72
  209.93        2952.00           1259          19.00        59.72
  209.96        2952.25           1262          16.00        46.64
  209.98        2952.50           1266          23.00        77.16
  210.01        2952.75           1269          22.00        72.80
  210.04        2953.00           1272          17.00        51.00
  210.07        2953.25           1276          18.00        55.36
  210.09        2953.50           1279          22.00        72.80
  210.12        2953.75           1282          20.00        64.08
  210.15        2954.00           1286          21.00        68.44
  210.17        2954.25           1289          19.00        59.72
  210.20        2954.50           1292          19.00        59.72
  210.23        2954.75           1295          20.00        64.08
  210.26        2955.00           1299          18.00        55.36
  210.28        2955.25           1302          21.00        68.44
  210.31        2955.50           1305          16.00        46.64
  210.34        2955.75           1309          19.00        59.72
  210.37        2956.00           1312          18.00        55.36
  210.39        2956.25           1315          19.00        59.72
  210.42        2956.50           1319          22.00        72.80
  210.45        2956.75           1322          17.00        51.00
  210.47        2957.00           1325          19.00        59.72
  210.50        2957.25           1329          17.00        51.00
  210.53        2957.50           1332          18.00        55.36
  210.56        2957.75           1335          19.00        59.72
  210.58        2958.00           1339          19.00        59.72
  210.61        2958.25           1342          19.00        59.72
  210.64        2958.50           1345          22.00        72.80
  210.66        2958.75           1348          23.00        77.16
  210.69        2959.00           1352          18.00        55.36
  210.72        2959.25           1355          22.00        72.80
  210.75        2959.50           1358          20.00        64.08
  210.77        2959.75           1362          23.00        77.16
  210.80        2960.00           1365          25.00        85.88
  210.83        2960.25           1368          24.00        81.52
  210.85        2960.50           1372          32.00       116.39
  210.88        2960.75           1375          41.00       155.62
  210.91        2961.00           1378         156.00       656.94
  210.94        2961.25           1382         679.00      2937.03
  210.96        2961.50           1385        1546.00      6717.48
  210.99        2961.75           1388        3112.00     13547.86
  211.02        2962.00           1392        6159.00     26845.37
  211.05        2962.25           1395        8873.00     38697.97
  211.07        2962.50           1398       11841.00     51668.86
  211.10        2962.75           1402       15585.00     68044.53
  211.13        2963.00           1405       18565.00     81089.31
  211.16        2963.25           1408       21571.00     94257.60
  211.18        2963.50           1412       24926.00    108966.20
  211.21        2963.75           1415       27884.00    121944.40
  211.24        2964.00           1418       30850.00    134967.30
  211.26        2964.25           1422       34506.00    151032.70
  211.29        2964.50           1425       37473.00    164081.20
  211.32        2964.75           1428       40410.00    177007.20
  211.35        2965.00           1431       43342.00    189920.50
  211.37        2965.25           1435       47159.00    206745.70
  211.40        2965.50           1438       50317.00    220678.00
  211.43        2965.75           1441       53348.00    234060.40
  211.46        2966.00           1445       56984.00    250127.10
  211.48        2966.25           1448       59040.00    259218.60
  211.51        2966.50           1451       61148.00    268544.80
  211.54        2966.75           1455       62221.00    273293.90
  211.57        2967.00           1458       62648.00    275184.10
  211.59        2967.25           1461       63019.00    276826.60
  211.62        2967.50           1465       62335.00    273798.50
  211.65        2967.75           1468       61805.00    271452.50
  211.68        2968.00           1471       60522.00    265774.80
  211.70        2968.25           1475       57610.00    252894.70
  211.73        2968.50           1478       55106.00    241826.80
  211.76        2968.75           1481       52091.00    228509.30
  211.78        2969.00           1485       48185.00    211271.00
  211.81        2969.25           1488       45255.00    198351.00
  211.84        2969.50           1491       42144.00    184643.10
  211.87        2969.75           1495       38148.00    167051.10
  211.89        2970.00           1498       35316.00    154594.10
  211.92        2970.25           1501       32179.00    140805.60
  211.95        2970.50           1505       28317.00    123845.00
  211.98        2970.75           1508       25345.00    110804.00
  212.00        2971.00           1511       22402.00     97899.64
  212.03        2971.25           1515       18631.00     81378.33
  212.06        2971.50           1518       15780.00     68897.82
  212.08        2971.75           1521       13055.00     56977.06
  212.11        2972.00           1525        9324.00     40668.35
  212.14        2972.25           1528        6467.00     28190.07
  212.17        2972.50           1531        3995.00     17400.37
  212.19        2972.75           1535        1622.00      7048.91
  212.22        2973.00           1538         585.00      2527.21
  212.25        2973.25           1541         184.00       779.01
  212.28        2973.50           1545          56.00       221.01
  212.30        2973.75           1548          44.00       168.70
  212.33        2974.00           1551          31.00       112.03
  212.36        2974.25           1555          30.00       107.67
  212.38        2974.50           1558          31.00       112.03
  212.41        2974.75           1561          27.00        94.59
  212.44        2975.00           1565          18.00        55.36
  212.47        2975.25           1568          29.00       103.31
  212.49        2975.50           1571          24.00        81.52
  212.52        2975.75           1575          26.00        90.24
  212.55        2976.00           1578          21.00        68.44
  212.57        2976.25           1581          24.00        81.52
  212.60        2976.50           1585          19.00        59.72
  212.63        2976.75           1588          22.00        72.80
  212.66        2977.00           1591          23.00        77.16
  212.68        2977.25           1595          22.00        72.80
  212.71        2977.50           1598          21.00        68.44
  212.74        2977.75           1601          22.00        72.80
  212.76        2978.00           1605          23.00        77.16
  212.79        2978.25           1608          22.00        72.80
  212.82        2978.50           1611          24.00        81.52
  212.85        2978.75           1615          25.00        85.88
  212.87        2979.00           1618          20.00        64.08
  212.90        2979.25           1621          19.00        59.72
  212.93        2979.50           1625          24.00        81.52
  212.95        2979.75           1628          21.00        68.44
  212.98        2980.00           1631          21.00        68.44
  213.01        2980.25           1635          16.00        46.64
  213.04        2980.50           1638          23.00        77.16
  213.06        2980.75           1641          20.00        64.08
  213.09        2981.00           1645          19.00        59.72
  213.12        2981.25           1648          24.00        81.52
  213.14        2981.50           1651          18.00        55.36
  213.17        2981.75           1655          17.00        51.00
  213.20        2982.00           1658          21.00        68.44
  213.23        2982.25           1661          18.00        55.36
  213.25        2982.50           1665          20.00        64.08
  213.28        2982.75           1668          22.00        72.80
  213.31        2983.00           1671          20.00        64.08
  213.33        2983.25           1675          18.00        55.36
  213.36        2983.50           1678          21.00        68.44
  213.39        2983.75           1681          17.00        51.00
  213.42        2984.00           1685          21.00        68.44
HS scan finished at 03:33:36
end
