************************************************************
  HS Scan of (1) Internal mercury lamp
************************************************************
Integration time is 0.2294 seconds per sample
dh210817Tamanrasset 22.79-5.529 3.317413pr865
************************************************************
Dead Time -------------------------  2.8E-08 
Number of Cycles Used -------------  4 
Starting Wavelength (Angstroms) ---  2950 
Final Wavelength (Angstoms) -------  2984 
Wavelength Increment (Angstroms) --  .25 
Filter Wheel #1 Position ---------- (1) Ground quartz diffuser (ND=2.32)
Filter Wheel #2 Position ---------- (1) Neutral Density 0.494



************************************************************
HS scan start time = 03:28:18
Dark Count =  5.6 


Time (GMT)  Wavelength (Ang)  Step Number  Raw Counts  Counts/Second

  208.66        2950.00           1233          23.00        75.85
  208.73        2950.25           1236          26.00        88.93
  208.76        2950.50           1239          22.00        71.49
  208.78        2950.75           1242          23.00        75.85
  208.81        2951.00           1246          22.00        71.49
  208.84        2951.25           1249          21.00        67.13
  208.86        2951.50           1252          21.00        67.13
  208.89        2951.75           1256          18.00        54.05
  208.92        2952.00           1259          19.00        58.41
  208.95        2952.25           1262          17.00        49.69
  208.97        2952.50           1266          17.00        49.69
  209.00        2952.75           1269          15.00        40.98
  209.03        2953.00           1272          16.00        45.34
  209.05        2953.25           1276          23.00        75.85
  209.08        2953.50           1279          18.00        54.05
  209.11        2953.75           1282          17.00        49.69
  209.14        2954.00           1286          19.00        58.41
  209.16        2954.25           1289          20.00        62.77
  209.19        2954.50           1292          18.00        54.05
  209.22        2954.75           1295          23.00        75.85
  209.24        2955.00           1299          22.00        71.49
  209.27        2955.25           1302          19.00        58.41
  209.30        2955.50           1305          18.00        54.05
  209.33        2955.75           1309          21.00        67.13
  209.35        2956.00           1312          20.00        62.77
  209.38        2956.25           1315          25.00        84.57
  209.41        2956.50           1319          21.00        67.13
  209.43        2956.75           1322          16.00        45.34
  209.46        2957.00           1325          16.00        45.34
  209.49        2957.25           1329          20.00        62.77
  209.52        2957.50           1332          19.00        58.41
  209.54        2957.75           1335          19.00        58.41
  209.57        2958.00           1339          23.00        75.85
  209.60        2958.25           1342          21.00        67.13
  209.62        2958.50           1345          21.00        67.13
  209.65        2958.75           1348          23.00        75.85
  209.68        2959.00           1352          20.00        62.77
  209.71        2959.25           1355          19.00        58.41
  209.73        2959.50           1358          25.00        84.57
  209.76        2959.75           1362          24.00        80.21
  209.79        2960.00           1365          21.00        67.13
  209.82        2960.25           1368          28.00        97.65
  209.84        2960.50           1372          38.00       141.24
  209.87        2960.75           1375          55.00       215.35
  209.90        2961.00           1378         200.00       847.45
  209.92        2961.25           1382         857.00      3711.81
  209.95        2961.50           1385        1933.00      8403.89
  209.98        2961.75           1388        3797.00     16535.12
  210.01        2962.00           1392        7019.00     30599.01
  210.03        2962.25           1395       10039.00     43791.24
  210.06        2962.50           1398       13135.00     57325.60
  210.09        2962.75           1402       17109.00     74713.25
  210.12        2963.00           1405       20025.00     87482.56
  210.14        2963.25           1408       23292.00    101799.80
  210.17        2963.50           1412       27011.00    118111.90
  210.20        2963.75           1415       30034.00    131382.20
  210.22        2964.00           1418       33152.00    145079.90
  210.25        2964.25           1422       37084.00    162368.60
  210.28        2964.50           1425       40366.00    176812.20
  210.31        2964.75           1428       43183.00    189218.70
  210.33        2965.00           1431       46548.00    204050.00
  210.36        2965.25           1435       50446.00    221246.10
  210.39        2965.50           1438       53849.00    236272.00
  210.42        2965.75           1441       56746.00    249073.60
  210.44        2966.00           1445       60812.00    267056.60
  210.47        2966.25           1448       62902.00    276307.30
  210.50        2966.50           1451       64965.00    285443.20
  210.53        2966.75           1455       66434.00    291951.40
  210.55        2967.00           1458       66744.00    293325.10
  210.58        2967.25           1461       67084.00    294832.00
  210.61        2967.50           1465       66632.00    292828.80
  210.64        2967.75           1468       65644.00    288451.10
  210.66        2968.00           1471       64460.00    283206.40
  210.69        2968.25           1475       61802.00    271438.00
  210.72        2968.50           1478       58613.00    257328.70
  210.74        2968.75           1481       55718.00    244529.90
  210.77        2969.00           1485       51209.00    224614.00
  210.80        2969.25           1488       48136.00    211053.50
  210.83        2969.50           1491       44606.00    195489.10
  210.85        2969.75           1495       40249.00    176297.10
  210.88        2970.00           1498       37037.00    162161.80
  210.91        2970.25           1501       34086.00    149185.10
  210.94        2970.50           1505       29782.00    130275.60
  210.96        2970.75           1508       26728.00    116870.10
  210.99        2971.00           1511       23611.00    103198.40
  211.02        2971.25           1515       19486.00     85121.56
  211.04        2971.50           1518       16584.00     72415.21
  211.07        2971.75           1521       13540.00     59096.84
  211.10        2972.00           1525        9624.00     41977.83
  211.13        2972.25           1528        6672.00     29083.83
  211.15        2972.50           1531        4036.00     17577.96
  211.18        2972.75           1535        1547.00      6720.53
  211.21        2973.00           1538         553.00      2386.38
  211.24        2973.25           1541         160.00       673.07
  211.26        2973.50           1545          48.00       184.83
  211.29        2973.75           1548          39.00       145.60
  211.32        2974.00           1551          44.00       167.39
  211.34        2974.25           1555          29.00       102.01
  211.37        2974.50           1558          28.00        97.65
  211.40        2974.75           1561          19.00        58.41
  211.43        2975.00           1565          27.00        93.29
  211.45        2975.25           1568          24.00        80.21
  211.48        2975.50           1571          17.00        49.69
  211.51        2975.75           1575          23.00        75.85
  211.53        2976.00           1578          24.00        80.21
  211.56        2976.25           1581          24.00        80.21
  211.59        2976.50           1585          23.00        75.85
  211.62        2976.75           1588          28.00        97.65
  211.64        2977.00           1591          19.00        58.41
  211.67        2977.25           1595          23.00        75.85
  211.70        2977.50           1598          21.00        67.13
  211.72        2977.75           1601          19.00        58.41
  211.75        2978.00           1605          26.00        88.93
  211.78        2978.25           1608          21.00        67.13
  211.81        2978.50           1611          23.00        75.85
  211.83        2978.75           1615          16.00        45.34
  211.86        2979.00           1618          24.00        80.21
  211.89        2979.25           1621          21.00        67.13
  211.92        2979.50           1625          22.00        71.49
  211.94        2979.75           1628          22.00        71.49
  211.97        2980.00           1631          22.00        71.49
  212.00        2980.25           1635          22.00        71.49
  212.02        2980.50           1638          21.00        67.13
  212.05        2980.75           1641          21.00        67.13
  212.08        2981.00           1645          24.00        80.21
  212.11        2981.25           1648          19.00        58.41
  212.13        2981.50           1651          19.00        58.41
  212.16        2981.75           1655          21.00        67.13
  212.19        2982.00           1658          19.00        58.41
  212.21        2982.25           1661          21.00        67.13
  212.24        2982.50           1665          22.00        71.49
  212.27        2982.75           1668          19.00        58.41
  212.30        2983.00           1671          17.00        49.69
  212.32        2983.25           1675          24.00        80.21
  212.35        2983.50           1678          20.00        62.77
  212.38        2983.75           1681          16.00        45.34
  212.40        2984.00           1685          16.00        45.34
HS scan finished at 03:32:36
end
