************************************************************
  HS Scan of (1) Internal mercury lamp
************************************************************
Integration time is 0.2294 seconds per sample
dh180817Tamanrasset 22.79-5.529 3.368395pr865
************************************************************
Dead Time -------------------------  2.8E-08 
Number of Cycles Used -------------  4 
Starting Wavelength (Angstroms) ---  2950 
Final Wavelength (Angstoms) -------  2984 
Wavelength Increment (Angstroms) --  .25 
Filter Wheel #1 Position ---------- (1) Ground quartz diffuser (ND=2.32)
Filter Wheel #2 Position ---------- (1) Neutral Density 0.494



************************************************************
HS scan start time = 03:27:18
Dark Count =  6 


Time (GMT)  Wavelength (Ang)  Step Number  Raw Counts  Counts/Second

  207.66        2950.00           1233          21.00        65.39
  207.72        2950.25           1236          19.00        56.67
  207.75        2950.50           1239          23.00        74.11
  207.78        2950.75           1242          16.00        43.59
  207.81        2951.00           1246          23.00        74.11
  207.83        2951.25           1249          24.00        78.47
  207.86        2951.50           1252          19.00        56.67
  207.89        2951.75           1256          16.00        43.59
  207.91        2952.00           1259          23.00        74.11
  207.94        2952.25           1262          20.00        61.03
  207.97        2952.50           1266          19.00        56.67
  208.00        2952.75           1269          19.00        56.67
  208.02        2953.00           1272          18.00        52.31
  208.05        2953.25           1276          18.00        52.31
  208.08        2953.50           1279          18.00        52.31
  208.10        2953.75           1282          20.00        61.03
  208.13        2954.00           1286          20.00        61.03
  208.16        2954.25           1289          22.00        69.75
  208.19        2954.50           1292          20.00        61.03
  208.21        2954.75           1295          22.00        69.75
  208.24        2955.00           1299          20.00        61.03
  208.27        2955.25           1302          20.00        61.03
  208.29        2955.50           1305          19.00        56.67
  208.32        2955.75           1309          17.00        47.95
  208.35        2956.00           1312          18.00        52.31
  208.38        2956.25           1315          17.00        47.95
  208.40        2956.50           1319          19.00        56.67
  208.43        2956.75           1322          19.00        56.67
  208.46        2957.00           1325          18.00        52.31
  208.48        2957.25           1329          19.00        56.67
  208.51        2957.50           1332          20.00        61.03
  208.54        2957.75           1335          18.00        52.31
  208.57        2958.00           1339          22.00        69.75
  208.59        2958.25           1342          25.00        82.82
  208.62        2958.50           1345          23.00        74.11
  208.65        2958.75           1348          19.00        56.67
  208.67        2959.00           1352          19.00        56.67
  208.70        2959.25           1355          22.00        69.75
  208.73        2959.50           1358          22.00        69.75
  208.76        2959.75           1362          29.00       100.26
  208.78        2960.00           1365          27.00        91.54
  208.81        2960.25           1368          35.00       126.42
  208.84        2960.50           1372          34.00       122.06
  208.86        2960.75           1375          61.00       239.76
  208.89        2961.00           1378         207.00       876.22
  208.92        2961.25           1382         912.00      3949.87
  208.95        2961.50           1385        2061.00      8960.40
  208.97        2961.75           1388        3993.00     17388.59
  209.00        2962.00           1392        7299.00     31819.97
  209.03        2962.25           1395       10322.00     45026.22
  209.06        2962.50           1398       13560.00     59182.56
  209.08        2962.75           1402       17692.00     77263.75
  209.11        2963.00           1405       20701.00     90442.34
  209.14        2963.25           1408       23888.00    104411.20
  209.16        2963.50           1412       27993.00    122419.80
  209.19        2963.75           1415       31043.00    135811.90
  209.22        2964.00           1418       34378.00    150467.00
  209.25        2964.25           1422       38597.00    169023.90
  209.27        2964.50           1425       41453.00    181596.70
  209.30        2964.75           1428       44906.00    196809.60
  209.33        2965.00           1431       47998.00    210443.00
  209.36        2965.25           1435       52432.00    230011.90
  209.38        2965.50           1438       55309.00    242720.70
  209.41        2965.75           1441       58451.00    256610.50
  209.44        2966.00           1445       62463.00    274362.10
  209.47        2966.25           1448       64727.00    284387.20
  209.49        2966.50           1451       66736.00    293287.90
  209.52        2966.75           1455       67924.00    298553.40
  209.55        2967.00           1458       68356.00    300468.50
  209.57        2967.25           1461       68286.00    300158.10
  209.60        2967.50           1465       68059.00    299151.80
  209.63        2967.75           1468       66976.00    294351.50
  209.66        2968.00           1471       65394.00    287341.80
  209.68        2968.25           1475       62018.00    272392.20
  209.71        2968.50           1478       59231.00    260060.30
  209.74        2968.75           1481       56011.00    245823.10
  209.77        2969.00           1485       51528.00    226020.50
  209.79        2969.25           1488       48594.00    213072.10
  209.82        2969.50           1491       45108.00    197699.90
  209.85        2969.75           1495       40620.00    177928.70
  209.88        2970.00           1498       37370.00    163625.00
  209.90        2970.25           1501       34211.00    149732.80
  209.93        2970.50           1505       30012.00    131283.80
  209.96        2970.75           1508       26776.00    117078.90
  209.99        2971.00           1511       23500.00    102710.00
  210.01        2971.25           1515       19370.00     84611.72
  210.04        2971.50           1518       16358.00     71424.31
  210.07        2971.75           1521       13193.00     57577.50
  210.09        2972.00           1525        9361.00     40826.94
  210.12        2972.25           1528        6217.00     27095.53
  210.15        2972.50           1531        3765.00     16393.75
  210.18        2972.75           1535        1392.00      6042.87
  210.20        2973.00           1538         471.00      2027.14
  210.23        2973.25           1541         129.00       536.19
  210.26        2973.50           1545          46.00       174.37
  210.28        2973.75           1548          41.00       152.57
  210.31        2974.00           1551          29.00       100.26
  210.34        2974.25           1555          33.00       117.70
  210.37        2974.50           1558          26.00        87.18
  210.39        2974.75           1561          25.00        82.82
  210.42        2975.00           1565          23.00        74.11
  210.45        2975.25           1568          24.00        78.47
  210.48        2975.50           1571          22.00        69.75
  210.50        2975.75           1575          25.00        82.82
  210.53        2976.00           1578          28.00        95.90
  210.56        2976.25           1581          21.00        65.39
  210.58        2976.50           1585          21.00        65.39
  210.61        2976.75           1588          25.00        82.82
  210.64        2977.00           1591          20.00        61.03
  210.67        2977.25           1595          27.00        91.54
  210.69        2977.50           1598          21.00        65.39
  210.72        2977.75           1601          24.00        78.47
  210.75        2978.00           1605          26.00        87.18
  210.77        2978.25           1608          22.00        69.75
  210.80        2978.50           1611          21.00        65.39
  210.83        2978.75           1615          24.00        78.47
  210.86        2979.00           1618          22.00        69.75
  210.88        2979.25           1621          24.00        78.47
  210.91        2979.50           1625          22.00        69.75
  210.94        2979.75           1628          18.00        52.31
  210.96        2980.00           1631          23.00        74.11
  210.99        2980.25           1635          25.00        82.82
  211.02        2980.50           1638          19.00        56.67
  211.05        2980.75           1641          18.00        52.31
  211.07        2981.00           1645          22.00        69.75
  211.10        2981.25           1648          18.00        52.31
  211.13        2981.50           1651          22.00        69.75
  211.16        2981.75           1655          21.00        65.39
  211.18        2982.00           1658          23.00        74.11
  211.21        2982.25           1661          18.00        52.31
  211.24        2982.50           1665          20.00        61.03
  211.26        2982.75           1668          17.00        47.95
  211.29        2983.00           1671          19.00        56.67
  211.32        2983.25           1675          22.00        69.75
  211.35        2983.50           1678          21.00        65.39
  211.37        2983.75           1681          19.00        56.67
  211.40        2984.00           1685          21.00        65.39
HS scan finished at 03:31:35
end
