************************************************************
  HS Scan of (1) Internal mercury lamp
************************************************************
Integration time is 0.2294 seconds per sample
dh190817Tamanrasset 22.79-5.529 3.230741pr865
************************************************************
Dead Time -------------------------  2.8E-08 
Number of Cycles Used -------------  4 
Starting Wavelength (Angstroms) ---  2950 
Final Wavelength (Angstoms) -------  2984 
Wavelength Increment (Angstroms) --  .25 
Filter Wheel #1 Position ---------- (1) Ground quartz diffuser (ND=2.32)
Filter Wheel #2 Position ---------- (1) Neutral Density 0.494



************************************************************
HS scan start time = 03:27:18
Dark Count =  5.5 


Time (GMT)  Wavelength (Ang)  Step Number  Raw Counts  Counts/Second

  207.66        2950.00           1233          23.00        76.29
  207.73        2950.25           1236          19.00        58.85
  207.76        2950.50           1239          21.00        67.57
  207.78        2950.75           1242          22.00        71.93
  207.81        2951.00           1246          16.00        45.77
  207.84        2951.25           1249          24.00        80.65
  207.86        2951.50           1252          18.00        54.49
  207.89        2951.75           1256          16.00        45.77
  207.92        2952.00           1259          20.00        63.21
  207.94        2952.25           1262          17.00        50.13
  207.97        2952.50           1266          18.00        54.49
  208.00        2952.75           1269          17.00        50.13
  208.03        2953.00           1272          20.00        63.21
  208.05        2953.25           1276          18.00        54.49
  208.08        2953.50           1279          19.00        58.85
  208.11        2953.75           1282          22.00        71.93
  208.14        2954.00           1286          19.00        58.85
  208.16        2954.25           1289          22.00        71.93
  208.19        2954.50           1292          17.00        50.13
  208.22        2954.75           1295          22.00        71.93
  208.24        2955.00           1299          20.00        63.21
  208.27        2955.25           1302          20.00        63.21
  208.30        2955.50           1305          21.00        67.57
  208.33        2955.75           1309          21.00        67.57
  208.35        2956.00           1312          19.00        58.85
  208.38        2956.25           1315          17.00        50.13
  208.41        2956.50           1319          18.00        54.49
  208.43        2956.75           1322          17.00        50.13
  208.46        2957.00           1325          17.00        50.13
  208.49        2957.25           1329          22.00        71.93
  208.52        2957.50           1332          20.00        63.21
  208.54        2957.75           1335          19.00        58.85
  208.57        2958.00           1339          22.00        71.93
  208.60        2958.25           1342          21.00        67.57
  208.62        2958.50           1345          20.00        63.21
  208.65        2958.75           1348          18.00        54.49
  208.68        2959.00           1352          17.00        50.13
  208.71        2959.25           1355          19.00        58.85
  208.73        2959.50           1358          23.00        76.29
  208.76        2959.75           1362          20.00        63.21
  208.79        2960.00           1365          26.00        89.36
  208.81        2960.25           1368          32.00       115.52
  208.84        2960.50           1372          39.00       146.03
  208.87        2960.75           1375          55.00       215.78
  208.90        2961.00           1378         204.00       865.32
  208.92        2961.25           1382         885.00      3834.33
  208.95        2961.50           1385        1888.00      8208.08
  208.98        2961.75           1388        3642.00     15859.27
  209.00        2962.00           1392        6935.00     30232.65
  209.03        2962.25           1395        9723.00     42410.84
  209.06        2962.50           1398       12770.00     55729.88
  209.09        2962.75           1402       16660.00     72748.31
  209.11        2963.00           1405       19602.00     85630.09
  209.14        2963.25           1408       22852.00     99871.31
  209.17        2963.50           1412       26519.00    115953.50
  209.20        2963.75           1415       29432.00    128739.20
  209.22        2964.00           1418       32588.00    142601.80
  209.25        2964.25           1422       36513.00    159857.40
  209.28        2964.50           1425       39411.00    172608.60
  209.31        2964.75           1428       42422.00    185866.70
  209.33        2965.00           1431       45638.00    200038.40
  209.36        2965.25           1435       49630.00    217645.30
  209.39        2965.50           1438       52913.00    232138.20
  209.41        2965.75           1441       55690.00    244406.60
  209.44        2966.00           1445       59740.00    262314.10
  209.47        2966.25           1448       62061.00    272584.80
  209.50        2966.50           1451       63902.00    280735.60
  209.52        2966.75           1455       64957.00    285408.20
  209.55        2967.00           1458       65404.00    287388.30
  209.58        2967.25           1461       65611.00    288305.40
  209.61        2967.50           1465       65075.00    285930.90
  209.63        2967.75           1468       64241.00    282236.90
  209.66        2968.00           1471       62922.00    276396.30
  209.69        2968.25           1475       60082.00    263827.10
  209.72        2968.50           1478       57277.00    251421.60
  209.74        2968.75           1481       54321.00    238357.50
  209.77        2969.00           1485       49802.00    218404.30
  209.80        2969.25           1488       46710.00    204764.80
  209.82        2969.50           1491       43513.00    190673.10
  209.85        2969.75           1495       39440.00    172736.30
  209.88        2970.00           1498       36236.00    158639.00
  209.91        2970.25           1501       33364.00    146012.10
  209.93        2970.50           1505       29249.00    127935.70
  209.96        2970.75           1508       26174.00    114439.80
  209.99        2971.00           1511       23230.00    101528.40
  210.02        2971.25           1515       19141.00     83610.96
  210.04        2971.50           1518       16222.00     70831.28
  210.07        2971.75           1521       13242.00     57793.98
  210.10        2972.00           1525        9633.00     42017.59
  210.13        2972.25           1528        6635.00     28922.72
  210.15        2972.50           1531        3976.00     17316.59
  210.18        2972.75           1535        1466.00      6367.74
  210.21        2973.00           1538         543.00      2343.22
  210.23        2973.25           1541         152.00       638.63
  210.26        2973.50           1545          44.00       167.83
  210.29        2973.75           1548          33.00       119.88
  210.32        2974.00           1551          37.00       137.32
  210.34        2974.25           1555          36.00       132.96
  210.37        2974.50           1558          25.00        85.00
  210.40        2974.75           1561          24.00        80.65
  210.42        2975.00           1565          27.00        93.72
  210.45        2975.25           1568          22.00        71.93
  210.48        2975.50           1571          23.00        76.29
  210.51        2975.75           1575          21.00        67.57
  210.53        2976.00           1578          19.00        58.85
  210.56        2976.25           1581          23.00        76.29
  210.59        2976.50           1585          20.00        63.21
  210.61        2976.75           1588          20.00        63.21
  210.64        2977.00           1591          22.00        71.93
  210.67        2977.25           1595          22.00        71.93
  210.70        2977.50           1598          24.00        80.65
  210.72        2977.75           1601          19.00        58.85
  210.75        2978.00           1605          23.00        76.29
  210.78        2978.25           1608          31.00       111.16
  210.81        2978.50           1611          25.00        85.00
  210.83        2978.75           1615          21.00        67.57
  210.86        2979.00           1618          19.00        58.85
  210.89        2979.25           1621          24.00        80.65
  210.91        2979.50           1625          20.00        63.21
  210.94        2979.75           1628          23.00        76.29
  210.97        2980.00           1631          24.00        80.65
  211.00        2980.25           1635          21.00        67.57
  211.02        2980.50           1638          24.00        80.65
  211.05        2980.75           1641          17.00        50.13
  211.08        2981.00           1645          19.00        58.85
  211.10        2981.25           1648          23.00        76.29
  211.13        2981.50           1651          21.00        67.57
  211.16        2981.75           1655          23.00        76.29
  211.19        2982.00           1658          23.00        76.29
  211.21        2982.25           1661          17.00        50.13
  211.24        2982.50           1665          17.00        50.13
  211.27        2982.75           1668          18.00        54.49
  211.29        2983.00           1671          22.00        71.93
  211.32        2983.25           1675          21.00        67.57
  211.35        2983.50           1678          21.00        67.57
  211.38        2983.75           1681          16.00        45.77
  211.40        2984.00           1685          21.00        67.57
HS scan finished at 03:31:36
end
