************************************************************
  HS Scan of (1) Internal mercury lamp
************************************************************
Integration time is 0.2294 seconds per sample
dh050918Tamanrasset 22.79-5.529 4.974364pr865
************************************************************
Dead Time -------------------------  2.8E-08 
Number of Cycles Used -------------  4 
Starting Wavelength (Angstroms) ---  2950 
Final Wavelength (Angstoms) -------  2984 
Wavelength Increment (Angstroms) --  .25 
Filter Wheel #1 Position ---------- (1) Ground quartz diffuser (ND=2.32)
Filter Wheel #2 Position ---------- (1) Neutral Density 0.494



************************************************************
HS scan start time = 03:33:08
Dark Count =  6 


Time (GMT)  Wavelength (Ang)  Step Number  Raw Counts  Counts/Second

  213.50        2950.00           1233          23.00        74.11
  213.56        2950.25           1236          20.00        61.03
  213.59        2950.50           1239          19.00        56.67
  213.61        2950.75           1242          23.00        74.11
  213.64        2951.00           1246          21.00        65.39
  213.67        2951.25           1249          19.00        56.67
  213.69        2951.50           1252          18.00        52.31
  213.72        2951.75           1256          17.00        47.95
  213.75        2952.00           1259          20.00        61.03
  213.78        2952.25           1262          20.00        61.03
  213.80        2952.50           1266          21.00        65.39
  213.83        2952.75           1269          19.00        56.67
  213.86        2953.00           1272          20.00        61.03
  213.88        2953.25           1276          21.00        65.39
  213.91        2953.50           1279          18.00        52.31
  213.94        2953.75           1282          22.00        69.75
  213.97        2954.00           1286          20.00        61.03
  213.99        2954.25           1289          17.00        47.95
  214.02        2954.50           1292          24.00        78.47
  214.05        2954.75           1295          20.00        61.03
  214.08        2955.00           1299          16.00        43.59
  214.10        2955.25           1302          22.00        69.75
  214.13        2955.50           1305          22.00        69.75
  214.16        2955.75           1309          17.00        47.95
  214.18        2956.00           1312          21.00        65.39
  214.21        2956.25           1315          21.00        65.39
  214.24        2956.50           1319          23.00        74.11
  214.27        2956.75           1322          17.00        47.95
  214.29        2957.00           1325          15.00        39.23
  214.32        2957.25           1329          19.00        56.67
  214.35        2957.50           1332          16.00        43.59
  214.37        2957.75           1335          19.00        56.67
  214.40        2958.00           1339          22.00        69.75
  214.43        2958.25           1342          17.00        47.95
  214.46        2958.50           1345          24.00        78.47
  214.48        2958.75           1348          20.00        61.03
  214.51        2959.00           1352          20.00        61.03
  214.54        2959.25           1355          23.00        74.11
  214.56        2959.50           1358          23.00        74.11
  214.59        2959.75           1362          24.00        78.47
  214.62        2960.00           1365          30.00       104.62
  214.65        2960.25           1368          29.00       100.26
  214.67        2960.50           1372          31.00       108.98
  214.70        2960.75           1375          47.00       178.73
  214.73        2961.00           1378          91.00       370.54
  214.76        2961.25           1382         460.00      1979.19
  214.78        2961.50           1385        1246.00      5406.22
  214.81        2961.75           1388        2582.00     11232.83
  214.84        2962.00           1392        5399.00     23524.65
  214.86        2962.25           1395        8273.00     36073.91
  214.89        2962.50           1398       11269.00     49165.29
  214.92        2962.75           1402       15241.00     66536.23
  214.95        2963.00           1405       18460.00     80626.46
  214.97        2963.25           1408       21529.00     94070.46
  215.00        2963.50           1412       25409.00    111081.70
  215.03        2963.75           1415       28453.00    124438.90
  215.06        2964.00           1418       31832.00    139277.90
  215.08        2964.25           1422       35599.00    155835.40
  215.11        2964.50           1425       38550.00    168817.00
  215.14        2964.75           1428       41843.00    183314.30
  215.17        2965.00           1431       44766.00    196192.50
  215.19        2965.25           1435       49240.00    215922.30
  215.22        2965.50           1438       52297.00    229415.80
  215.25        2965.75           1441       55433.00    243268.70
  215.27        2966.00           1445       59481.00    261166.20
  215.30        2966.25           1448       61925.00    271980.60
  215.33        2966.50           1451       64178.00    281955.70
  215.36        2966.75           1455       66207.00    290943.80
  215.38        2967.00           1458       67169.00    295206.90
  215.41        2967.25           1461       67307.00    295818.50
  215.44        2967.50           1465       67021.00    294551.00
  215.47        2967.75           1468       66493.00    292211.10
  215.49        2968.00           1471       65571.00    288126.00
  215.52        2968.25           1475       63148.00    277394.70
  215.55        2968.50           1478       60333.00    264935.50
  215.57        2968.75           1481       57492.00    252369.90
  215.60        2969.00           1485       52973.00    232401.00
  215.63        2969.25           1488       49718.00    218031.50
  215.66        2969.50           1491       46120.00    202161.20
  215.68        2969.75           1495       42093.00    184415.40
  215.71        2970.00           1498       39074.00    171123.10
  215.74        2970.25           1501       35735.00    156433.50
  215.77        2970.50           1505       31470.00    137687.60
  215.79        2970.75           1508       28340.00    123942.90
  215.82        2971.00           1511       25319.00    110686.90
  215.85        2971.25           1515       21153.00     92422.82
  215.87        2971.50           1518       18122.00     79146.44
  215.90        2971.75           1521       15117.00     65993.68
  215.93        2972.00           1525       10955.00     47792.78
  215.96        2972.25           1528        7916.00     34514.60
  215.98        2972.50           1531        5271.00     22965.94
  216.01        2972.75           1535        2341.00     10181.63
  216.04        2973.00           1538         935.00      4050.15
  216.07        2973.25           1541         312.00      1333.96
  216.09        2973.50           1545          63.00       248.48
  216.12        2973.75           1548          46.00       174.37
  216.15        2974.00           1551          38.00       139.49
  216.18        2974.25           1555          27.00        91.54
  216.20        2974.50           1558          24.00        78.47
  216.23        2974.75           1561          28.00        95.90
  216.26        2975.00           1565          24.00        78.47
  216.28        2975.25           1568          23.00        74.11
  216.31        2975.50           1571          26.00        87.18
  216.34        2975.75           1575          21.00        65.39
  216.37        2976.00           1578          24.00        78.47
  216.39        2976.25           1581          20.00        61.03
  216.42        2976.50           1585          27.00        91.54
  216.45        2976.75           1588          20.00        61.03
  216.47        2977.00           1591          23.00        74.11
  216.50        2977.25           1595          24.00        78.47
  216.53        2977.50           1598          22.00        69.75
  216.56        2977.75           1601          24.00        78.47
  216.58        2978.00           1605          16.00        43.59
  216.61        2978.25           1608          20.00        61.03
  216.64        2978.50           1611          23.00        74.11
  216.66        2978.75           1615          21.00        65.39
  216.69        2979.00           1618          22.00        69.75
  216.72        2979.25           1621          24.00        78.47
  216.75        2979.50           1625          21.00        65.39
  216.77        2979.75           1628          23.00        74.11
  216.80        2980.00           1631          25.00        82.82
  216.83        2980.25           1635          22.00        69.75
  216.85        2980.50           1638          28.00        95.90
  216.88        2980.75           1641          24.00        78.47
  216.91        2981.00           1645          19.00        56.67
  216.94        2981.25           1648          24.00        78.47
  216.96        2981.50           1651          21.00        65.39
  216.99        2981.75           1655          28.00        95.90
  217.02        2982.00           1658          22.00        69.75
  217.04        2982.25           1661          18.00        52.31
  217.07        2982.50           1665          18.00        52.31
  217.10        2982.75           1668          19.00        56.67
  217.13        2983.00           1671          23.00        74.11
  217.15        2983.25           1675          19.00        56.67
  217.18        2983.50           1678          19.00        56.67
  217.21        2983.75           1681          21.00        65.39
  217.23        2984.00           1685          22.00        69.75
HS scan finished at 03:37:25
end
