************************************************************
  HS Scan of (1) Internal mercury lamp
************************************************************
Integration time is 0.2294 seconds per sample
dh020917Tamanrasset 22.79-5.529 3.261331pr865
************************************************************
Dead Time -------------------------  2.8E-08 
Number of Cycles Used -------------  4 
Starting Wavelength (Angstroms) ---  2950 
Final Wavelength (Angstoms) -------  2984 
Wavelength Increment (Angstroms) --  .25 
Filter Wheel #1 Position ---------- (1) Ground quartz diffuser (ND=2.32)
Filter Wheel #2 Position ---------- (1) Neutral Density 0.494



************************************************************
HS scan start time = 03:32:47
Dark Count =  5 


Time (GMT)  Wavelength (Ang)  Step Number  Raw Counts  Counts/Second

  213.14        2950.00           1233          21.00        69.75
  213.21        2950.25           1236          24.00        82.82
  213.24        2950.50           1239          22.00        74.11
  213.26        2950.75           1242          19.00        61.03
  213.29        2951.00           1246          19.00        61.03
  213.32        2951.25           1249          15.00        43.59
  213.34        2951.50           1252          15.00        43.59
  213.37        2951.75           1256          16.00        47.95
  213.40        2952.00           1259          20.00        65.39
  213.43        2952.25           1262          21.00        69.75
  213.45        2952.50           1266          26.00        91.54
  213.48        2952.75           1269          19.00        61.03
  213.51        2953.00           1272          19.00        61.03
  213.53        2953.25           1276          20.00        65.39
  213.56        2953.50           1279          16.00        47.95
  213.59        2953.75           1282          20.00        65.39
  213.62        2954.00           1286          22.00        74.11
  213.64        2954.25           1289          22.00        74.11
  213.67        2954.50           1292          17.00        52.31
  213.70        2954.75           1295          16.00        47.95
  213.72        2955.00           1299          20.00        65.39
  213.75        2955.25           1302          21.00        69.75
  213.78        2955.50           1305          15.00        43.59
  213.81        2955.75           1309          26.00        91.54
  213.83        2956.00           1312          17.00        52.31
  213.86        2956.25           1315          20.00        65.39
  213.89        2956.50           1319          20.00        65.39
  213.91        2956.75           1322          19.00        61.03
  213.94        2957.00           1325          15.00        43.59
  213.97        2957.25           1329          21.00        69.75
  214.00        2957.50           1332          19.00        61.03
  214.02        2957.75           1335          15.00        43.59
  214.05        2958.00           1339          21.00        69.75
  214.08        2958.25           1342          21.00        69.75
  214.10        2958.50           1345          18.00        56.67
  214.13        2958.75           1348          20.00        65.39
  214.16        2959.00           1352          22.00        74.11
  214.19        2959.25           1355          19.00        61.03
  214.21        2959.50           1358          21.00        69.75
  214.24        2959.75           1362          24.00        82.82
  214.27        2960.00           1365          25.00        87.18
  214.29        2960.25           1368          30.00       108.98
  214.32        2960.50           1372          40.00       152.57
  214.35        2960.75           1375          44.00       170.01
  214.38        2961.00           1378         147.00       619.02
  214.40        2961.25           1382         724.00      3134.54
  214.43        2961.50           1385        1772.00      7704.37
  214.46        2961.75           1388        3363.00     14644.19
  214.49        2962.00           1392        6535.00     28488.28
  214.51        2962.25           1395        9276.00     40459.94
  214.54        2962.50           1398       12301.00     53681.33
  214.57        2962.75           1402       15871.00     69297.37
  214.60        2963.00           1405       19061.00     83262.77
  214.62        2963.25           1408       22058.00     96393.21
  214.65        2963.50           1412       26044.00    113871.70
  214.68        2963.75           1415       29102.00    127292.50
  214.70        2964.00           1418       32076.00    140354.30
  214.73        2964.25           1422       36102.00    158051.90
  214.76        2964.50           1425       39152.00    171470.80
  214.79        2964.75           1428       42193.00    184860.20
  214.81        2965.00           1431       45147.00    197876.20
  214.84        2965.25           1435       49564.00    217356.30
  214.87        2965.50           1438       52719.00    231283.70
  214.90        2965.75           1441       55559.00    243829.90
  214.92        2966.00           1445       59558.00    261511.20
  214.95        2966.25           1448       61959.00    272135.50
  214.98        2966.50           1451       63733.00    279989.50
  215.00        2966.75           1455       65463.00    287651.90
  215.03        2967.00           1458       66109.00    290514.00
  215.06        2967.25           1461       66020.00    290119.70
  215.09        2967.50           1465       66013.00    290088.60
  215.11        2967.75           1468       65251.00    286712.70
  215.14        2968.00           1471       64091.00    281574.80
  215.17        2968.25           1475       61236.00    268935.60
  215.20        2968.50           1478       58738.00    257884.20
  215.22        2968.75           1481       55727.00    244572.40
  215.25        2969.00           1485       51557.00    226152.90
  215.28        2969.25           1488       48191.00    211298.70
  215.31        2969.50           1491       44857.00    196598.00
  215.33        2969.75           1495       40846.00    178928.20
  215.36        2970.00           1498       37701.00    165085.70
  215.39        2970.25           1501       34592.00    151412.10
  215.42        2970.50           1505       30246.00    132315.80
  215.44        2970.75           1508       27181.00    118860.50
  215.47        2971.00           1511       23973.00    104788.30
  215.50        2971.25           1515       20047.00     87581.56
  215.53        2971.50           1518       17037.00     74400.70
  215.55        2971.75           1521       14144.00     61741.34
  215.58        2972.00           1525       10093.00     44029.84
  215.61        2972.25           1528        7219.00     31474.98
  215.63        2972.50           1531        4671.00     20351.61
  215.66        2972.75           1535        1977.00      8598.41
  215.69        2973.00           1538         745.00      3226.10
  215.72        2973.25           1541         235.00      1002.64
  215.74        2973.50           1545          63.00       252.84
  215.77        2973.75           1548          42.00       161.29
  215.80        2974.00           1551          34.00       126.42
  215.82        2974.25           1555          31.00       113.34
  215.85        2974.50           1558          30.00       108.98
  215.88        2974.75           1561          26.00        91.54
  215.91        2975.00           1565          26.00        91.54
  215.93        2975.25           1568          25.00        87.18
  215.96        2975.50           1571          20.00        65.39
  215.99        2975.75           1575          24.00        82.82
  216.02        2976.00           1578          23.00        78.47
  216.04        2976.25           1581          21.00        69.75
  216.07        2976.50           1585          19.00        61.03
  216.10        2976.75           1588          18.00        56.67
  216.12        2977.00           1591          25.00        87.18
  216.15        2977.25           1595          23.00        78.47
  216.18        2977.50           1598          25.00        87.18
  216.21        2977.75           1601          23.00        78.47
  216.23        2978.00           1605          25.00        87.18
  216.26        2978.25           1608          16.00        47.95
  216.29        2978.50           1611          25.00        87.18
  216.31        2978.75           1615          22.00        74.11
  216.34        2979.00           1618          21.00        69.75
  216.37        2979.25           1621          24.00        82.82
  216.40        2979.50           1625          23.00        78.47
  216.42        2979.75           1628          24.00        82.82
  216.45        2980.00           1631          19.00        61.03
  216.48        2980.25           1635          21.00        69.75
  216.51        2980.50           1638          20.00        65.39
  216.53        2980.75           1641          17.00        52.31
  216.56        2981.00           1645          24.00        82.82
  216.59        2981.25           1648          23.00        78.47
  216.61        2981.50           1651          23.00        78.47
  216.64        2981.75           1655          19.00        61.03
  216.67        2982.00           1658          20.00        65.39
  216.70        2982.25           1661          23.00        78.47
  216.72        2982.50           1665          26.00        91.54
  216.75        2982.75           1668          20.00        65.39
  216.78        2983.00           1671          21.00        69.75
  216.80        2983.25           1675          20.00        65.39
  216.83        2983.50           1678          16.00        47.95
  216.86        2983.75           1681          18.00        56.67
  216.89        2984.00           1685          16.00        47.95
HS scan finished at 03:37:04
end
