************************************************************
  HS Scan of (1) Internal mercury lamp
************************************************************
Integration time is 0.2294 seconds per sample
dh060918Tamanrasset 22.79-5.529 4.974364pr865
************************************************************
Dead Time -------------------------  2.8E-08 
Number of Cycles Used -------------  4 
Starting Wavelength (Angstroms) ---  2950 
Final Wavelength (Angstoms) -------  2984 
Wavelength Increment (Angstroms) --  .25 
Filter Wheel #1 Position ---------- (1) Ground quartz diffuser (ND=2.32)
Filter Wheel #2 Position ---------- (1) Neutral Density 0.494



************************************************************
HS scan start time = 03:34:09
Dark Count =  5.3 


Time (GMT)  Wavelength (Ang)  Step Number  Raw Counts  Counts/Second

  214.51        2950.00           1233          20.00        64.08
  214.57        2950.25           1236          25.00        85.88
  214.60        2950.50           1239          21.00        68.44
  214.62        2950.75           1242          20.00        64.08
  214.65        2951.00           1246          23.00        77.16
  214.68        2951.25           1249          20.00        64.08
  214.71        2951.50           1252          20.00        64.08
  214.73        2951.75           1256          19.00        59.72
  214.76        2952.00           1259          20.00        64.08
  214.79        2952.25           1262          22.00        72.80
  214.81        2952.50           1266          21.00        68.44
  214.84        2952.75           1269          27.00        94.59
  214.87        2953.00           1272          21.00        68.44
  214.90        2953.25           1276          22.00        72.80
  214.92        2953.50           1279          17.00        51.00
  214.95        2953.75           1282          17.00        51.00
  214.98        2954.00           1286          21.00        68.44
  215.00        2954.25           1289          24.00        81.52
  215.03        2954.50           1292          23.00        77.16
  215.06        2954.75           1295          21.00        68.44
  215.09        2955.00           1299          26.00        90.24
  215.11        2955.25           1302          18.00        55.36
  215.14        2955.50           1305          22.00        72.80
  215.17        2955.75           1309          17.00        51.00
  215.19        2956.00           1312          17.00        51.00
  215.22        2956.25           1315          20.00        64.08
  215.25        2956.50           1319          22.00        72.80
  215.28        2956.75           1322          25.00        85.88
  215.30        2957.00           1325          25.00        85.88
  215.33        2957.25           1329          23.00        77.16
  215.36        2957.50           1332          25.00        85.88
  215.38        2957.75           1335          20.00        64.08
  215.41        2958.00           1339          23.00        77.16
  215.44        2958.25           1342          21.00        68.44
  215.47        2958.50           1345          19.00        59.72
  215.49        2958.75           1348          22.00        72.80
  215.52        2959.00           1352          16.00        46.64
  215.55        2959.25           1355          24.00        81.52
  215.57        2959.50           1358          20.00        64.08
  215.60        2959.75           1362          21.00        68.44
  215.63        2960.00           1365          29.00       103.31
  215.66        2960.25           1368          27.00        94.59
  215.68        2960.50           1372          36.00       133.83
  215.71        2960.75           1375          53.00       207.93
  215.74        2961.00           1378         188.00       796.44
  215.76        2961.25           1382         818.00      3543.07
  215.79        2961.50           1385        1928.00      8383.40
  215.82        2961.75           1388        3661.00     15943.04
  215.85        2962.00           1392        6999.00     30512.98
  215.87        2962.25           1395        9856.00     42992.88
  215.90        2962.50           1398       13140.00     57348.78
  215.93        2962.75           1402       17280.00     75463.13
  215.95        2963.00           1405       20278.00     88592.19
  215.98        2963.25           1408       23324.00    101941.40
  216.01        2963.50           1412       27399.00    119815.90
  216.04        2963.75           1415       30623.00    133970.20
  216.06        2964.00           1418       33693.00    147458.90
  216.09        2964.25           1422       37993.00    166369.10
  216.12        2964.50           1425       41297.00    180912.80
  216.15        2964.75           1428       44160.00    193524.90
  216.17        2965.00           1431       47537.00    208412.80
  216.20        2965.25           1435       51799.00    227220.00
  216.23        2965.50           1438       54701.00    240037.30
  216.25        2965.75           1441       57982.00    254539.60
  216.28        2966.00           1445       61841.00    271611.90
  216.31        2966.25           1448       64106.00    281639.90
  216.34        2966.50           1451       66393.00    291771.10
  216.36        2966.75           1455       67830.00    298139.80
  216.39        2967.00           1458       67988.00    298840.20
  216.42        2967.25           1461       68212.00    299833.20
  216.45        2967.50           1465       67829.00    298135.40
  216.47        2967.75           1468       66833.00    293720.90
  216.50        2968.00           1471       65577.00    288155.60
  216.53        2968.25           1475       62227.00    273320.50
  216.56        2968.50           1478       59418.00    260890.60
  216.58        2968.75           1481       56289.00    247054.90
  216.61        2969.00           1485       51857.00    227476.10
  216.64        2969.25           1488       48494.00    212634.10
  216.66        2969.50           1491       45185.00    198042.40
  216.69        2969.75           1495       41002.00    179613.80
  216.72        2970.00           1498       37548.00    164411.20
  216.75        2970.25           1501       34526.00    151120.70
  216.77        2970.50           1505       30307.00    132582.40
  216.80        2970.75           1508       27067.00    118358.90
  216.83        2971.00           1511       23996.00    104887.80
  216.86        2971.25           1515       19677.00     85959.49
  216.88        2971.50           1518       16355.00     71414.24
  216.91        2971.75           1521       13318.00     58127.23
  216.94        2972.00           1525        9327.00     40681.45
  216.96        2972.25           1528        6298.00     27452.22
  216.99        2972.50           1531        3807.00     16580.06
  217.02        2972.75           1535        1465.00      6364.26
  217.05        2973.00           1538         490.00      2113.03
  217.07        2973.25           1541         137.00       574.12
  217.10        2973.50           1545          47.00       181.78
  217.13        2973.75           1548          40.00       151.26
  217.15        2974.00           1551          33.00       120.75
  217.18        2974.25           1555          30.00       107.67
  217.21        2974.50           1558          25.00        85.88
  217.24        2974.75           1561          29.00       103.31
  217.26        2975.00           1565          25.00        85.88
  217.29        2975.25           1568          28.00        98.95
  217.32        2975.50           1571          26.00        90.24
  217.34        2975.75           1575          22.00        72.80
  217.37        2976.00           1578          25.00        85.88
  217.40        2976.25           1581          23.00        77.16
  217.43        2976.50           1585          22.00        72.80
  217.45        2976.75           1588          27.00        94.59
  217.48        2977.00           1591          23.00        77.16
  217.51        2977.25           1595          21.00        68.44
  217.54        2977.50           1598          24.00        81.52
  217.56        2977.75           1601          20.00        64.08
  217.59        2978.00           1605          23.00        77.16
  217.62        2978.25           1608          24.00        81.52
  217.64        2978.50           1611          26.00        90.24
  217.67        2978.75           1615          26.00        90.24
  217.70        2979.00           1618          23.00        77.16
  217.73        2979.25           1621          22.00        72.80
  217.75        2979.50           1625          23.00        77.16
  217.78        2979.75           1628          22.00        72.80
  217.81        2980.00           1631          17.00        51.00
  217.83        2980.25           1635          20.00        64.08
  217.86        2980.50           1638          19.00        59.72
  217.89        2980.75           1641          19.00        59.72
  217.92        2981.00           1645          25.00        85.88
  217.94        2981.25           1648          21.00        68.44
  217.97        2981.50           1651          20.00        64.08
  218.00        2981.75           1655          20.00        64.08
  218.02        2982.00           1658          19.00        59.72
  218.05        2982.25           1661          24.00        81.52
  218.08        2982.50           1665          19.00        59.72
  218.11        2982.75           1668          20.00        64.08
  218.13        2983.00           1671          19.00        59.72
  218.16        2983.25           1675          20.00        64.08
  218.19        2983.50           1678          16.00        46.64
  218.21        2983.75           1681          22.00        72.80
  218.24        2984.00           1685          18.00        55.36
HS scan finished at 03:38:26
end
