************************************************************
  HS Scan of (1) Internal mercury lamp
************************************************************
Integration time is 0.2294 seconds per sample
dh280818Tamanrasset 22.79-5.529 4.974364pr865
************************************************************
Dead Time -------------------------  2.8E-08 
Number of Cycles Used -------------  4 
Starting Wavelength (Angstroms) ---  2950 
Final Wavelength (Angstoms) -------  2984 
Wavelength Increment (Angstroms) --  .25 
Filter Wheel #1 Position ---------- (1) Ground quartz diffuser (ND=2.32)
Filter Wheel #2 Position ---------- (1) Neutral Density 0.494



************************************************************
HS scan start time = 03:31:37
Dark Count =  6 


Time (GMT)  Wavelength (Ang)  Step Number  Raw Counts  Counts/Second

  211.97        2950.00           1233          21.00        65.39
  212.04        2950.25           1236          15.00        39.23
  212.06        2950.50           1239          20.00        61.03
  212.09        2950.75           1242          20.00        61.03
  212.12        2951.00           1246          26.00        87.18
  212.14        2951.25           1249          18.00        52.31
  212.17        2951.50           1252          18.00        52.31
  212.20        2951.75           1256          21.00        65.39
  212.23        2952.00           1259          18.00        52.31
  212.25        2952.25           1262          20.00        61.03
  212.28        2952.50           1266          22.00        69.75
  212.31        2952.75           1269          19.00        56.67
  212.34        2953.00           1272          18.00        52.31
  212.36        2953.25           1276          19.00        56.67
  212.39        2953.50           1279          21.00        65.39
  212.42        2953.75           1282          18.00        52.31
  212.44        2954.00           1286          22.00        69.75
  212.47        2954.25           1289          23.00        74.11
  212.50        2954.50           1292          23.00        74.11
  212.52        2954.75           1295          26.00        87.18
  212.55        2955.00           1299          20.00        61.03
  212.58        2955.25           1302          20.00        61.03
  212.61        2955.50           1305          25.00        82.82
  212.63        2955.75           1309          21.00        65.39
  212.66        2956.00           1312          15.00        39.23
  212.69        2956.25           1315          24.00        78.47
  212.71        2956.50           1319          15.00        39.23
  212.74        2956.75           1322          17.00        47.95
  212.77        2957.00           1325          18.00        52.31
  212.80        2957.25           1329          18.00        52.31
  212.82        2957.50           1332          20.00        61.03
  212.85        2957.75           1335          18.00        52.31
  212.88        2958.00           1339          20.00        61.03
  212.90        2958.25           1342          19.00        56.67
  212.93        2958.50           1345          23.00        74.11
  212.96        2958.75           1348          21.00        65.39
  212.99        2959.00           1352          22.00        69.75
  213.01        2959.25           1355          22.00        69.75
  213.04        2959.50           1358          21.00        65.39
  213.07        2959.75           1362          25.00        82.82
  213.09        2960.00           1365          25.00        82.82
  213.12        2960.25           1368          29.00       100.26
  213.15        2960.50           1372          36.00       130.78
  213.18        2960.75           1375          47.00       178.73
  213.20        2961.00           1378         166.00       697.49
  213.23        2961.25           1382         769.00      3326.38
  213.26        2961.50           1385        1756.00      7630.23
  213.29        2961.75           1388        3405.00     14823.07
  213.31        2962.00           1392        6654.00     29003.49
  213.34        2962.25           1395        9580.00     41783.82
  213.37        2962.50           1398       12439.00     54280.35
  213.40        2962.75           1402       16325.00     71279.87
  213.42        2963.00           1405       19200.00     83867.16
  213.45        2963.25           1408       22173.00     96892.86
  213.48        2963.50           1412       25768.00    112656.50
  213.50        2963.75           1415       28844.00    126155.40
  213.53        2964.00           1418       31834.00    139286.70
  213.56        2964.25           1422       35572.00    155716.70
  213.59        2964.50           1425       38583.00    168962.30
  213.61        2964.75           1428       41625.00    182354.20
  213.64        2965.00           1431       44381.00    194495.70
  213.67        2965.25           1435       48677.00    213438.30
  213.70        2965.50           1438       51917.00    227737.90
  213.72        2965.75           1441       54899.00    240909.00
  213.75        2966.00           1445       58626.00    257384.40
  213.78        2966.25           1448       60672.00    266435.40
  213.81        2966.50           1451       62841.00    276035.50
  213.83        2966.75           1455       64302.00    282504.80
  213.86        2967.00           1458       64938.00    285321.80
  213.89        2967.25           1461       64887.00    285095.90
  213.92        2967.50           1465       64463.00    283217.90
  213.94        2967.75           1468       64012.00    281220.50
  213.97        2968.00           1471       62685.00    275344.80
  214.00        2968.25           1475       60015.00    263528.50
  214.02        2968.50           1478       57156.00    250884.40
  214.05        2968.75           1481       54370.00    238571.80
  214.08        2969.00           1485       49822.00    218490.40
  214.11        2969.25           1488       47027.00    206160.50
  214.13        2969.50           1491       43525.00    190723.70
  214.16        2969.75           1495       39478.00    172901.30
  214.19        2970.00           1498       36606.00    160264.20
  214.22        2970.25           1501       33497.00    146594.40
  214.24        2970.50           1505       29565.00    129321.00
  214.27        2970.75           1508       26354.00    115227.30
  214.30        2971.00           1511       23579.00    103056.30
  214.33        2971.25           1515       19514.00     85242.46
  214.35        2971.50           1518       16314.00     71231.74
  214.38        2971.75           1521       13504.00     58937.64
  214.41        2972.00           1525        9615.00     41936.75
  214.44        2972.25           1528        6720.00     29291.67
  214.46        2972.50           1531        4278.00     18632.21
  214.49        2972.75           1535        1749.00      7599.70
  214.52        2973.00           1538         641.00      2768.31
  214.54        2973.25           1541         167.00       701.84
  214.57        2973.50           1545          50.00       191.81
  214.60        2973.75           1548          42.00       156.93
  214.63        2974.00           1551          33.00       117.70
  214.65        2974.25           1555          36.00       130.78
  214.68        2974.50           1558          28.00        95.90
  214.71        2974.75           1561          24.00        78.47
  214.73        2975.00           1565          26.00        87.18
  214.76        2975.25           1568          23.00        74.11
  214.79        2975.50           1571          22.00        69.75
  214.82        2975.75           1575          26.00        87.18
  214.84        2976.00           1578          21.00        65.39
  214.87        2976.25           1581          19.00        56.67
  214.90        2976.50           1585          18.00        52.31
  214.92        2976.75           1588          24.00        78.47
  214.95        2977.00           1591          20.00        61.03
  214.98        2977.25           1595          20.00        61.03
  215.01        2977.50           1598          20.00        61.03
  215.03        2977.75           1601          20.00        61.03
  215.06        2978.00           1605          20.00        61.03
  215.09        2978.25           1608          22.00        69.75
  215.11        2978.50           1611          26.00        87.18
  215.14        2978.75           1615          20.00        61.03
  215.17        2979.00           1618          27.00        91.54
  215.20        2979.25           1621          20.00        61.03
  215.22        2979.50           1625          18.00        52.31
  215.25        2979.75           1628          23.00        74.11
  215.28        2980.00           1631          20.00        61.03
  215.30        2980.25           1635          19.00        56.67
  215.33        2980.50           1638          19.00        56.67
  215.36        2980.75           1641          23.00        74.11
  215.39        2981.00           1645          19.00        56.67
  215.41        2981.25           1648          21.00        65.39
  215.44        2981.50           1651          21.00        65.39
  215.47        2981.75           1655          20.00        61.03
  215.50        2982.00           1658          20.00        61.03
  215.52        2982.25           1661          22.00        69.75
  215.55        2982.50           1665          20.00        61.03
  215.58        2982.75           1668          23.00        74.11
  215.60        2983.00           1671          20.00        61.03
  215.63        2983.25           1675          21.00        65.39
  215.66        2983.50           1678          23.00        74.11
  215.69        2983.75           1681          20.00        61.03
  215.71        2984.00           1685          22.00        69.75
HS scan finished at 03:35:54
end
