************************************************************
  HS Scan of (1) Internal mercury lamp
************************************************************
Integration time is 0.2294 seconds per sample
dh290817Tamanrasset 22.79-5.529 3.225643pr865
************************************************************
Dead Time -------------------------  2.8E-08 
Number of Cycles Used -------------  4 
Starting Wavelength (Angstroms) ---  2950 
Final Wavelength (Angstoms) -------  2984 
Wavelength Increment (Angstroms) --  .25 
Filter Wheel #1 Position ---------- (1) Ground quartz diffuser (ND=2.32)
Filter Wheel #2 Position ---------- (1) Neutral Density 0.494



************************************************************
HS scan start time = 03:31:19
Dark Count =  5.8 


Time (GMT)  Wavelength (Ang)  Step Number  Raw Counts  Counts/Second

  211.68        2950.00           1233          17.00        48.82
  211.74        2950.25           1236          20.00        61.90
  211.77        2950.50           1239          20.00        61.90
  211.80        2950.75           1242          19.00        57.54
  211.82        2951.00           1246          19.00        57.54
  211.85        2951.25           1249          13.00        31.39
  211.88        2951.50           1252          21.00        66.26
  211.90        2951.75           1256          20.00        61.90
  211.93        2952.00           1259          16.00        44.46
  211.96        2952.25           1262          15.00        40.10
  211.99        2952.50           1266          24.00        79.34
  212.01        2952.75           1269          16.00        44.46
  212.04        2953.00           1272          24.00        79.34
  212.07        2953.25           1276          18.00        53.18
  212.09        2953.50           1279          23.00        74.98
  212.12        2953.75           1282          15.00        40.10
  212.15        2954.00           1286          18.00        53.18
  212.18        2954.25           1289          20.00        61.90
  212.20        2954.50           1292          22.00        70.62
  212.23        2954.75           1295          19.00        57.54
  212.26        2955.00           1299          17.00        48.82
  212.29        2955.25           1302          19.00        57.54
  212.31        2955.50           1305          21.00        66.26
  212.34        2955.75           1309          19.00        57.54
  212.37        2956.00           1312          21.00        66.26
  212.39        2956.25           1315          19.00        57.54
  212.42        2956.50           1319          18.00        53.18
  212.45        2956.75           1322          19.00        57.54
  212.48        2957.00           1325          18.00        53.18
  212.50        2957.25           1329          21.00        66.26
  212.53        2957.50           1332          18.00        53.18
  212.56        2957.75           1335          17.00        48.82
  212.59        2958.00           1339          18.00        53.18
  212.61        2958.25           1342          14.00        35.75
  212.64        2958.50           1345          27.00        92.42
  212.67        2958.75           1348          18.00        53.18
  212.69        2959.00           1352          21.00        66.26
  212.72        2959.25           1355          15.00        40.10
  212.75        2959.50           1358          22.00        70.62
  212.78        2959.75           1362          23.00        74.98
  212.80        2960.00           1365          21.00        66.26
  212.83        2960.25           1368          27.00        92.42
  212.86        2960.50           1372          29.00       101.13
  212.89        2960.75           1375          45.00       170.88
  212.91        2961.00           1378         114.00       471.67
  212.94        2961.25           1382         536.00      2311.40
  212.97        2961.50           1385        1407.00      6109.15
  213.00        2961.75           1388        2859.00     12442.00
  213.02        2962.00           1392        5870.00     25581.53
  213.05        2962.25           1395        8624.00     37608.02
  213.08        2962.50           1398       11562.00     50446.97
  213.10        2962.75           1402       15359.00     67053.41
  213.13        2963.00           1405       18156.00     79296.18
  213.16        2963.25           1408       21218.00     92708.52
  213.19        2963.50           1412       24970.00    109157.00
  213.21        2963.75           1415       27931.00    122148.50
  213.24        2964.00           1418       30547.00    133634.20
  213.27        2964.25           1422       34707.00    151914.20
  213.30        2964.50           1425       37837.00    165680.50
  213.32        2964.75           1428       40918.00    179241.70
  213.35        2965.00           1431       44165.00    193544.70
  213.38        2965.25           1435       47871.00    209883.70
  213.41        2965.50           1438       50862.00    223081.40
  213.43        2965.75           1441       53907.00    236527.30
  213.46        2966.00           1445       57921.00    254267.70
  213.49        2966.25           1448       60616.00    266188.50
  213.52        2966.50           1451       62424.00    274190.30
  213.54        2966.75           1455       64324.00    282603.20
  213.57        2967.00           1458       64788.00    284658.30
  213.60        2967.25           1461       65291.00    286886.40
  213.62        2967.50           1465       65340.00    287103.50
  213.65        2967.75           1468       64899.00    285150.00
  213.68        2968.00           1471       63753.00    280074.50
  213.71        2968.25           1475       61460.00    269923.40
  213.73        2968.50           1478       58866.00    258446.80
  213.76        2968.75           1481       55735.00    244604.20
  213.79        2969.00           1485       52015.00    228171.50
  213.82        2969.25           1488       48350.00    211996.60
  213.84        2969.50           1491       45122.00    197762.50
  213.87        2969.75           1495       41064.00    179884.60
  213.90        2970.00           1498       38024.00    166503.30
  213.93        2970.25           1501       34975.00    153092.50
  213.95        2970.50           1505       30869.00    135048.50
  213.98        2970.75           1508       27495.00    120235.00
  214.01        2971.00           1511       24494.00    107069.40
  214.03        2971.25           1515       20518.00     89641.46
  214.06        2971.50           1518       17478.00     76327.73
  214.09        2971.75           1521       14612.00     63785.14
  214.12        2972.00           1525       10635.00     46395.02
  214.14        2972.25           1528        7754.00     33807.93
  214.17        2972.50           1531        5001.00     21788.35
  214.20        2972.75           1535        2170.00      9436.67
  214.23        2973.00           1538         842.00      3645.53
  214.25        2973.25           1541         235.00       999.16
  214.28        2973.50           1545          59.00       231.91
  214.31        2973.75           1548          46.00       175.24
  214.33        2974.00           1551          35.00       127.29
  214.36        2974.25           1555          33.00       118.57
  214.39        2974.50           1558          28.00        96.77
  214.42        2974.75           1561          22.00        70.62
  214.44        2975.00           1565          23.00        74.98
  214.47        2975.25           1568          28.00        96.77
  214.50        2975.50           1571          24.00        79.34
  214.53        2975.75           1575          25.00        83.70
  214.55        2976.00           1578          21.00        66.26
  214.58        2976.25           1581          19.00        57.54
  214.61        2976.50           1585          26.00        88.06
  214.63        2976.75           1588          25.00        83.70
  214.66        2977.00           1591          23.00        74.98
  214.69        2977.25           1595          19.00        57.54
  214.72        2977.50           1598          22.00        70.62
  214.74        2977.75           1601          24.00        79.34
  214.77        2978.00           1605          17.00        48.82
  214.80        2978.25           1608          24.00        79.34
  214.82        2978.50           1611          23.00        74.98
  214.85        2978.75           1615          18.00        53.18
  214.88        2979.00           1618          26.00        88.06
  214.91        2979.25           1621          15.00        40.10
  214.93        2979.50           1625          20.00        61.90
  214.96        2979.75           1628          24.00        79.34
  214.99        2980.00           1631          17.00        48.82
  215.01        2980.25           1635          19.00        57.54
  215.04        2980.50           1638          22.00        70.62
  215.07        2980.75           1641          20.00        61.90
  215.10        2981.00           1645          19.00        57.54
  215.12        2981.25           1648          19.00        57.54
  215.15        2981.50           1651          20.00        61.90
  215.18        2981.75           1655          17.00        48.82
  215.21        2982.00           1658          22.00        70.62
  215.23        2982.25           1661          22.00        70.62
  215.26        2982.50           1665          18.00        53.18
  215.29        2982.75           1668          17.00        48.82
  215.31        2983.00           1671          17.00        48.82
  215.34        2983.25           1675          16.00        44.46
  215.37        2983.50           1678          19.00        57.54
  215.40        2983.75           1681          15.00        40.10
  215.42        2984.00           1685          16.00        44.46
HS scan finished at 03:35:37
end
