************************************************************
  HS Scan of (1) Internal mercury lamp
************************************************************
Integration time is 0.2294 seconds per sample
dh310817Tamanrasset 22.79-5.529 3.302118pr865
************************************************************
Dead Time -------------------------  2.8E-08 
Number of Cycles Used -------------  4 
Starting Wavelength (Angstroms) ---  2950 
Final Wavelength (Angstoms) -------  2984 
Wavelength Increment (Angstroms) --  .25 
Filter Wheel #1 Position ---------- (1) Ground quartz diffuser (ND=2.32)
Filter Wheel #2 Position ---------- (1) Neutral Density 0.494



************************************************************
HS scan start time = 03:32:46
Dark Count =  5.6 


Time (GMT)  Wavelength (Ang)  Step Number  Raw Counts  Counts/Second

  213.12        2950.00           1233          28.00        97.65
  213.18        2950.25           1236          21.00        67.13
  213.21        2950.50           1239          17.00        49.69
  213.23        2950.75           1242          17.00        49.69
  213.26        2951.00           1246          22.00        71.49
  213.29        2951.25           1249          20.00        62.77
  213.32        2951.50           1252          18.00        54.05
  213.34        2951.75           1256          21.00        67.13
  213.37        2952.00           1259          23.00        75.85
  213.40        2952.25           1262          19.00        58.41
  213.42        2952.50           1266          17.00        49.69
  213.45        2952.75           1269          20.00        62.77
  213.48        2953.00           1272          20.00        62.77
  213.51        2953.25           1276          19.00        58.41
  213.53        2953.50           1279          22.00        71.49
  213.56        2953.75           1282          24.00        80.21
  213.59        2954.00           1286          23.00        75.85
  213.61        2954.25           1289          20.00        62.77
  213.64        2954.50           1292          17.00        49.69
  213.67        2954.75           1295          24.00        80.21
  213.70        2955.00           1299          20.00        62.77
  213.72        2955.25           1302          20.00        62.77
  213.75        2955.50           1305          19.00        58.41
  213.78        2955.75           1309          18.00        54.05
  213.80        2956.00           1312          19.00        58.41
  213.83        2956.25           1315          16.00        45.34
  213.86        2956.50           1319          17.00        49.69
  213.89        2956.75           1322          20.00        62.77
  213.91        2957.00           1325          19.00        58.41
  213.94        2957.25           1329          21.00        67.13
  213.97        2957.50           1332          20.00        62.77
  213.99        2957.75           1335          19.00        58.41
  214.02        2958.00           1339          19.00        58.41
  214.05        2958.25           1342          18.00        54.05
  214.08        2958.50           1345          20.00        62.77
  214.10        2958.75           1348          17.00        49.69
  214.13        2959.00           1352          21.00        67.13
  214.16        2959.25           1355          20.00        62.77
  214.18        2959.50           1358          24.00        80.21
  214.21        2959.75           1362          27.00        93.29
  214.24        2960.00           1365          26.00        88.93
  214.27        2960.25           1368          29.00       102.01
  214.29        2960.50           1372          37.00       136.88
  214.32        2960.75           1375          49.00       189.19
  214.35        2961.00           1378         138.00       577.17
  214.37        2961.25           1382         695.00      3005.48
  214.40        2961.50           1385        1672.00      7265.65
  214.43        2961.75           1388        3347.00     14571.77
  214.46        2962.00           1392        6485.00     28267.35
  214.48        2962.25           1395        9525.00     41545.26
  214.51        2962.50           1398       12523.00     54649.39
  214.54        2962.75           1402       16326.00     71286.00
  214.57        2963.00           1405       19530.00     85314.28
  214.59        2963.25           1408       22802.00     99651.69
  214.62        2963.50           1412       26476.00    115764.40
  214.65        2963.75           1415       29381.00    128514.80
  214.67        2964.00           1418       32679.00    143001.30
  214.70        2964.25           1422       36715.00    160745.40
  214.73        2964.50           1425       39980.00    175112.80
  214.76        2964.75           1428       43025.00    188522.60
  214.78        2965.00           1431       46534.00    203988.30
  214.81        2965.25           1435       50817.00    222883.60
  214.84        2965.50           1438       53676.00    235507.80
  214.87        2965.75           1441       56986.00    250134.60
  214.89        2966.00           1445       60464.00    265516.80
  214.92        2966.25           1448       63084.00    277113.10
  214.95        2966.50           1451       65255.00    286727.80
  214.98        2966.75           1455       66550.00    292465.50
  215.00        2967.00           1458       67218.00    295425.80
  215.03        2967.25           1461       67223.00    295448.00
  215.06        2967.50           1465       66852.00    293803.80
  215.09        2967.75           1468       65762.00    288973.90
  215.11        2968.00           1471       64541.00    283565.10
  215.14        2968.25           1475       61350.00    269437.50
  215.17        2968.50           1478       58587.00    257213.70
  215.19        2968.75           1481       55457.00    243376.50
  215.22        2969.00           1485       51193.00    224543.30
  215.25        2969.25           1488       47812.00    209624.40
  215.28        2969.50           1491       44649.00    195678.60
  215.30        2969.75           1495       40547.00    177609.10
  215.33        2970.00           1498       37396.00    163741.20
  215.36        2970.25           1501       34294.00    150099.40
  215.39        2970.50           1505       29968.00    131092.40
  215.41        2970.75           1508       26861.00    117453.60
  215.44        2971.00           1511       23673.00    103470.20
  215.47        2971.25           1515       19641.00     85800.49
  215.50        2971.50           1518       16752.00     73150.55
  215.52        2971.75           1521       13598.00     59350.51
  215.55        2972.00           1525        9631.00     42008.41
  215.58        2972.25           1528        6687.00     29149.33
  215.60        2972.50           1531        4045.00     17617.23
  215.63        2972.75           1535        1649.00      7165.34
  215.66        2973.00           1538         628.00      2713.37
  215.69        2973.25           1541         166.00       699.23
  215.71        2973.50           1545          52.00       202.27
  215.74        2973.75           1548          39.00       145.60
  215.77        2974.00           1551          43.00       163.03
  215.80        2974.25           1555          30.00       106.36
  215.82        2974.50           1558          33.00       119.44
  215.85        2974.75           1561          23.00        75.85
  215.88        2975.00           1565          21.00        67.13
  215.90        2975.25           1568          26.00        88.93
  215.93        2975.50           1571          23.00        75.85
  215.96        2975.75           1575          21.00        67.13
  215.99        2976.00           1578          16.00        45.34
  216.01        2976.25           1581          25.00        84.57
  216.04        2976.50           1585          24.00        80.21
  216.07        2976.75           1588          23.00        75.85
  216.09        2977.00           1591          25.00        84.57
  216.12        2977.25           1595          24.00        80.21
  216.15        2977.50           1598          21.00        67.13
  216.18        2977.75           1601          18.00        54.05
  216.20        2978.00           1605          17.00        49.69
  216.23        2978.25           1608          24.00        80.21
  216.26        2978.50           1611          22.00        71.49
  216.29        2978.75           1615          20.00        62.77
  216.31        2979.00           1618          23.00        75.85
  216.34        2979.25           1621          22.00        71.49
  216.37        2979.50           1625          18.00        54.05
  216.39        2979.75           1628          25.00        84.57
  216.42        2980.00           1631          19.00        58.41
  216.45        2980.25           1635          20.00        62.77
  216.48        2980.50           1638          24.00        80.21
  216.50        2980.75           1641          19.00        58.41
  216.53        2981.00           1645          19.00        58.41
  216.56        2981.25           1648          23.00        75.85
  216.58        2981.50           1651          19.00        58.41
  216.61        2981.75           1655          26.00        88.93
  216.64        2982.00           1658          22.00        71.49
  216.67        2982.25           1661          19.00        58.41
  216.69        2982.50           1665          22.00        71.49
  216.72        2982.75           1668          22.00        71.49
  216.75        2983.00           1671          24.00        80.21
  216.77        2983.25           1675          15.00        40.98
  216.80        2983.50           1678          22.00        71.49
  216.83        2983.75           1681          20.00        62.77
  216.86        2984.00           1685          20.00        62.77
HS scan finished at 03:37:03
end
