************************************************************
  HS Scan of (1) Internal mercury lamp
************************************************************
Integration time is 0.2294 seconds per sample
dh010918Tamanrasset 22.79-5.529 4.974364pr865
************************************************************
Dead Time -------------------------  2.8E-08 
Number of Cycles Used -------------  4 
Starting Wavelength (Angstroms) ---  2950 
Final Wavelength (Angstoms) -------  2984 
Wavelength Increment (Angstroms) --  .25 
Filter Wheel #1 Position ---------- (1) Ground quartz diffuser (ND=2.32)
Filter Wheel #2 Position ---------- (1) Neutral Density 0.494



************************************************************
HS scan start time = 03:32:08
Dark Count =  6 


Time (GMT)  Wavelength (Ang)  Step Number  Raw Counts  Counts/Second

  212.49        2950.00           1233          22.00        69.75
  212.55        2950.25           1236          18.00        52.31
  212.58        2950.50           1239          18.00        52.31
  212.60        2950.75           1242          24.00        78.47
  212.63        2951.00           1246          22.00        69.75
  212.66        2951.25           1249          19.00        56.67
  212.69        2951.50           1252          19.00        56.67
  212.71        2951.75           1256          20.00        61.03
  212.74        2952.00           1259          22.00        69.75
  212.77        2952.25           1262          23.00        74.11
  212.79        2952.50           1266          20.00        61.03
  212.82        2952.75           1269          17.00        47.95
  212.85        2953.00           1272          21.00        65.39
  212.88        2953.25           1276          17.00        47.95
  212.90        2953.50           1279          22.00        69.75
  212.93        2953.75           1282          21.00        65.39
  212.96        2954.00           1286          17.00        47.95
  212.98        2954.25           1289          18.00        52.31
  213.01        2954.50           1292          19.00        56.67
  213.04        2954.75           1295          19.00        56.67
  213.07        2955.00           1299          20.00        61.03
  213.09        2955.25           1302          17.00        47.95
  213.12        2955.50           1305          15.00        39.23
  213.15        2955.75           1309          19.00        56.67
  213.18        2956.00           1312          20.00        61.03
  213.20        2956.25           1315          17.00        47.95
  213.23        2956.50           1319          17.00        47.95
  213.26        2956.75           1322          18.00        52.31
  213.28        2957.00           1325          20.00        61.03
  213.31        2957.25           1329          15.00        39.23
  213.34        2957.50           1332          17.00        47.95
  213.36        2957.75           1335          22.00        69.75
  213.39        2958.00           1339          18.00        52.31
  213.42        2958.25           1342          20.00        61.03
  213.45        2958.50           1345          19.00        56.67
  213.47        2958.75           1348          20.00        61.03
  213.50        2959.00           1352          23.00        74.11
  213.53        2959.25           1355          20.00        61.03
  213.56        2959.50           1358          22.00        69.75
  213.58        2959.75           1362          22.00        69.75
  213.61        2960.00           1365          26.00        87.18
  213.64        2960.25           1368          30.00       104.62
  213.66        2960.50           1372          36.00       130.78
  213.69        2960.75           1375          44.00       165.65
  213.72        2961.00           1378         127.00       527.47
  213.75        2961.25           1382         662.00      2859.86
  213.77        2961.50           1385        1499.00      6509.47
  213.80        2961.75           1388        3052.00     13283.06
  213.83        2962.00           1392        6070.00     26453.77
  213.85        2962.25           1395        9009.00     39289.06
  213.88        2962.50           1398       11988.00     52308.47
  213.91        2962.75           1402       15735.00     68697.85
  213.94        2963.00           1405       18850.00     82334.32
  213.96        2963.25           1408       21761.00     95087.18
  213.99        2963.50           1412       25740.00    112533.60
  214.02        2963.75           1415       28763.00    125799.80
  214.05        2964.00           1418       31722.00    138794.70
  214.07        2964.25           1422       35728.00    156402.70
  214.10        2964.50           1425       38621.00    169129.50
  214.13        2964.75           1428       41934.00    183715.10
  214.15        2965.00           1431       44893.00    196752.30
  214.18        2965.25           1435       49181.00    215661.90
  214.21        2965.50           1438       52028.00    228228.00
  214.24        2965.75           1441       55018.00    241434.90
  214.27        2966.00           1445       59348.00    260577.90
  214.29        2966.25           1448       61781.00    271343.20
  214.32        2966.50           1451       63972.00    281043.40
  214.35        2966.75           1455       65648.00    288467.10
  214.37        2967.00           1458       66182.00    290833.00
  214.40        2967.25           1461       66351.00    291581.90
  214.43        2967.50           1465       66155.00    290713.40
  214.46        2967.75           1468       65634.00    288405.00
  214.48        2968.00           1471       64451.00    283164.80
  214.51        2968.25           1475       61430.00    269789.70
  214.54        2968.50           1478       59180.00    259834.70
  214.57        2968.75           1481       55831.00    245027.60
  214.59        2969.00           1485       51827.00    227340.50
  214.62        2969.25           1488       48456.00    212463.30
  214.65        2969.50           1491       45122.00    197761.60
  214.67        2969.75           1495       40899.00    179157.20
  214.70        2970.00           1498       37860.00    165780.80
  214.73        2970.25           1501       34485.00    150937.30
  214.76        2970.50           1505       30497.00    133413.80
  214.78        2970.75           1508       27231.00    119075.50
  214.81        2971.00           1511       24285.00    106152.00
  214.84        2971.25           1515       20216.00     88317.52
  214.87        2971.50           1518       17323.00     75648.30
  214.89        2971.75           1521       14446.00     63058.06
  214.92        2972.00           1525       10105.00     44077.90
  214.95        2972.25           1528        7066.00     30802.49
  214.98        2972.50           1531        4618.00     20115.95
  215.00        2972.75           1535        1971.00      8567.88
  215.03        2973.00           1538         744.00      3217.38
  215.06        2973.25           1541         222.00       941.61
  215.09        2973.50           1545          59.00       231.04
  215.11        2973.75           1548          41.00       152.57
  215.14        2974.00           1551          34.00       122.06
  215.17        2974.25           1555          31.00       108.98
  215.19        2974.50           1558          29.00       100.26
  215.22        2974.75           1561          26.00        87.18
  215.25        2975.00           1565          21.00        65.39
  215.28        2975.25           1568          24.00        78.47
  215.30        2975.50           1571          29.00       100.26
  215.33        2975.75           1575          18.00        52.31
  215.36        2976.00           1578          20.00        61.03
  215.38        2976.25           1581          23.00        74.11
  215.41        2976.50           1585          24.00        78.47
  215.44        2976.75           1588          18.00        52.31
  215.47        2977.00           1591          22.00        69.75
  215.49        2977.25           1595          24.00        78.47
  215.52        2977.50           1598          20.00        61.03
  215.55        2977.75           1601          23.00        74.11
  215.57        2978.00           1605          20.00        61.03
  215.60        2978.25           1608          26.00        87.18
  215.63        2978.50           1611          27.00        91.54
  215.66        2978.75           1615          21.00        65.39
  215.68        2979.00           1618          24.00        78.47
  215.71        2979.25           1621          21.00        65.39
  215.74        2979.50           1625          20.00        61.03
  215.76        2979.75           1628          23.00        74.11
  215.79        2980.00           1631          21.00        65.39
  215.82        2980.25           1635          26.00        87.18
  215.85        2980.50           1638          19.00        56.67
  215.87        2980.75           1641          23.00        74.11
  215.90        2981.00           1645          24.00        78.47
  215.93        2981.25           1648          23.00        74.11
  215.96        2981.50           1651          20.00        61.03
  215.98        2981.75           1655          17.00        47.95
  216.01        2982.00           1658          21.00        65.39
  216.04        2982.25           1661          15.00        39.23
  216.06        2982.50           1665          20.00        61.03
  216.09        2982.75           1668          22.00        69.75
  216.12        2983.00           1671          19.00        56.67
  216.15        2983.25           1675          19.00        56.67
  216.17        2983.50           1678          21.00        65.39
  216.20        2983.75           1681          18.00        52.31
  216.23        2984.00           1685          21.00        65.39
HS scan finished at 03:36:25
end
