************************************************************
  HS Scan of (1) Internal mercury lamp
************************************************************
Integration time is 0.2294 seconds per sample
dh030918Tamanrasset 22.79-5.529 4.974364pr865
************************************************************
Dead Time -------------------------  2.8E-08 
Number of Cycles Used -------------  4 
Starting Wavelength (Angstroms) ---  2950 
Final Wavelength (Angstoms) -------  2984 
Wavelength Increment (Angstroms) --  .25 
Filter Wheel #1 Position ---------- (1) Ground quartz diffuser (ND=2.32)
Filter Wheel #2 Position ---------- (1) Neutral Density 0.494



************************************************************
HS scan start time = 03:33:10
Dark Count =  5.1 


Time (GMT)  Wavelength (Ang)  Step Number  Raw Counts  Counts/Second

  213.53        2950.00           1233          17.00        51.87
  213.59        2950.25           1236          16.00        47.52
  213.62        2950.50           1239          24.00        82.39
  213.65        2950.75           1242          20.00        64.95
  213.68        2951.00           1246          17.00        51.87
  213.70        2951.25           1249          16.00        47.52
  213.73        2951.50           1252          19.00        60.59
  213.76        2951.75           1256          22.00        73.67
  213.78        2952.00           1259          17.00        51.87
  213.81        2952.25           1262          24.00        82.39
  213.84        2952.50           1266          19.00        60.59
  213.87        2952.75           1269          21.00        69.31
  213.89        2953.00           1272          19.00        60.59
  213.92        2953.25           1276          26.00        91.11
  213.95        2953.50           1279          16.00        47.52
  213.97        2953.75           1282          21.00        69.31
  214.00        2954.00           1286          22.00        73.67
  214.03        2954.25           1289          19.00        60.59
  214.06        2954.50           1292          19.00        60.59
  214.08        2954.75           1295          22.00        73.67
  214.11        2955.00           1299          22.00        73.67
  214.14        2955.25           1302          20.00        64.95
  214.16        2955.50           1305          25.00        86.75
  214.19        2955.75           1309          21.00        69.31
  214.22        2956.00           1312          14.00        38.80
  214.24        2956.25           1315          22.00        73.67
  214.27        2956.50           1319          16.00        47.52
  214.30        2956.75           1322          19.00        60.59
  214.33        2957.00           1325          16.00        47.52
  214.35        2957.25           1329          19.00        60.59
  214.38        2957.50           1332          17.00        51.87
  214.41        2957.75           1335          20.00        64.95
  214.44        2958.00           1339          20.00        64.95
  214.46        2958.25           1342          17.00        51.87
  214.49        2958.50           1345          13.00        34.44
  214.52        2958.75           1348          22.00        73.67
  214.54        2959.00           1352          21.00        69.31
  214.57        2959.25           1355          18.00        56.23
  214.60        2959.50           1358          27.00        95.47
  214.63        2959.75           1362          26.00        91.11
  214.65        2960.00           1365          25.00        86.75
  214.68        2960.25           1368          31.00       112.90
  214.71        2960.50           1372          40.00       152.14
  214.73        2960.75           1375          54.00       213.17
  214.76        2961.00           1378         202.00       858.35
  214.79        2961.25           1382         876.00      3796.83
  214.82        2961.50           1385        2033.00      8842.21
  214.84        2961.75           1388        3811.00     16598.39
  214.87        2962.00           1392        7254.00     31627.39
  214.90        2962.25           1395       10115.00     44125.55
  214.92        2962.50           1398       12943.00     56488.14
  214.95        2962.75           1402       17046.00     74439.66
  214.98        2963.00           1405       19954.00     87173.72
  215.01        2963.25           1408       23224.00    101503.90
  215.03        2963.50           1412       26828.00    117311.00
  215.06        2963.75           1415       29757.00    130168.00
  215.09        2964.00           1418       32805.00    143557.10
  215.12        2964.25           1422       37028.00    162124.40
  215.14        2964.50           1425       39562.00    173275.00
  215.17        2964.75           1428       42845.00    187731.80
  215.20        2965.00           1431       45999.00    201631.60
  215.23        2965.25           1435       49806.00    218423.80
  215.25        2965.50           1438       52917.00    232157.70
  215.28        2965.75           1441       56058.00    246034.80
  215.31        2966.00           1445       59971.00    263337.80
  215.34        2966.25           1448       62261.00    273471.80
  215.36        2966.50           1451       63843.00    280476.10
  215.39        2966.75           1455       65150.00    286264.90
  215.42        2967.00           1458       65457.00    287624.90
  215.44        2967.25           1461       65414.00    287434.40
  215.47        2967.50           1465       65187.00    286428.80
  215.50        2967.75           1468       64210.00    282101.40
  215.53        2968.00           1471       62650.00    275193.90
  215.55        2968.25           1475       59683.00    262063.70
  215.58        2968.50           1478       57015.00    250265.00
  215.61        2968.75           1481       53874.00    236384.60
  215.64        2969.00           1485       49623.00    217616.20
  215.66        2969.25           1488       46706.00    204748.90
  215.69        2969.50           1491       43542.00    190802.60
  215.72        2969.75           1495       39348.00    172333.10
  215.75        2970.00           1498       36179.00    158390.10
  215.77        2970.25           1501       32900.00    143974.60
  215.80        2970.50           1505       28681.00    125443.80
  215.83        2970.75           1508       25633.00    112068.20
  215.85        2971.00           1511       22905.00    100105.40
  215.88        2971.25           1515       18784.00     82049.23
  215.91        2971.50           1518       15716.00     68618.65
  215.94        2971.75           1521       12722.00     55521.74
  215.96        2972.00           1525        8878.00     38720.69
  215.99        2972.25           1528        6096.00     26571.20
  216.02        2972.50           1531        3638.00     15843.56
  216.05        2972.75           1535        1344.00      5837.48
  216.07        2973.00           1538         460.00      1983.11
  216.10        2973.25           1541         130.00       544.47
  216.13        2973.50           1545          43.00       165.21
  216.16        2973.75           1548          39.00       147.78
  216.18        2974.00           1551          32.00       117.26
  216.21        2974.25           1555          26.00        91.11
  216.24        2974.50           1558          32.00       117.26
  216.26        2974.75           1561          30.00       108.54
  216.29        2975.00           1565          23.00        78.03
  216.32        2975.25           1568          20.00        64.95
  216.34        2975.50           1571          24.00        82.39
  216.37        2975.75           1575          24.00        82.39
  216.40        2976.00           1578          17.00        51.87
  216.43        2976.25           1581          23.00        78.03
  216.45        2976.50           1585          19.00        60.59
  216.48        2976.75           1588          25.00        86.75
  216.51        2977.00           1591          21.00        69.31
  216.54        2977.25           1595          21.00        69.31
  216.56        2977.50           1598          23.00        78.03
  216.59        2977.75           1601          26.00        91.11
  216.62        2978.00           1605          23.00        78.03
  216.64        2978.25           1608          25.00        86.75
  216.67        2978.50           1611          24.00        82.39
  216.70        2978.75           1615          20.00        64.95
  216.73        2979.00           1618          21.00        69.31
  216.75        2979.25           1621          17.00        51.87
  216.78        2979.50           1625          25.00        86.75
  216.81        2979.75           1628          21.00        69.31
  216.83        2980.00           1631          23.00        78.03
  216.86        2980.25           1635          25.00        86.75
  216.89        2980.50           1638          18.00        56.23
  216.91        2980.75           1641          23.00        78.03
  216.94        2981.00           1645          22.00        73.67
  216.97        2981.25           1648          23.00        78.03
  217.00        2981.50           1651          21.00        69.31
  217.02        2981.75           1655          20.00        64.95
  217.05        2982.00           1658          19.00        60.59
  217.08        2982.25           1661          22.00        73.67
  217.11        2982.50           1665          20.00        64.95
  217.13        2982.75           1668          22.00        73.67
  217.16        2983.00           1671          18.00        56.23
  217.19        2983.25           1675          19.00        60.59
  217.21        2983.50           1678          20.00        64.95
  217.24        2983.75           1681          17.00        51.87
  217.27        2984.00           1685          21.00        69.31
HS scan finished at 03:37:27
end
