************************************************************
  HS Scan of (1) Internal mercury lamp
************************************************************
Integration time is 0.2294 seconds per sample
dh030917Tamanrasset 22.79-5.529 3.184857pr865
************************************************************
Dead Time -------------------------  2.8E-08 
Number of Cycles Used -------------  4 
Starting Wavelength (Angstroms) ---  2950 
Final Wavelength (Angstoms) -------  2984 
Wavelength Increment (Angstroms) --  .25 
Filter Wheel #1 Position ---------- (1) Ground quartz diffuser (ND=2.32)
Filter Wheel #2 Position ---------- (1) Neutral Density 0.494



************************************************************
HS scan start time = 03:33:49
Dark Count =  4.8 


Time (GMT)  Wavelength (Ang)  Step Number  Raw Counts  Counts/Second

  214.17        2950.00           1233          17.00        53.18
  214.23        2950.25           1236          23.00        79.34
  214.26        2950.50           1239          15.00        44.46
  214.29        2950.75           1242          19.00        61.90
  214.32        2951.00           1246          23.00        79.34
  214.34        2951.25           1249          23.00        79.34
  214.37        2951.50           1252          25.00        88.06
  214.40        2951.75           1256          18.00        57.54
  214.42        2952.00           1259          20.00        66.26
  214.45        2952.25           1262          18.00        57.54
  214.48        2952.50           1266          23.00        79.34
  214.51        2952.75           1269          20.00        66.26
  214.53        2953.00           1272          19.00        61.90
  214.56        2953.25           1276          19.00        61.90
  214.59        2953.50           1279          21.00        70.62
  214.61        2953.75           1282          23.00        79.34
  214.64        2954.00           1286          22.00        74.98
  214.67        2954.25           1289          19.00        61.90
  214.69        2954.50           1292          20.00        66.26
  214.72        2954.75           1295          20.00        66.26
  214.75        2955.00           1299          22.00        74.98
  214.78        2955.25           1302          17.00        53.18
  214.80        2955.50           1305          22.00        74.98
  214.83        2955.75           1309          18.00        57.54
  214.86        2956.00           1312          20.00        66.26
  214.89        2956.25           1315          17.00        53.18
  214.91        2956.50           1319          17.00        53.18
  214.94        2956.75           1322          20.00        66.26
  214.97        2957.00           1325          17.00        53.18
  214.99        2957.25           1329          20.00        66.26
  215.02        2957.50           1332          20.00        66.26
  215.05        2957.75           1335          17.00        53.18
  215.08        2958.00           1339          19.00        61.90
  215.10        2958.25           1342          21.00        70.62
  215.13        2958.50           1345          17.00        53.18
  215.16        2958.75           1348          16.00        48.82
  215.18        2959.00           1352          17.00        53.18
  215.21        2959.25           1355          21.00        70.62
  215.24        2959.50           1358          21.00        70.62
  215.27        2959.75           1362          25.00        88.06
  215.29        2960.00           1365          26.00        92.42
  215.32        2960.25           1368          29.00       105.49
  215.35        2960.50           1372          37.00       140.37
  215.37        2960.75           1375          41.00       157.80
  215.40        2961.00           1378          97.00       401.92
  215.43        2961.25           1382         503.00      2171.88
  215.46        2961.50           1385        1267.00      5503.03
  215.48        2961.75           1388        2594.00     11290.40
  215.51        2962.00           1392        5379.00     23442.59
  215.54        2962.25           1395        8091.00     35284.19
  215.56        2962.50           1398       10870.00     47426.50
  215.59        2962.75           1402       14514.00     63360.78
  215.62        2963.00           1405       17440.00     76165.75
  215.65        2963.25           1408       20264.00     88533.06
  215.67        2963.50           1412       23929.00    104596.20
  215.70        2963.75           1415       26815.00    117255.30
  215.73        2964.00           1418       29969.00    131100.30
  215.76        2964.25           1422       33979.00    148718.30
  215.78        2964.50           1425       36827.00    161241.60
  215.81        2964.75           1428       39882.00    174684.90
  215.84        2965.00           1431       42818.00    187614.20
  215.86        2965.25           1435       46549.00    204058.00
  215.89        2965.50           1438       49985.00    219215.00
  215.92        2965.75           1441       52608.00    230794.40
  215.95        2966.00           1445       56304.00    247123.40
  215.97        2966.25           1448       59122.00    259583.50
  216.00        2966.50           1451       61138.00    268502.80
  216.03        2966.75           1455       62955.00    276545.50
  216.06        2967.00           1458       63969.00    281035.40
  216.08        2967.25           1461       63789.00    280238.30
  216.11        2967.50           1465       63840.00    280464.10
  216.14        2967.75           1468       63267.00    277926.90
  216.17        2968.00           1471       61884.00    271804.40
  216.19        2968.25           1475       59357.00    260623.00
  216.22        2968.50           1478       57194.00    251057.70
  216.25        2968.75           1481       53984.00    236871.90
  216.28        2969.00           1485       50387.00    220989.20
  216.30        2969.25           1488       47155.00    206730.30
  216.33        2969.50           1491       44253.00    193936.90
  216.36        2969.75           1495       39939.00    174935.90
  216.38        2970.00           1498       36985.00    161936.60
  216.41        2970.25           1501       33901.00    148375.40
  216.44        2970.50           1505       29900.00    130797.20
  216.47        2970.75           1508       26663.00    116588.40
  216.49        2971.00           1511       23684.00    103522.00
  216.52        2971.25           1515       19689.00     86014.22
  216.55        2971.50           1518       16690.00     72882.66
  216.58        2971.75           1521       13902.00     60683.67
  216.60        2972.00           1525        9894.00     43161.11
  216.63        2972.25           1528        7111.00     31004.24
  216.66        2972.50           1531        4659.00     20300.11
  216.69        2972.75           1535        1923.00      8363.77
  216.71        2973.00           1538         757.00      3279.29
  216.74        2973.25           1541         236.00      1007.88
  216.77        2973.50           1545          56.00       223.19
  216.79        2973.75           1548          38.00       144.73
  216.82        2974.00           1551          35.00       131.65
  216.85        2974.25           1555          31.00       114.21
  216.88        2974.50           1558          34.00       127.29
  216.90        2974.75           1561          29.00       105.49
  216.93        2975.00           1565          25.00        88.06
  216.96        2975.25           1568          23.00        79.34
  216.98        2975.50           1571          25.00        88.06
  217.01        2975.75           1575          22.00        74.98
  217.04        2976.00           1578          23.00        79.34
  217.07        2976.25           1581          24.00        83.70
  217.09        2976.50           1585          22.00        74.98
  217.12        2976.75           1588          26.00        92.42
  217.15        2977.00           1591          19.00        61.90
  217.17        2977.25           1595          20.00        66.26
  217.20        2977.50           1598          21.00        70.62
  217.23        2977.75           1601          21.00        70.62
  217.26        2978.00           1605          24.00        83.70
  217.28        2978.25           1608          20.00        66.26
  217.31        2978.50           1611          24.00        83.70
  217.34        2978.75           1615          17.00        53.18
  217.37        2979.00           1618          25.00        88.06
  217.39        2979.25           1621          26.00        92.42
  217.42        2979.50           1625          24.00        83.70
  217.45        2979.75           1628          22.00        74.98
  217.47        2980.00           1631          23.00        79.34
  217.50        2980.25           1635          26.00        92.42
  217.53        2980.50           1638          17.00        53.18
  217.56        2980.75           1641          23.00        79.34
  217.58        2981.00           1645          18.00        57.54
  217.61        2981.25           1648          24.00        83.70
  217.64        2981.50           1651          21.00        70.62
  217.67        2981.75           1655          21.00        70.62
  217.69        2982.00           1658          23.00        79.34
  217.72        2982.25           1661          23.00        79.34
  217.75        2982.50           1665          19.00        61.90
  217.77        2982.75           1668          21.00        70.62
  217.80        2983.00           1671          24.00        83.70
  217.83        2983.25           1675          21.00        70.62
  217.86        2983.50           1678          20.00        66.26
  217.88        2983.75           1681          23.00        79.34
  217.91        2984.00           1685          18.00        57.54
HS scan finished at 03:38:06
end
