************************************************************
  HS Scan of (1) Internal mercury lamp
************************************************************
Integration time is 0.2294 seconds per sample
dh020918Tamanrasset 22.79-5.529 4.974364pr865
************************************************************
Dead Time -------------------------  2.8E-08 
Number of Cycles Used -------------  4 
Starting Wavelength (Angstroms) ---  2950 
Final Wavelength (Angstoms) -------  2984 
Wavelength Increment (Angstroms) --  .25 
Filter Wheel #1 Position ---------- (1) Ground quartz diffuser (ND=2.32)
Filter Wheel #2 Position ---------- (1) Neutral Density 0.494



************************************************************
HS scan start time = 03:32:09
Dark Count =  4.9 


Time (GMT)  Wavelength (Ang)  Step Number  Raw Counts  Counts/Second

  212.50        2950.00           1233          22.00        74.54
  212.56        2950.25           1236          21.00        70.18
  212.59        2950.50           1239          24.00        83.26
  212.62        2950.75           1242          20.00        65.82
  212.65        2951.00           1246          18.00        57.11
  212.67        2951.25           1249          22.00        74.54
  212.70        2951.50           1252          19.00        61.46
  212.73        2951.75           1256          18.00        57.11
  212.75        2952.00           1259          16.00        48.39
  212.78        2952.25           1262          20.00        65.82
  212.81        2952.50           1266          23.00        78.90
  212.84        2952.75           1269          23.00        78.90
  212.86        2953.00           1272          19.00        61.46
  212.89        2953.25           1276          19.00        61.46
  212.92        2953.50           1279          19.00        61.46
  212.94        2953.75           1282          21.00        70.18
  212.97        2954.00           1286          20.00        65.82
  213.00        2954.25           1289          19.00        61.46
  213.03        2954.50           1292          23.00        78.90
  213.05        2954.75           1295          20.00        65.82
  213.08        2955.00           1299          19.00        61.46
  213.11        2955.25           1302          17.00        52.75
  213.13        2955.50           1305          17.00        52.75
  213.16        2955.75           1309          18.00        57.11
  213.19        2956.00           1312          23.00        78.90
  213.22        2956.25           1315          25.00        87.62
  213.24        2956.50           1319          23.00        78.90
  213.27        2956.75           1322          21.00        70.18
  213.30        2957.00           1325          21.00        70.18
  213.32        2957.25           1329          21.00        70.18
  213.35        2957.50           1332          23.00        78.90
  213.38        2957.75           1335          21.00        70.18
  213.41        2958.00           1339          18.00        57.11
  213.43        2958.25           1342          18.00        57.11
  213.46        2958.50           1345          21.00        70.18
  213.49        2958.75           1348          18.00        57.11
  213.51        2959.00           1352          16.00        48.39
  213.54        2959.25           1355          19.00        61.46
  213.57        2959.50           1358          25.00        87.62
  213.60        2959.75           1362          26.00        91.98
  213.62        2960.00           1365          22.00        74.54
  213.65        2960.25           1368          24.00        83.26
  213.68        2960.50           1372          31.00       113.78
  213.70        2960.75           1375          44.00       170.45
  213.73        2961.00           1378         110.00       458.16
  213.76        2961.25           1382         496.00      2140.93
  213.79        2961.50           1385        1342.00      5829.64
  213.81        2961.75           1388        2931.00     12760.01
  213.84        2962.00           1392        5863.00     25554.90
  213.87        2962.25           1395        8556.00     37314.90
  213.90        2962.50           1398       11682.00     50975.50
  213.92        2962.75           1402       15473.00     67556.18
  213.95        2963.00           1405       18361.00     80197.76
  213.98        2963.25           1408       21458.00     93764.16
  214.00        2963.50           1412       25426.00    111161.10
  214.03        2963.75           1415       28757.00    125778.30
  214.06        2964.00           1418       31767.00    138997.20
  214.09        2964.25           1422       35696.00    156266.80
  214.11        2964.50           1425       38757.00    169732.80
  214.14        2964.75           1428       41999.00    184006.20
  214.17        2965.00           1431       44850.00    196567.60
  214.20        2965.25           1435       49188.00    215697.70
  214.22        2965.50           1438       52483.00    230242.00
  214.25        2965.75           1441       55440.00    243304.50
  214.28        2966.00           1445       59486.00    261193.20
  214.31        2966.25           1448       61803.00    271445.50
  214.33        2966.50           1451       63828.00    280410.50
  214.36        2966.75           1455       65587.00    288201.70
  214.39        2967.00           1458       66488.00    292193.80
  214.41        2967.25           1461       66359.00    291622.20
  214.44        2967.50           1465       66196.00    290900.00
  214.47        2967.75           1468       65479.00    287723.20
  214.50        2968.00           1471       63988.00    281119.10
  214.52        2968.25           1475       61739.00    271162.20
  214.55        2968.50           1478       58725.00    257827.20
  214.58        2968.75           1481       55658.00    244267.90
  214.61        2969.00           1485       51648.00    226555.10
  214.63        2969.25           1488       48394.00    212194.70
  214.66        2969.50           1491       45201.00    198114.70
  214.69        2969.75           1495       40741.00    178466.30
  214.72        2970.00           1498       37934.00    166111.30
  214.74        2970.25           1501       34834.00    152476.50
  214.77        2970.50           1505       30788.00    134696.70
  214.80        2970.75           1508       27459.00    120080.90
  214.83        2971.00           1511       24526.00    107213.70
  214.85        2971.25           1515       20174.00     88138.35
  214.88        2971.50           1518       17111.00     74725.06
  214.91        2971.75           1521       14347.00     62629.78
  214.93        2972.00           1525       10206.00     44524.08
  214.96        2972.25           1528        7214.00     31453.58
  214.99        2972.50           1531        4641.00     20221.12
  215.02        2972.75           1535        1975.00      8590.12
  215.04        2973.00           1538         759.00      3287.57
  215.07        2973.25           1541         220.00       937.69
  215.10        2973.50           1545          59.00       235.83
  215.13        2973.75           1548          44.00       170.45
  215.15        2974.00           1551          35.00       131.21
  215.18        2974.25           1555          33.00       122.49
  215.21        2974.50           1558          27.00        96.34
  215.23        2974.75           1561          27.00        96.34
  215.26        2975.00           1565          24.00        83.26
  215.29        2975.25           1568          23.00        78.90
  215.32        2975.50           1571          18.00        57.11
  215.34        2975.75           1575          25.00        87.62
  215.37        2976.00           1578          25.00        87.62
  215.40        2976.25           1581          27.00        96.34
  215.42        2976.50           1585          23.00        78.90
  215.45        2976.75           1588          23.00        78.90
  215.48        2977.00           1591          21.00        70.18
  215.51        2977.25           1595          23.00        78.90
  215.53        2977.50           1598          24.00        83.26
  215.56        2977.75           1601          22.00        74.54
  215.59        2978.00           1605          22.00        74.54
  215.61        2978.25           1608          24.00        83.26
  215.64        2978.50           1611          23.00        78.90
  215.67        2978.75           1615          18.00        57.11
  215.70        2979.00           1618          23.00        78.90
  215.72        2979.25           1621          22.00        74.54
  215.75        2979.50           1625          22.00        74.54
  215.78        2979.75           1628          23.00        78.90
  215.80        2980.00           1631          24.00        83.26
  215.83        2980.25           1635          19.00        61.46
  215.86        2980.50           1638          21.00        70.18
  215.89        2980.75           1641          30.00       109.42
  215.91        2981.00           1645          22.00        74.54
  215.94        2981.25           1648          19.00        61.46
  215.97        2981.50           1651          22.00        74.54
  215.99        2981.75           1655          21.00        70.18
  216.02        2982.00           1658          18.00        57.11
  216.05        2982.25           1661          18.00        57.11
  216.08        2982.50           1665          22.00        74.54
  216.10        2982.75           1668          18.00        57.11
  216.13        2983.00           1671          23.00        78.90
  216.16        2983.25           1675          23.00        78.90
  216.18        2983.50           1678          21.00        70.18
  216.21        2983.75           1681          22.00        74.54
  216.24        2984.00           1685          18.00        57.11
HS scan finished at 03:36:25
end
