************************************************************
  HS Scan of (1) Internal mercury lamp
************************************************************
Integration time is 0.2294 seconds per sample
dh040918Tamanrasset 22.79-5.529 4.974364pr865
************************************************************
Dead Time -------------------------  2.8E-08 
Number of Cycles Used -------------  4 
Starting Wavelength (Angstroms) ---  2950 
Final Wavelength (Angstoms) -------  2984 
Wavelength Increment (Angstroms) --  .25 
Filter Wheel #1 Position ---------- (1) Ground quartz diffuser (ND=2.32)
Filter Wheel #2 Position ---------- (1) Neutral Density 0.494



************************************************************
HS scan start time = 03:33:50
Dark Count =  4.9 


Time (GMT)  Wavelength (Ang)  Step Number  Raw Counts  Counts/Second

  214.20        2950.00           1233          21.00        70.18
  214.26        2950.25           1236          19.00        61.46
  214.29        2950.50           1239          19.00        61.46
  214.32        2950.75           1242          17.00        52.75
  214.34        2951.00           1246          20.00        65.82
  214.37        2951.25           1249          19.00        61.46
  214.40        2951.50           1252          16.00        48.39
  214.42        2951.75           1256          19.00        61.46
  214.45        2952.00           1259          23.00        78.90
  214.48        2952.25           1262          20.00        65.82
  214.51        2952.50           1266          19.00        61.46
  214.53        2952.75           1269          22.00        74.54
  214.56        2953.00           1272          18.00        57.11
  214.59        2953.25           1276          21.00        70.18
  214.61        2953.50           1279          19.00        61.46
  214.64        2953.75           1282          19.00        61.46
  214.67        2954.00           1286          22.00        74.54
  214.70        2954.25           1289          22.00        74.54
  214.72        2954.50           1292          22.00        74.54
  214.75        2954.75           1295          18.00        57.11
  214.78        2955.00           1299          21.00        70.18
  214.80        2955.25           1302          21.00        70.18
  214.83        2955.50           1305          18.00        57.11
  214.86        2955.75           1309          18.00        57.11
  214.89        2956.00           1312          19.00        61.46
  214.91        2956.25           1315          19.00        61.46
  214.94        2956.50           1319          23.00        78.90
  214.97        2956.75           1322          18.00        57.11
  214.99        2957.00           1325          22.00        74.54
  215.02        2957.25           1329          19.00        61.46
  215.05        2957.50           1332          22.00        74.54
  215.08        2957.75           1335          17.00        52.75
  215.10        2958.00           1339          16.00        48.39
  215.13        2958.25           1342          23.00        78.90
  215.16        2958.50           1345          19.00        61.46
  215.18        2958.75           1348          16.00        48.39
  215.21        2959.00           1352          22.00        74.54
  215.24        2959.25           1355          22.00        74.54
  215.27        2959.50           1358          23.00        78.90
  215.29        2959.75           1362          31.00       113.78
  215.32        2960.00           1365          24.00        83.26
  215.35        2960.25           1368          31.00       113.78
  215.37        2960.50           1372          38.00       144.29
  215.40        2960.75           1375          46.00       179.16
  215.43        2961.00           1378         156.00       658.69
  215.46        2961.25           1382         745.00      3226.53
  215.48        2961.50           1385        1743.00      7578.33
  215.51        2961.75           1388        3450.00     15024.19
  215.54        2962.00           1392        6723.00     29309.57
  215.57        2962.25           1395        9745.00     42509.60
  215.59        2962.50           1398       13088.00     57123.12
  215.62        2962.75           1402       17082.00     74598.12
  215.65        2963.00           1405       20318.00     88769.19
  215.67        2963.25           1408       23149.00    101175.90
  215.70        2963.50           1412       27522.00    120357.40
  215.73        2963.75           1415       30520.00    133519.60
  215.76        2964.00           1418       33711.00    147539.80
  215.78        2964.25           1422       37805.00    165543.70
  215.81        2964.50           1425       41055.00    179848.90
  215.84        2964.75           1428       44110.00    193306.30
  215.87        2965.00           1431       47424.00    207916.20
  215.89        2965.25           1435       51821.00    227318.90
  215.92        2965.50           1438       54809.00    240516.20
  215.95        2965.75           1441       58432.00    256531.30
  215.97        2966.00           1445       62104.00    272777.80
  216.00        2966.25           1448       65011.00    285650.10
  216.03        2966.50           1451       66928.00    294143.70
  216.06        2966.75           1455       68511.00    301160.50
  216.08        2967.00           1458       68998.00    303319.80
  216.11        2967.25           1461       69257.00    304468.30
  216.14        2967.50           1465       68690.00    301954.20
  216.17        2967.75           1468       68238.00    299950.20
  216.19        2968.00           1471       66741.00    293315.00
  216.22        2968.25           1475       63832.00    280428.30
  216.25        2968.50           1478       61114.00    268396.20
  216.28        2968.75           1481       57525.00    252520.70
  216.30        2969.00           1485       53611.00    235223.80
  216.33        2969.25           1488       50009.00    219320.50
  216.36        2969.50           1491       46687.00    204666.10
  216.38        2969.75           1495       42407.00    185803.30
  216.41        2970.00           1498       39057.00    171053.20
  216.44        2970.25           1501       35739.00    156455.90
  216.47        2970.50           1505       31099.00    136062.70
  216.49        2970.75           1508       27900.00    122016.40
  216.52        2971.00           1511       24871.00    108726.80
  216.55        2971.25           1515       20769.00     90745.09
  216.58        2971.50           1518       17503.00     76441.12
  216.60        2971.75           1521       14162.00     61820.52
  216.63        2972.00           1525       10138.00     44226.92
  216.66        2972.25           1528        7296.00     31811.67
  216.69        2972.50           1531        4561.00     19872.00
  216.71        2972.75           1535        1874.00      8149.64
  216.74        2973.00           1538         734.00      3178.57
  216.77        2973.25           1541         197.00       837.42
  216.79        2973.50           1545          53.00       209.68
  216.82        2973.75           1548          44.00       170.45
  216.85        2974.00           1551          29.00       105.06
  216.88        2974.25           1555          30.00       109.42
  216.90        2974.50           1558          32.00       118.13
  216.93        2974.75           1561          25.00        87.62
  216.96        2975.00           1565          24.00        83.26
  216.98        2975.25           1568          21.00        70.18
  217.01        2975.50           1571          25.00        87.62
  217.04        2975.75           1575          27.00        96.34
  217.07        2976.00           1578          24.00        83.26
  217.09        2976.25           1581          22.00        74.54
  217.12        2976.50           1585          27.00        96.34
  217.15        2976.75           1588          28.00       100.70
  217.17        2977.00           1591          25.00        87.62
  217.20        2977.25           1595          23.00        78.90
  217.23        2977.50           1598          19.00        61.46
  217.26        2977.75           1601          22.00        74.54
  217.28        2978.00           1605          27.00        96.34
  217.31        2978.25           1608          24.00        83.26
  217.34        2978.50           1611          23.00        78.90
  217.37        2978.75           1615          22.00        74.54
  217.39        2979.00           1618          22.00        74.54
  217.42        2979.25           1621          23.00        78.90
  217.45        2979.50           1625          27.00        96.34
  217.47        2979.75           1628          22.00        74.54
  217.50        2980.00           1631          23.00        78.90
  217.53        2980.25           1635          21.00        70.18
  217.56        2980.50           1638          22.00        74.54
  217.58        2980.75           1641          24.00        83.26
  217.61        2981.00           1645          23.00        78.90
  217.64        2981.25           1648          22.00        74.54
  217.66        2981.50           1651          23.00        78.90
  217.69        2981.75           1655          28.00       100.70
  217.72        2982.00           1658          28.00       100.70
  217.75        2982.25           1661          21.00        70.18
  217.77        2982.50           1665          20.00        65.82
  217.80        2982.75           1668          18.00        57.11
  217.83        2983.00           1671          22.00        74.54
  217.85        2983.25           1675          24.00        83.26
  217.88        2983.50           1678          22.00        74.54
  217.91        2983.75           1681          20.00        65.82
  217.94        2984.00           1685          27.00        96.34
HS scan finished at 03:38:07
end
