************************************************************
  HS Scan of (1) Internal mercury lamp
************************************************************
Integration time is 0.2294 seconds per sample
dh280817Tamanrasset 22.79-5.529 3.307216pr865
************************************************************
Dead Time -------------------------  2.8E-08 
Number of Cycles Used -------------  4 
Starting Wavelength (Angstroms) ---  2950 
Final Wavelength (Angstoms) -------  2984 
Wavelength Increment (Angstroms) --  .25 
Filter Wheel #1 Position ---------- (1) Ground quartz diffuser (ND=2.32)
Filter Wheel #2 Position ---------- (1) Neutral Density 0.494



************************************************************
HS scan start time = 03:31:03
Dark Count =  5.4 


Time (GMT)  Wavelength (Ang)  Step Number  Raw Counts  Counts/Second

  211.40        2950.00           1233          20.00        63.64
  211.47        2950.25           1236          19.00        59.29
  211.49        2950.50           1239          16.00        46.21
  211.52        2950.75           1242          26.00        89.80
  211.55        2951.00           1246          17.00        50.57
  211.57        2951.25           1249          19.00        59.29
  211.60        2951.50           1252          17.00        50.57
  211.63        2951.75           1256          18.00        54.93
  211.66        2952.00           1259          23.00        76.72
  211.68        2952.25           1262          20.00        63.64
  211.71        2952.50           1266          18.00        54.93
  211.74        2952.75           1269          19.00        59.29
  211.76        2953.00           1272          21.00        68.00
  211.79        2953.25           1276          21.00        68.00
  211.82        2953.50           1279          14.00        37.49
  211.85        2953.75           1282          18.00        54.93
  211.87        2954.00           1286          22.00        72.36
  211.90        2954.25           1289          23.00        76.72
  211.93        2954.50           1292          22.00        72.36
  211.96        2954.75           1295          21.00        68.00
  211.98        2955.00           1299          20.00        63.64
  212.01        2955.25           1302          19.00        59.29
  212.04        2955.50           1305          18.00        54.93
  212.06        2955.75           1309          18.00        54.93
  212.09        2956.00           1312          17.00        50.57
  212.12        2956.25           1315          18.00        54.93
  212.15        2956.50           1319          19.00        59.29
  212.17        2956.75           1322          16.00        46.21
  212.20        2957.00           1325          19.00        59.29
  212.23        2957.25           1329          19.00        59.29
  212.25        2957.50           1332          23.00        76.72
  212.28        2957.75           1335          23.00        76.72
  212.31        2958.00           1339          18.00        54.93
  212.34        2958.25           1342          18.00        54.93
  212.36        2958.50           1345          22.00        72.36
  212.39        2958.75           1348          15.00        41.85
  212.42        2959.00           1352          19.00        59.29
  212.44        2959.25           1355          19.00        59.29
  212.47        2959.50           1358          21.00        68.00
  212.50        2959.75           1362          24.00        81.08
  212.53        2960.00           1365          25.00        85.44
  212.55        2960.25           1368          30.00       107.24
  212.58        2960.50           1372          35.00       129.03
  212.61        2960.75           1375          35.00       129.03
  212.63        2961.00           1378         109.00       451.62
  212.66        2961.25           1382         531.00      2291.34
  212.69        2961.50           1385        1353.00      5875.42
  212.72        2961.75           1388        2674.00     11636.75
  212.74        2962.00           1392        5670.00     24710.20
  212.77        2962.25           1395        8440.00     36806.00
  212.80        2962.50           1398       11355.00     49543.83
  212.82        2962.75           1402       15210.00     66403.21
  212.85        2963.00           1405       18240.00     79665.75
  212.88        2963.25           1408       21572.00     94261.53
  212.91        2963.50           1412       25292.00    110571.10
  212.93        2963.75           1415       28261.00    123598.80
  212.96        2964.00           1418       31453.00    137615.60
  212.99        2964.25           1422       35463.00    155240.00
  213.02        2964.50           1425       38497.00    168586.40
  213.04        2964.75           1428       41743.00    182876.50
  213.07        2965.00           1431       44781.00    196261.30
  213.10        2965.25           1435       48655.00    213343.90
  213.13        2965.50           1438       52147.00    228756.10
  213.15        2965.75           1441       55282.00    242604.10
  213.18        2966.00           1445       59607.00    261726.20
  213.21        2966.25           1448       62058.00    272571.90
  213.23        2966.50           1451       64051.00    281395.90
  213.26        2966.75           1455       65981.00    289945.10
  213.29        2967.00           1458       66664.00    292971.50
  213.32        2967.25           1461       66808.00    293609.70
  213.34        2967.50           1465       66852.00    293804.70
  213.37        2967.75           1468       66085.00    290405.90
  213.40        2968.00           1471       64976.00    285492.80
  213.43        2968.25           1475       62412.00    274139.00
  213.45        2968.50           1478       59894.00    262995.80
  213.48        2968.75           1481       56584.00    248358.50
  213.51        2969.00           1485       52254.00    229228.60
  213.54        2969.25           1488       48909.00    214464.50
  213.56        2969.50           1491       45686.00    200250.40
  213.59        2969.75           1495       41476.00    181700.60
  213.62        2970.00           1498       37971.00    166271.90
  213.64        2970.25           1501       34785.00    152258.90
  213.67        2970.50           1505       30406.00    133016.70
  213.70        2970.75           1508       27380.00    119732.00
  213.73        2971.00           1511       24267.00    106075.70
  213.75        2971.25           1515       20302.00     88696.91
  213.78        2971.50           1518       17235.00     75265.69
  213.81        2971.75           1521       14201.00     61988.94
  213.84        2972.00           1525       10082.00     43980.02
  213.86        2972.25           1528        7049.00     30730.88
  213.89        2972.50           1531        4444.00     19359.23
  213.92        2972.75           1535        1868.00      8121.29
  213.94        2973.00           1538         673.00      2910.44
  213.97        2973.25           1541         205.00       870.12
  214.00        2973.50           1545          57.00       224.94
  214.03        2973.75           1548          42.00       159.55
  214.05        2974.00           1551          32.00       115.96
  214.08        2974.25           1555          27.00        94.16
  214.11        2974.50           1558          31.00       111.60
  214.13        2974.75           1561          24.00        81.08
  214.16        2975.00           1565          24.00        81.08
  214.19        2975.25           1568          21.00        68.00
  214.22        2975.50           1571          20.00        63.64
  214.24        2975.75           1575          27.00        94.16
  214.27        2976.00           1578          22.00        72.36
  214.30        2976.25           1581          25.00        85.44
  214.33        2976.50           1585          24.00        81.08
  214.35        2976.75           1588          22.00        72.36
  214.38        2977.00           1591          27.00        94.16
  214.41        2977.25           1595          23.00        76.72
  214.43        2977.50           1598          27.00        94.16
  214.46        2977.75           1601          21.00        68.00
  214.49        2978.00           1605          20.00        63.64
  214.52        2978.25           1608          21.00        68.00
  214.54        2978.50           1611          23.00        76.72
  214.57        2978.75           1615          21.00        68.00
  214.60        2979.00           1618          21.00        68.00
  214.62        2979.25           1621          20.00        63.64
  214.65        2979.50           1625          21.00        68.00
  214.68        2979.75           1628          22.00        72.36
  214.71        2980.00           1631          21.00        68.00
  214.73        2980.25           1635          20.00        63.64
  214.76        2980.50           1638          21.00        68.00
  214.79        2980.75           1641          20.00        63.64
  214.81        2981.00           1645          23.00        76.72
  214.84        2981.25           1648          20.00        63.64
  214.87        2981.50           1651          23.00        76.72
  214.90        2981.75           1655          18.00        54.93
  214.92        2982.00           1658          19.00        59.29
  214.95        2982.25           1661          23.00        76.72
  214.98        2982.50           1665          17.00        50.57
  215.00        2982.75           1668          20.00        63.64
  215.03        2983.00           1671          18.00        54.93
  215.06        2983.25           1675          20.00        63.64
  215.09        2983.50           1678          20.00        63.64
  215.11        2983.75           1681          16.00        46.21
  215.14        2984.00           1685          21.00        68.00
HS scan finished at 03:35:20
end
