************************************************************
  HS Scan of (1) Internal mercury lamp
************************************************************
Integration time is 0.2294 seconds per sample
dh060917Tamanrasset 22.79-5.529 3.037006pr865
************************************************************
Dead Time -------------------------  2.8E-08 
Number of Cycles Used -------------  4 
Starting Wavelength (Angstroms) ---  2950 
Final Wavelength (Angstoms) -------  2984 
Wavelength Increment (Angstroms) --  .25 
Filter Wheel #1 Position ---------- (1) Ground quartz diffuser (ND=2.32)
Filter Wheel #2 Position ---------- (1) Neutral Density 0.494



************************************************************
HS scan start time = 03:34:46
Dark Count =  3.6 


Time (GMT)  Wavelength (Ang)  Step Number  Raw Counts  Counts/Second

  215.13        2950.00           1233          19.00        67.13
  215.19        2950.25           1236          18.00        62.77
  215.22        2950.50           1239          18.00        62.77
  215.25        2950.75           1242          20.00        71.49
  215.27        2951.00           1246          20.00        71.49
  215.30        2951.25           1249          25.00        93.29
  215.33        2951.50           1252          19.00        67.13
  215.36        2951.75           1256          18.00        62.77
  215.38        2952.00           1259          21.00        75.85
  215.41        2952.25           1262          19.00        67.13
  215.44        2952.50           1266          14.00        45.34
  215.46        2952.75           1269          19.00        67.13
  215.49        2953.00           1272          19.00        67.13
  215.52        2953.25           1276          20.00        71.49
  215.55        2953.50           1279          21.00        75.85
  215.57        2953.75           1282          19.00        67.13
  215.60        2954.00           1286          19.00        67.13
  215.63        2954.25           1289          17.00        58.41
  215.65        2954.50           1292          25.00        93.29
  215.68        2954.75           1295          18.00        62.77
  215.71        2955.00           1299          16.00        54.05
  215.74        2955.25           1302          22.00        80.21
  215.76        2955.50           1305          20.00        71.49
  215.79        2955.75           1309          17.00        58.41
  215.82        2956.00           1312          22.00        80.21
  215.84        2956.25           1315          22.00        80.21
  215.87        2956.50           1319          18.00        62.77
  215.90        2956.75           1322          21.00        75.85
  215.93        2957.00           1325          20.00        71.49
  215.95        2957.25           1329          15.00        49.69
  215.98        2957.50           1332          18.00        62.77
  216.01        2957.75           1335          25.00        93.29
  216.04        2958.00           1339          18.00        62.77
  216.06        2958.25           1342          18.00        62.77
  216.09        2958.50           1345          22.00        80.21
  216.12        2958.75           1348          17.00        58.41
  216.14        2959.00           1352          21.00        75.85
  216.17        2959.25           1355          17.00        58.41
  216.20        2959.50           1358          22.00        80.21
  216.22        2959.75           1362          27.00       102.01
  216.25        2960.00           1365          24.00        88.93
  216.28        2960.25           1368          26.00        97.65
  216.31        2960.50           1372          35.00       136.88
  216.33        2960.75           1375          40.00       158.68
  216.36        2961.00           1378         103.00       433.31
  216.39        2961.25           1382         504.00      2181.48
  216.42        2961.50           1385        1263.00      5490.82
  216.44        2961.75           1388        2517.00     10959.77
  216.47        2962.00           1392        5171.00     22539.94
  216.50        2962.25           1395        7665.00     33428.83
  216.52        2962.50           1398       10302.00     44949.30
  216.55        2962.75           1402       13791.00     60203.41
  216.58        2963.00           1405       16559.00     72314.55
  216.61        2963.25           1408       19311.00     84363.83
  216.63        2963.50           1412       22845.00     99848.94
  216.66        2963.75           1415       25579.00    111837.90
  216.69        2964.00           1418       28574.00    124980.60
  216.71        2964.25           1422       32235.00    141059.10
  216.74        2964.50           1425       35001.00    153216.50
  216.77        2964.75           1428       37832.00    165668.20
  216.80        2965.00           1431       40450.00    177190.80
  216.82        2965.25           1435       44251.00    193933.40
  216.85        2965.50           1438       47080.00    206404.80
  216.88        2965.75           1441       50118.00    219807.30
  216.91        2966.00           1445       53669.00    235485.70
  216.93        2966.25           1448       56141.00    246408.30
  216.96        2966.50           1451       57979.00    254533.90
  216.99        2966.75           1455       59527.00    261380.20
  217.02        2967.00           1458       60133.00    264061.20
  217.04        2967.25           1461       60251.00    264583.20
  217.07        2967.50           1465       60284.00    264729.20
  217.10        2967.75           1468       59809.00    262627.80
  217.13        2968.00           1471       58822.00    258261.90
  217.15        2968.25           1475       56098.00    246218.20
  217.18        2968.50           1478       54213.00    237888.80
  217.21        2968.75           1481       51120.00    224229.90
  217.23        2969.00           1485       47486.00    208195.30
  217.26        2969.25           1488       44311.00    194197.80
  217.29        2969.50           1491       41591.00    182215.00
  217.32        2969.75           1495       37730.00    165219.40
  217.34        2970.00           1498       34809.00    152372.30
  217.37        2970.25           1501       31954.00    139824.50
  217.40        2970.50           1505       28381.00    124133.40
  217.43        2970.75           1508       25639.00    112101.10
  217.45        2971.00           1511       22647.00     98981.01
  217.48        2971.25           1515       18824.00     82230.97
  217.51        2971.50           1518       16056.00     70113.10
  217.54        2971.75           1521       13331.00     58191.51
  217.56        2972.00           1525        9649.00     42095.80
  217.59        2972.25           1528        7082.00     30882.84
  217.62        2972.50           1531        4525.00     19720.56
  217.65        2972.75           1535        2053.00      8935.98
  217.67        2973.00           1538         840.00      3646.41
  217.70        2973.25           1541         266.00      1143.89
  217.73        2973.50           1545          61.00       250.22
  217.75        2973.75           1548          36.00       141.24
  217.78        2974.00           1551          30.00       115.08
  217.81        2974.25           1555          26.00        97.65
  217.84        2974.50           1558          29.00       110.72
  217.86        2974.75           1561          25.00        93.29
  217.89        2975.00           1565          24.00        88.93
  217.92        2975.25           1568          25.00        93.29
  217.94        2975.50           1571          20.00        71.49
  217.97        2975.75           1575          21.00        75.85
  218.00        2976.00           1578          23.00        84.57
  218.03        2976.25           1581          23.00        84.57
  218.05        2976.50           1585          22.00        80.21
  218.08        2976.75           1588          23.00        84.57
  218.11        2977.00           1591          18.00        62.77
  218.13        2977.25           1595          27.00       102.01
  218.16        2977.50           1598          20.00        71.49
  218.19        2977.75           1601          21.00        75.85
  218.22        2978.00           1605          26.00        97.65
  218.24        2978.25           1608          21.00        75.85
  218.27        2978.50           1611          26.00        97.65
  218.30        2978.75           1615          19.00        67.13
  218.32        2979.00           1618          18.00        62.77
  218.35        2979.25           1621          19.00        67.13
  218.38        2979.50           1625          24.00        88.93
  218.41        2979.75           1628          18.00        62.77
  218.43        2980.00           1631          17.00        58.41
  218.46        2980.25           1635          21.00        75.85
  218.49        2980.50           1638          19.00        67.13
  218.51        2980.75           1641          22.00        80.21
  218.54        2981.00           1645          20.00        71.49
  218.57        2981.25           1648          19.00        67.13
  218.60        2981.50           1651          18.00        62.77
  218.62        2981.75           1655          19.00        67.13
  218.65        2982.00           1658          22.00        80.21
  218.68        2982.25           1661          22.00        80.21
  218.70        2982.50           1665          19.00        67.13
  218.73        2982.75           1668          20.00        71.49
  218.76        2983.00           1671          18.00        62.77
  218.79        2983.25           1675          20.00        71.49
  218.81        2983.50           1678          18.00        62.77
  218.84        2983.75           1681          18.00        62.77
  218.87        2984.00           1685          19.00        67.13
HS scan finished at 03:39:03
end
