************************************************************
  HS Scan of (1) Internal mercury lamp
************************************************************
Integration time is 0.2294 seconds per sample
dh310818Tamanrasset 22.79-5.529 4.974364pr865
************************************************************
Dead Time -------------------------  2.8E-08 
Number of Cycles Used -------------  4 
Starting Wavelength (Angstroms) ---  2950 
Final Wavelength (Angstoms) -------  2984 
Wavelength Increment (Angstroms) --  .25 
Filter Wheel #1 Position ---------- (1) Ground quartz diffuser (ND=2.32)
Filter Wheel #2 Position ---------- (1) Neutral Density 0.494



************************************************************
HS scan start time = 03:32:08
Dark Count =  7 


Time (GMT)  Wavelength (Ang)  Step Number  Raw Counts  Counts/Second

  212.50        2950.00           1233          20.00        56.67
  212.56        2950.25           1236          18.00        47.95
  212.59        2950.50           1239          20.00        56.67
  212.61        2950.75           1242          24.00        74.11
  212.64        2951.00           1246          25.00        78.47
  212.67        2951.25           1249          22.00        65.39
  212.70        2951.50           1252          20.00        56.67
  212.72        2951.75           1256          17.00        43.59
  212.75        2952.00           1259          18.00        47.95
  212.78        2952.25           1262          22.00        65.39
  212.80        2952.50           1266          15.00        34.87
  212.83        2952.75           1269          19.00        52.31
  212.86        2953.00           1272          23.00        69.75
  212.89        2953.25           1276          22.00        65.39
  212.91        2953.50           1279          16.00        39.23
  212.94        2953.75           1282          23.00        69.75
  212.97        2954.00           1286          19.00        52.31
  213.00        2954.25           1289          23.00        69.75
  213.02        2954.50           1292          17.00        43.59
  213.05        2954.75           1295          19.00        52.31
  213.08        2955.00           1299          22.00        65.39
  213.11        2955.25           1302          23.00        69.75
  213.13        2955.50           1305          19.00        52.31
  213.16        2955.75           1309          20.00        56.67
  213.19        2956.00           1312          23.00        69.75
  213.21        2956.25           1315          24.00        74.11
  213.24        2956.50           1319          20.00        56.67
  213.27        2956.75           1322          19.00        52.31
  213.30        2957.00           1325          19.00        52.31
  213.32        2957.25           1329          20.00        56.67
  213.35        2957.50           1332          21.00        61.03
  213.38        2957.75           1335          21.00        61.03
  213.41        2958.00           1339          18.00        47.95
  213.43        2958.25           1342          18.00        47.95
  213.46        2958.50           1345          24.00        74.11
  213.49        2958.75           1348          18.00        47.95
  213.51        2959.00           1352          22.00        65.39
  213.54        2959.25           1355          21.00        61.03
  213.57        2959.50           1358          18.00        47.95
  213.60        2959.75           1362          20.00        56.67
  213.62        2960.00           1365          25.00        78.47
  213.65        2960.25           1368          32.00       108.98
  213.68        2960.50           1372          35.00       122.06
  213.71        2960.75           1375          37.00       130.78
  213.73        2961.00           1378          76.00       300.79
  213.76        2961.25           1382         411.00      1761.20
  213.79        2961.50           1385        1081.00      4682.39
  213.81        2961.75           1388        2387.00     10377.91
  213.84        2962.00           1392        5128.00     22337.42
  213.87        2962.25           1395        7821.00     34095.31
  213.90        2962.50           1398       11021.00     48076.89
  213.92        2962.75           1402       14825.00     64711.74
  213.95        2963.00           1405       17941.00     78349.56
  213.98        2963.25           1408       20942.00     91493.91
  214.01        2963.50           1412       25075.00    109612.30
  214.03        2963.75           1415       28056.00    122691.90
  214.06        2964.00           1418       30812.00    134792.90
  214.09        2964.25           1422       35028.00    153320.30
  214.12        2964.50           1425       37729.00    165200.10
  214.14        2964.75           1428       40873.00    179038.30
  214.17        2965.00           1431       43970.00    192680.10
  214.20        2965.25           1435       48412.00    212264.80
  214.23        2965.50           1438       51443.00    225640.80
  214.25        2965.75           1441       54737.00    240188.80
  214.28        2966.00           1445       58704.00    257725.00
  214.31        2966.25           1448       61758.00    271237.00
  214.34        2966.50           1451       63658.00    279648.50
  214.36        2966.75           1455       65612.00    288303.10
  214.39        2967.00           1458       66367.00    291648.30
  214.42        2967.25           1461       66622.00    292778.30
  214.45        2967.50           1465       66551.00    292463.70
  214.47        2967.75           1468       66256.00    291156.50
  214.50        2968.00           1471       65218.00    286557.70
  214.53        2968.25           1475       62912.00    276345.40
  214.55        2968.50           1478       60462.00    265501.80
  214.58        2968.75           1481       57200.00    251074.50
  214.61        2969.00           1485       52838.00    231800.40
  214.64        2969.25           1488       49615.00    217572.50
  214.66        2969.50           1491       45959.00    201446.90
  214.69        2969.75           1495       41883.00    183486.00
  214.72        2970.00           1498       38804.00    169930.40
  214.75        2970.25           1501       35671.00    156147.60
  214.77        2970.50           1505       31557.00    138065.40
  214.80        2970.75           1508       28496.00    124623.30
  214.83        2971.00           1511       25229.00    110287.80
  214.86        2971.25           1515       21240.00     92799.66
  214.88        2971.50           1518       18225.00     79593.06
  214.91        2971.75           1521       14846.00     64803.62
  214.94        2972.00           1525       10870.00     47416.89
  214.97        2972.25           1528        7938.00     34606.32
  214.99        2972.50           1531        5222.00     22747.70
  215.02        2972.75           1535        2221.00      9653.87
  215.05        2973.00           1538         929.00      4019.63
  215.08        2973.25           1541         294.00      1251.13
  215.10        2973.50           1545          61.00       235.40
  215.13        2973.75           1548          47.00       174.37
  215.16        2974.00           1551          37.00       130.78
  215.19        2974.25           1555          34.00       117.70
  215.21        2974.50           1558          25.00        78.47
  215.24        2974.75           1561          27.00        87.18
  215.27        2975.00           1565          27.00        87.18
  215.30        2975.25           1568          26.00        82.82
  215.32        2975.50           1571          23.00        69.75
  215.35        2975.75           1575          28.00        91.54
  215.38        2976.00           1578          27.00        87.18
  215.40        2976.25           1581          23.00        69.75
  215.43        2976.50           1585          25.00        78.47
  215.46        2976.75           1588          25.00        78.47
  215.49        2977.00           1591          22.00        65.39
  215.51        2977.25           1595          30.00       100.26
  215.54        2977.50           1598          24.00        74.11
  215.57        2977.75           1601          23.00        69.75
  215.60        2978.00           1605          23.00        69.75
  215.62        2978.25           1608          22.00        65.39
  215.65        2978.50           1611          25.00        78.47
  215.68        2978.75           1615          25.00        78.47
  215.71        2979.00           1618          19.00        52.31
  215.73        2979.25           1621          23.00        69.75
  215.76        2979.50           1625          22.00        65.39
  215.79        2979.75           1628          27.00        87.18
  215.81        2980.00           1631          25.00        78.47
  215.84        2980.25           1635          22.00        65.39
  215.87        2980.50           1638          22.00        65.39
  215.90        2980.75           1641          22.00        65.39
  215.92        2981.00           1645          27.00        87.18
  215.95        2981.25           1648          22.00        65.39
  215.98        2981.50           1651          20.00        56.67
  216.01        2981.75           1655          23.00        69.75
  216.03        2982.00           1658          23.00        69.75
  216.06        2982.25           1661          20.00        56.67
  216.09        2982.50           1665          22.00        65.39
  216.11        2982.75           1668          19.00        52.31
  216.14        2983.00           1671          18.00        47.95
  216.17        2983.25           1675          17.00        43.59
  216.20        2983.50           1678          23.00        69.75
  216.22        2983.75           1681          19.00        52.31
  216.25        2984.00           1685          18.00        47.95
HS scan finished at 03:36:26
end
