************************************************************
  HS Scan of (1) Internal mercury lamp
************************************************************
Integration time is 0.2294 seconds per sample
dh300817Tamanrasset 22.79-5.529 3.307216pr865
************************************************************
Dead Time -------------------------  2.8E-08 
Number of Cycles Used -------------  4 
Starting Wavelength (Angstroms) ---  2950 
Final Wavelength (Angstoms) -------  2984 
Wavelength Increment (Angstroms) --  .25 
Filter Wheel #1 Position ---------- (1) Ground quartz diffuser (ND=2.32)
Filter Wheel #2 Position ---------- (1) Neutral Density 0.494



************************************************************
HS scan start time = 03:31:20
Dark Count =  5.3 


Time (GMT)  Wavelength (Ang)  Step Number  Raw Counts  Counts/Second

  211.70        2950.00           1233          16.00        46.64
  211.76        2950.25           1236          21.00        68.44
  211.79        2950.50           1239          21.00        68.44
  211.82        2950.75           1242          21.00        68.44
  211.84        2951.00           1246          16.00        46.64
  211.87        2951.25           1249          20.00        64.08
  211.90        2951.50           1252          14.00        37.93
  211.92        2951.75           1256          16.00        46.64
  211.95        2952.00           1259          19.00        59.72
  211.98        2952.25           1262          18.00        55.36
  212.01        2952.50           1266          19.00        59.72
  212.03        2952.75           1269          20.00        64.08
  212.06        2953.00           1272          19.00        59.72
  212.09        2953.25           1276          19.00        59.72
  212.12        2953.50           1279          20.00        64.08
  212.14        2953.75           1282          20.00        64.08
  212.17        2954.00           1286          21.00        68.44
  212.20        2954.25           1289          19.00        59.72
  212.22        2954.50           1292          20.00        64.08
  212.25        2954.75           1295          19.00        59.72
  212.28        2955.00           1299          18.00        55.36
  212.30        2955.25           1302          18.00        55.36
  212.33        2955.50           1305          20.00        64.08
  212.36        2955.75           1309          18.00        55.36
  212.39        2956.00           1312          20.00        64.08
  212.41        2956.25           1315          19.00        59.72
  212.44        2956.50           1319          22.00        72.80
  212.47        2956.75           1322          17.00        51.00
  212.50        2957.00           1325          20.00        64.08
  212.52        2957.25           1329          18.00        55.36
  212.55        2957.50           1332          18.00        55.36
  212.58        2957.75           1335          21.00        68.44
  212.60        2958.00           1339          22.00        72.80
  212.63        2958.25           1342          19.00        59.72
  212.66        2958.50           1345          26.00        90.24
  212.69        2958.75           1348          22.00        72.80
  212.71        2959.00           1352          23.00        77.16
  212.74        2959.25           1355          23.00        77.16
  212.77        2959.50           1358          25.00        85.88
  212.79        2959.75           1362          28.00        98.95
  212.82        2960.00           1365          26.00        90.24
  212.85        2960.25           1368          26.00        90.24
  212.88        2960.50           1372          34.00       125.11
  212.90        2960.75           1375          54.00       212.29
  212.93        2961.00           1378         191.00       809.52
  212.96        2961.25           1382         942.00      4083.73
  212.98        2961.50           1385        1988.00      8645.07
  213.01        2961.75           1388        3576.00     15572.18
  213.04        2962.00           1392        6976.00     30412.55
  213.07        2962.25           1395        9965.00     43469.18
  213.09        2962.50           1398       13123.00     57274.43
  213.12        2962.75           1402       17089.00     74627.00
  213.15        2963.00           1405       20299.00     88684.19
  213.18        2963.25           1408       23519.00    102796.30
  213.20        2963.50           1412       27297.00    119368.20
  213.23        2963.75           1415       30502.00    133438.80
  213.26        2964.00           1418       33545.00    146808.40
  213.29        2964.25           1422       37966.00    166250.30
  213.31        2964.50           1425       41094.00    180018.90
  213.34        2964.75           1428       43981.00    192736.10
  213.37        2965.00           1431       47137.00    206648.70
  213.39        2965.25           1435       51317.00    225092.10
  213.42        2965.50           1438       54771.00    240346.60
  213.45        2965.75           1441       57598.00    252841.70
  213.48        2966.00           1445       61686.00    270925.80
  213.50        2966.25           1448       63706.00    279868.50
  213.53        2966.50           1451       65675.00    288589.80
  213.56        2966.75           1455       66997.00    294447.70
  213.59        2967.00           1458       67454.00    296473.20
  213.61        2967.25           1461       67566.00    296969.60
  213.64        2967.50           1465       66799.00    293570.20
  213.67        2967.75           1468       66030.00    290162.60
  213.70        2968.00           1471       64653.00    284062.50
  213.72        2968.25           1475       61461.00    269930.00
  213.75        2968.50           1478       58372.00    256264.20
  213.78        2968.75           1481       55454.00    243364.60
  213.80        2969.00           1485       51257.00    224827.20
  213.83        2969.25           1488       47853.00    209806.50
  213.86        2969.50           1491       44665.00    195750.40
  213.89        2969.75           1495       40301.00    176527.30
  213.91        2970.00           1498       37164.00    162721.80
  213.94        2970.25           1501       33934.00    148518.30
  213.97        2970.50           1505       29603.00    129490.90
  214.00        2970.75           1508       26508.00    115906.10
  214.02        2971.00           1511       23498.00    102704.30
  214.05        2971.25           1515       19356.00     84553.48
  214.08        2971.50           1518       16226.00     70849.66
  214.11        2971.75           1521       13174.00     57497.47
  214.13        2972.00           1525        9251.00     40349.40
  214.16        2972.25           1528        6290.00     27417.29
  214.19        2972.50           1531        3800.00     16549.51
  214.21        2972.75           1535        1488.00      6464.55
  214.24        2973.00           1538         519.00      2239.46
  214.27        2973.25           1541         149.00       626.43
  214.30        2973.50           1545          50.00       194.86
  214.32        2973.75           1548          43.00       164.34
  214.35        2974.00           1551          35.00       129.47
  214.38        2974.25           1555          30.00       107.67
  214.41        2974.50           1558          23.00        77.16
  214.43        2974.75           1561          27.00        94.59
  214.46        2975.00           1565          21.00        68.44
  214.49        2975.25           1568          21.00        68.44
  214.51        2975.50           1571          26.00        90.24
  214.54        2975.75           1575          21.00        68.44
  214.57        2976.00           1578          30.00       107.67
  214.60        2976.25           1581          23.00        77.16
  214.62        2976.50           1585          21.00        68.44
  214.65        2976.75           1588          19.00        59.72
  214.68        2977.00           1591          30.00       107.67
  214.71        2977.25           1595          24.00        81.52
  214.73        2977.50           1598          23.00        77.16
  214.76        2977.75           1601          20.00        64.08
  214.79        2978.00           1605          27.00        94.59
  214.81        2978.25           1608          18.00        55.36
  214.84        2978.50           1611          20.00        64.08
  214.87        2978.75           1615          24.00        81.52
  214.90        2979.00           1618          18.00        55.36
  214.92        2979.25           1621          21.00        68.44
  214.95        2979.50           1625          25.00        85.88
  214.98        2979.75           1628          17.00        51.00
  215.00        2980.00           1631          18.00        55.36
  215.03        2980.25           1635          23.00        77.16
  215.06        2980.50           1638          23.00        77.16
  215.09        2980.75           1641          18.00        55.36
  215.11        2981.00           1645          20.00        64.08
  215.14        2981.25           1648          18.00        55.36
  215.17        2981.50           1651          22.00        72.80
  215.19        2981.75           1655          21.00        68.44
  215.22        2982.00           1658          17.00        51.00
  215.25        2982.25           1661          21.00        68.44
  215.28        2982.50           1665          18.00        55.36
  215.30        2982.75           1668          25.00        85.88
  215.33        2983.00           1671          17.00        51.00
  215.36        2983.25           1675          22.00        72.80
  215.38        2983.50           1678          16.00        46.64
  215.41        2983.75           1681          21.00        68.44
  215.44        2984.00           1685          18.00        55.36
HS scan finished at 03:35:37
end
