************************************************************
  HS Scan of (1) Internal mercury lamp
************************************************************
Integration time is 0.2294 seconds per sample
dh050917Tamanrasset 22.79-5.529 3.220544pr865
************************************************************
Dead Time -------------------------  2.8E-08 
Number of Cycles Used -------------  4 
Starting Wavelength (Angstroms) ---  2950 
Final Wavelength (Angstoms) -------  2984 
Wavelength Increment (Angstroms) --  .25 
Filter Wheel #1 Position ---------- (1) Ground quartz diffuser (ND=2.32)
Filter Wheel #2 Position ---------- (1) Neutral Density 0.494



************************************************************
HS scan start time = 03:33:19
Dark Count =  5.7 


Time (GMT)  Wavelength (Ang)  Step Number  Raw Counts  Counts/Second

  213.67        2950.00           1233          20.00        62.34
  213.73        2950.25           1236          17.00        49.26
  213.76        2950.50           1239          19.00        57.98
  213.79        2950.75           1242          20.00        62.34
  213.81        2951.00           1246          22.00        71.06
  213.84        2951.25           1249          18.00        53.62
  213.87        2951.50           1252          20.00        62.34
  213.89        2951.75           1256          20.00        62.34
  213.92        2952.00           1259          22.00        71.06
  213.95        2952.25           1262          18.00        53.62
  213.98        2952.50           1266          19.00        57.98
  214.00        2952.75           1269          16.00        44.90
  214.03        2953.00           1272          18.00        53.62
  214.06        2953.25           1276          20.00        62.34
  214.08        2953.50           1279          20.00        62.34
  214.11        2953.75           1282          24.00        79.77
  214.14        2954.00           1286          20.00        62.34
  214.17        2954.25           1289          16.00        44.90
  214.19        2954.50           1292          23.00        75.41
  214.22        2954.75           1295          20.00        62.34
  214.25        2955.00           1299          23.00        75.41
  214.27        2955.25           1302          17.00        49.26
  214.30        2955.50           1305          17.00        49.26
  214.33        2955.75           1309          19.00        57.98
  214.36        2956.00           1312          16.00        44.90
  214.38        2956.25           1315          20.00        62.34
  214.41        2956.50           1319          19.00        57.98
  214.44        2956.75           1322          15.00        40.54
  214.47        2957.00           1325          19.00        57.98
  214.49        2957.25           1329          20.00        62.34
  214.52        2957.50           1332          22.00        71.06
  214.55        2957.75           1335          22.00        71.06
  214.57        2958.00           1339          16.00        44.90
  214.60        2958.25           1342          18.00        53.62
  214.63        2958.50           1345          15.00        40.54
  214.66        2958.75           1348          17.00        49.26
  214.68        2959.00           1352          18.00        53.62
  214.71        2959.25           1355          19.00        57.98
  214.74        2959.50           1358          23.00        75.41
  214.76        2959.75           1362          26.00        88.49
  214.79        2960.00           1365          29.00       101.57
  214.82        2960.25           1368          30.00       105.93
  214.85        2960.50           1372          32.00       114.65
  214.87        2960.75           1375          53.00       206.19
  214.90        2961.00           1378         162.00       681.36
  214.93        2961.25           1382         773.00      3345.13
  214.96        2961.50           1385        1751.00      7609.73
  214.98        2961.75           1388        3466.00     15090.51
  215.01        2962.00           1392        6480.00     28245.09
  215.04        2962.25           1395        9502.00     41444.32
  215.06        2962.50           1398       12527.00     54666.44
  215.09        2962.75           1402       16392.00     71574.43
  215.12        2963.00           1405       19271.00     84179.43
  215.15        2963.25           1408       22298.00     97442.06
  215.17        2963.50           1412       26060.00    113938.80
  215.20        2963.75           1415       28999.00    126837.20
  215.23        2964.00           1418       31961.00    139846.00
  215.26        2964.25           1422       35718.00    156360.10
  215.28        2964.50           1425       38952.00    170587.50
  215.31        2964.75           1428       42038.00    184174.50
  215.34        2965.00           1431       44779.00    196251.10
  215.36        2965.25           1435       48784.00    213911.70
  215.39        2965.50           1438       51598.00    226330.90
  215.42        2965.75           1441       54999.00    241352.20
  215.45        2966.00           1445       58917.00    258672.80
  215.47        2966.25           1448       61148.00    268543.10
  215.50        2966.50           1451       63176.00    277520.00
  215.53        2966.75           1455       64220.00    282143.00
  215.56        2967.00           1458       65076.00    285934.40
  215.58        2967.25           1461       64904.00    285172.50
  215.61        2967.50           1465       64791.00    284672.00
  215.64        2967.75           1468       64242.00    282240.50
  215.67        2968.00           1471       62840.00    276032.40
  215.69        2968.25           1475       60200.00    264348.30
  215.72        2968.50           1478       57485.00    252340.30
  215.75        2968.75           1481       54553.00    239381.60
  215.77        2969.00           1485       50002.00    219286.10
  215.80        2969.25           1488       46785.00    205094.60
  215.83        2969.50           1491       43681.00    191412.40
  215.86        2969.75           1495       39692.00    173844.60
  215.88        2970.00           1498       36563.00    160076.40
  215.91        2970.25           1501       33327.00    145848.50
  215.94        2970.50           1505       29348.00    128369.50
  215.97        2970.75           1508       26267.00    114846.90
  215.99        2971.00           1511       23437.00    102435.10
  216.02        2971.25           1515       19302.00     84315.21
  216.05        2971.50           1518       16351.00     71394.98
  216.08        2971.75           1521       13445.00     58680.91
  216.10        2972.00           1525        9616.00     41942.43
  216.13        2972.25           1528        6634.00     28917.48
  216.16        2972.50           1531        4094.00     17830.61
  216.18        2972.75           1535        1597.00      6938.14
  216.21        2973.00           1538         589.00      2542.90
  216.24        2973.25           1541         156.00       655.20
  216.27        2973.50           1545          52.00       201.83
  216.29        2973.75           1548          36.00       132.08
  216.32        2974.00           1551          30.00       105.93
  216.35        2974.25           1555          30.00       105.93
  216.37        2974.50           1558          29.00       101.57
  216.40        2974.75           1561          22.00        71.06
  216.43        2975.00           1565          19.00        57.98
  216.46        2975.25           1568          19.00        57.98
  216.48        2975.50           1571          22.00        71.06
  216.51        2975.75           1575          19.00        57.98
  216.54        2976.00           1578          20.00        62.34
  216.57        2976.25           1581          21.00        66.70
  216.59        2976.50           1585          23.00        75.41
  216.62        2976.75           1588          21.00        66.70
  216.65        2977.00           1591          27.00        92.85
  216.67        2977.25           1595          19.00        57.98
  216.70        2977.50           1598          16.00        44.90
  216.73        2977.75           1601          26.00        88.49
  216.76        2978.00           1605          25.00        84.13
  216.78        2978.25           1608          22.00        71.06
  216.81        2978.50           1611          22.00        71.06
  216.84        2978.75           1615          23.00        75.41
  216.86        2979.00           1618          20.00        62.34
  216.89        2979.25           1621          24.00        79.77
  216.92        2979.50           1625          20.00        62.34
  216.95        2979.75           1628          21.00        66.70
  216.97        2980.00           1631          20.00        62.34
  217.00        2980.25           1635          22.00        71.06
  217.03        2980.50           1638          25.00        84.13
  217.05        2980.75           1641          17.00        49.26
  217.08        2981.00           1645          20.00        62.34
  217.11        2981.25           1648          21.00        66.70
  217.14        2981.50           1651          20.00        62.34
  217.16        2981.75           1655          22.00        71.06
  217.19        2982.00           1658          22.00        71.06
  217.22        2982.25           1661          21.00        66.70
  217.24        2982.50           1665          23.00        75.41
  217.27        2982.75           1668          20.00        62.34
  217.30        2983.00           1671          21.00        66.70
  217.33        2983.25           1675          23.00        75.41
  217.35        2983.50           1678          20.00        62.34
  217.38        2983.75           1681          17.00        49.26
  217.41        2984.00           1685          18.00        53.62
HS scan finished at 03:37:36
end
