************************************************************
  HS Scan of (1) Internal mercury lamp
************************************************************
Integration time is 0.2294 seconds per sample
dh010917Tamanrasset 22.79-5.529 3.230741pr865
************************************************************
Dead Time -------------------------  2.8E-08 
Number of Cycles Used -------------  4 
Starting Wavelength (Angstroms) ---  2950 
Final Wavelength (Angstoms) -------  2984 
Wavelength Increment (Angstroms) --  .25 
Filter Wheel #1 Position ---------- (1) Ground quartz diffuser (ND=2.32)
Filter Wheel #2 Position ---------- (1) Neutral Density 0.494



************************************************************
HS scan start time = 03:32:19
Dark Count =  5.5 


Time (GMT)  Wavelength (Ang)  Step Number  Raw Counts  Counts/Second

  212.67        2950.00           1233          20.00        63.21
  212.73        2950.25           1236          18.00        54.49
  212.76        2950.50           1239          21.00        67.57
  212.78        2950.75           1242          20.00        63.21
  212.81        2951.00           1246          22.00        71.93
  212.84        2951.25           1249          17.00        50.13
  212.87        2951.50           1252          21.00        67.57
  212.89        2951.75           1256          21.00        67.57
  212.92        2952.00           1259          20.00        63.21
  212.95        2952.25           1262          20.00        63.21
  212.97        2952.50           1266          20.00        63.21
  213.00        2952.75           1269          17.00        50.13
  213.03        2953.00           1272          19.00        58.85
  213.06        2953.25           1276          25.00        85.00
  213.08        2953.50           1279          19.00        58.85
  213.11        2953.75           1282          16.00        45.77
  213.14        2954.00           1286          19.00        58.85
  213.16        2954.25           1289          22.00        71.93
  213.19        2954.50           1292          23.00        76.29
  213.22        2954.75           1295          18.00        54.49
  213.25        2955.00           1299          23.00        76.29
  213.27        2955.25           1302          18.00        54.49
  213.30        2955.50           1305          18.00        54.49
  213.33        2955.75           1309          16.00        45.77
  213.35        2956.00           1312          16.00        45.77
  213.38        2956.25           1315          23.00        76.29
  213.41        2956.50           1319          19.00        58.85
  213.44        2956.75           1322          18.00        54.49
  213.46        2957.00           1325          18.00        54.49
  213.49        2957.25           1329          20.00        63.21
  213.52        2957.50           1332          23.00        76.29
  213.55        2957.75           1335          22.00        71.93
  213.57        2958.00           1339          22.00        71.93
  213.60        2958.25           1342          14.00        37.05
  213.63        2958.50           1345          17.00        50.13
  213.65        2958.75           1348          15.00        41.41
  213.68        2959.00           1352          20.00        63.21
  213.71        2959.25           1355          23.00        76.29
  213.73        2959.50           1358          25.00        85.00
  213.76        2959.75           1362          24.00        80.65
  213.79        2960.00           1365          24.00        80.65
  213.82        2960.25           1368          28.00        98.08
  213.84        2960.50           1372          36.00       132.96
  213.87        2960.75           1375          46.00       176.55
  213.90        2961.00           1378         140.00       586.32
  213.93        2961.25           1382         656.00      2835.88
  213.95        2961.50           1385        1534.00      6664.28
  213.98        2961.75           1388        3207.00     13961.43
  214.01        2962.00           1392        6212.00     27075.88
  214.03        2962.25           1395        8880.00     38727.67
  214.06        2962.50           1398       12089.00     52752.24
  214.09        2962.75           1402       15761.00     68813.81
  214.12        2963.00           1405       18914.00     82616.80
  214.14        2963.25           1408       21969.00     96000.94
  214.17        2963.50           1412       25804.00    112816.60
  214.20        2963.75           1415       28955.00    126644.90
  214.23        2964.00           1418       31964.00    139860.10
  214.25        2964.25           1422       35840.00    156897.40
  214.28        2964.50           1425       38867.00    170214.30
  214.31        2964.75           1428       42103.00    184461.60
  214.34        2965.00           1431       44922.00    196882.30
  214.36        2965.25           1435       49091.00    215267.00
  214.39        2965.50           1438       52106.00    228574.60
  214.42        2965.75           1441       55160.00    242064.50
  214.45        2966.00           1445       58949.00    258815.20
  214.47        2966.25           1448       61248.00    268986.50
  214.50        2966.50           1451       63292.00    278034.50
  214.53        2966.75           1455       64597.00    283813.60
  214.55        2967.00           1458       64958.00    285412.60
  214.58        2967.25           1461       65390.00    287326.30
  214.61        2967.50           1465       65122.00    286139.10
  214.64        2967.75           1468       64265.00    282343.20
  214.66        2968.00           1471       63019.00    276825.80
  214.69        2968.25           1475       59951.00    263247.60
  214.72        2968.50           1478       57514.00    252469.40
  214.75        2968.75           1481       54555.00    239391.30
  214.77        2969.00           1485       50540.00    221661.40
  214.80        2969.25           1488       47278.00    207269.60
  214.83        2969.50           1491       43867.00    192232.90
  214.86        2969.75           1495       39971.00    175073.60
  214.88        2970.00           1498       36651.00    160464.40
  214.91        2970.25           1501       33607.00    147080.10
  214.94        2970.50           1505       29496.00    129020.20
  214.96        2970.75           1508       26320.00    115080.40
  214.99        2971.00           1511       23444.00    102466.60
  215.02        2971.25           1515       19607.00     85651.99
  215.05        2971.50           1518       16402.00     71619.07
  215.07        2971.75           1521       13598.00     59350.95
  215.10        2972.00           1525        9678.00     42214.21
  215.13        2972.25           1528        6792.00     29608.23
  215.16        2972.50           1531        4242.00     18477.30
  215.18        2972.75           1535        1722.00      7484.13
  215.21        2973.00           1538         670.00      2896.92
  215.24        2973.25           1541         187.00       791.21
  215.27        2973.50           1545          50.00       193.99
  215.29        2973.75           1548          45.00       172.19
  215.32        2974.00           1551          35.00       128.60
  215.35        2974.25           1555          31.00       111.16
  215.37        2974.50           1558          27.00        93.72
  215.40        2974.75           1561          26.00        89.36
  215.43        2975.00           1565          24.00        80.65
  215.46        2975.25           1568          22.00        71.93
  215.48        2975.50           1571          20.00        63.21
  215.51        2975.75           1575          21.00        67.57
  215.54        2976.00           1578          22.00        71.93
  215.56        2976.25           1581          18.00        54.49
  215.59        2976.50           1585          21.00        67.57
  215.62        2976.75           1588          26.00        89.36
  215.65        2977.00           1591          22.00        71.93
  215.67        2977.25           1595          22.00        71.93
  215.70        2977.50           1598          21.00        67.57
  215.73        2977.75           1601          21.00        67.57
  215.75        2978.00           1605          23.00        76.29
  215.78        2978.25           1608          20.00        63.21
  215.81        2978.50           1611          25.00        85.00
  215.84        2978.75           1615          19.00        58.85
  215.86        2979.00           1618          21.00        67.57
  215.89        2979.25           1621          20.00        63.21
  215.92        2979.50           1625          19.00        58.85
  215.94        2979.75           1628          22.00        71.93
  215.97        2980.00           1631          23.00        76.29
  216.00        2980.25           1635          26.00        89.36
  216.03        2980.50           1638          24.00        80.65
  216.05        2980.75           1641          20.00        63.21
  216.08        2981.00           1645          26.00        89.36
  216.11        2981.25           1648          21.00        67.57
  216.13        2981.50           1651          22.00        71.93
  216.16        2981.75           1655          19.00        58.85
  216.19        2982.00           1658          20.00        63.21
  216.22        2982.25           1661          19.00        58.85
  216.24        2982.50           1665          23.00        76.29
  216.27        2982.75           1668          17.00        50.13
  216.30        2983.00           1671          18.00        54.49
  216.32        2983.25           1675          19.00        58.85
  216.35        2983.50           1678          22.00        71.93
  216.38        2983.75           1681          25.00        85.00
  216.41        2984.00           1685          19.00        58.85
HS scan finished at 03:36:36
end
