************************************************************
  HS Scan of (1) Internal mercury lamp
************************************************************
Integration time is 0.2294 seconds per sample
dh300818Tamanrasset 22.79-5.529 4.974364pr865
************************************************************
Dead Time -------------------------  2.8E-08 
Number of Cycles Used -------------  4 
Starting Wavelength (Angstroms) ---  2950 
Final Wavelength (Angstoms) -------  2984 
Wavelength Increment (Angstroms) --  .25 
Filter Wheel #1 Position ---------- (1) Ground quartz diffuser (ND=2.32)
Filter Wheel #2 Position ---------- (1) Neutral Density 0.494



************************************************************
HS scan start time = 03:31:11
Dark Count =  3.7 


Time (GMT)  Wavelength (Ang)  Step Number  Raw Counts  Counts/Second

  211.55        2950.00           1233          16.00        53.62
  211.61        2950.25           1236          21.00        75.41
  211.64        2950.50           1239          19.00        66.70
  211.67        2950.75           1242          19.00        66.70
  211.69        2951.00           1246          20.00        71.06
  211.72        2951.25           1249          21.00        75.41
  211.75        2951.50           1252          24.00        88.49
  211.78        2951.75           1256          18.00        62.34
  211.80        2952.00           1259          19.00        66.70
  211.83        2952.25           1262          20.00        71.06
  211.86        2952.50           1266          20.00        71.06
  211.89        2952.75           1269          17.00        57.98
  211.91        2953.00           1272          18.00        62.34
  211.94        2953.25           1276          22.00        79.77
  211.97        2953.50           1279          16.00        53.62
  211.99        2953.75           1282          21.00        75.41
  212.02        2954.00           1286          20.00        71.06
  212.05        2954.25           1289          18.00        62.34
  212.08        2954.50           1292          21.00        75.41
  212.10        2954.75           1295          16.00        53.62
  212.13        2955.00           1299          25.00        92.85
  212.16        2955.25           1302          20.00        71.06
  212.18        2955.50           1305          17.00        57.98
  212.21        2955.75           1309          22.00        79.77
  212.24        2956.00           1312          20.00        71.06
  212.27        2956.25           1315          25.00        92.85
  212.29        2956.50           1319          22.00        79.77
  212.32        2956.75           1322          24.00        88.49
  212.35        2957.00           1325          18.00        62.34
  212.38        2957.25           1329          20.00        71.06
  212.40        2957.50           1332          20.00        71.06
  212.43        2957.75           1335          20.00        71.06
  212.46        2958.00           1339          23.00        84.13
  212.48        2958.25           1342          24.00        88.49
  212.51        2958.50           1345          21.00        75.41
  212.54        2958.75           1348          22.00        79.77
  212.57        2959.00           1352          17.00        57.98
  212.59        2959.25           1355          22.00        79.77
  212.62        2959.50           1358          22.00        79.77
  212.65        2959.75           1362          26.00        97.21
  212.68        2960.00           1365          27.00       101.57
  212.70        2960.25           1368          36.00       140.80
  212.73        2960.50           1372          35.00       136.44
  212.76        2960.75           1375          51.00       206.19
  212.78        2961.00           1378         159.00       677.00
  212.81        2961.25           1382         785.00      3406.17
  212.84        2961.50           1385        1796.00      7814.70
  212.87        2961.75           1388        3386.00     14750.21
  212.89        2962.00           1392        6559.00     28598.74
  212.92        2962.25           1395        9299.00     40566.10
  212.95        2962.50           1398       12070.00     52677.03
  212.98        2962.75           1402       15826.00     69106.13
  213.00        2963.00           1405       18747.00     81893.32
  213.03        2963.25           1408       21872.00     95583.72
  213.06        2963.50           1412       25615.00    111995.40
  213.09        2963.75           1415       28347.00    123983.70
  213.11        2964.00           1418       31509.00    137869.00
  213.14        2964.25           1422       35363.00    154807.80
  213.17        2964.50           1425       38100.00    166847.00
  213.20        2964.75           1428       41034.00    179761.70
  213.22        2965.00           1431       44010.00    192870.90
  213.25        2965.25           1435       48135.00    211057.50
  213.28        2965.50           1438       50900.00    223258.30
  213.31        2965.75           1441       53972.00    236823.70
  213.33        2966.00           1445       57625.00    252968.10
  213.36        2966.25           1448       59734.00    262295.50
  213.39        2966.50           1451       61619.00    270636.40
  213.42        2966.75           1455       63114.00    277254.30
  213.44        2967.00           1458       63661.00    279676.40
  213.47        2967.25           1461       63736.00    280008.50
  213.50        2967.50           1465       63399.00    278516.20
  213.53        2967.75           1468       62549.00    274753.00
  213.55        2968.00           1471       61156.00    268587.30
  213.58        2968.25           1475       58564.00    257120.40
  213.61        2968.50           1478       55704.00    244476.50
  213.63        2968.75           1481       52841.00    231828.20
  213.66        2969.00           1485       48409.00    212266.20
  213.69        2969.25           1488       45363.00    198834.10
  213.72        2969.50           1491       42516.00    186288.70
  213.75        2969.75           1495       38475.00    168497.10
  213.77        2970.00           1498       35428.00    155093.60
  213.80        2970.25           1501       32342.00    141528.80
  213.83        2970.50           1505       28443.00    124405.10
  213.85        2970.75           1508       25534.00    111640.10
  213.88        2971.00           1511       22650.00     98993.72
  213.91        2971.25           1515       18720.00     81775.09
  213.94        2971.50           1518       15669.00     68419.10
  213.96        2971.75           1521       12948.00     56516.13
  213.99        2972.00           1525        9184.00     40063.66
  214.02        2972.25           1528        6257.00     27280.20
  214.05        2972.50           1531        3843.00     16744.12
  214.07        2972.75           1535        1449.00      6301.46
  214.10        2973.00           1538         524.00      2268.23
  214.13        2973.25           1541         162.00       690.07
  214.16        2973.50           1545          45.00       180.04
  214.18        2973.75           1548          36.00       140.80
  214.21        2974.00           1551          35.00       136.44
  214.24        2974.25           1555          27.00       101.57
  214.27        2974.50           1558          21.00        75.41
  214.29        2974.75           1561          23.00        84.13
  214.32        2975.00           1565          23.00        84.13
  214.35        2975.25           1568          24.00        88.49
  214.37        2975.50           1571          20.00        71.06
  214.40        2975.75           1575          26.00        97.21
  214.43        2976.00           1578          21.00        75.41
  214.46        2976.25           1581          22.00        79.77
  214.48        2976.50           1585          19.00        66.70
  214.51        2976.75           1588          22.00        79.77
  214.54        2977.00           1591          19.00        66.70
  214.57        2977.25           1595          22.00        79.77
  214.59        2977.50           1598          20.00        71.06
  214.62        2977.75           1601          22.00        79.77
  214.65        2978.00           1605          24.00        88.49
  214.67        2978.25           1608          23.00        84.13
  214.70        2978.50           1611          23.00        84.13
  214.73        2978.75           1615          21.00        75.41
  214.76        2979.00           1618          23.00        84.13
  214.78        2979.25           1621          21.00        75.41
  214.81        2979.50           1625          22.00        79.77
  214.84        2979.75           1628          24.00        88.49
  214.87        2980.00           1631          19.00        66.70
  214.89        2980.25           1635          22.00        79.77
  214.92        2980.50           1638          24.00        88.49
  214.95        2980.75           1641          22.00        79.77
  214.98        2981.00           1645          20.00        71.06
  215.00        2981.25           1648          19.00        66.70
  215.03        2981.50           1651          17.00        57.98
  215.06        2981.75           1655          18.00        62.34
  215.09        2982.00           1658          25.00        92.85
  215.11        2982.25           1661          21.00        75.41
  215.14        2982.50           1665          24.00        88.49
  215.17        2982.75           1668          20.00        71.06
  215.19        2983.00           1671          21.00        75.41
  215.22        2983.25           1675          20.00        71.06
  215.25        2983.50           1678          20.00        71.06
  215.28        2983.75           1681          20.00        71.06
  215.30        2984.00           1685          23.00        84.13
HS scan finished at 03:35:30
end
