************************************************************
  HS Scan of (1) Internal mercury lamp
************************************************************
Integration time is 0.2294 seconds per sample
dh040917Tamanrasset 22.79-5.529 3.230741pr865
************************************************************
Dead Time -------------------------  2.8E-08 
Number of Cycles Used -------------  4 
Starting Wavelength (Angstroms) ---  2950 
Final Wavelength (Angstoms) -------  2984 
Wavelength Increment (Angstroms) --  .25 
Filter Wheel #1 Position ---------- (1) Ground quartz diffuser (ND=2.32)
Filter Wheel #2 Position ---------- (1) Neutral Density 0.494



************************************************************
HS scan start time = 03:33:07
Dark Count =  5 


Time (GMT)  Wavelength (Ang)  Step Number  Raw Counts  Counts/Second

  213.47        2950.00           1233          23.00        78.47
  213.53        2950.25           1236          22.00        74.11
  213.56        2950.50           1239          18.00        56.67
  213.59        2950.75           1242          22.00        74.11
  213.61        2951.00           1246          21.00        69.75
  213.64        2951.25           1249          20.00        65.39
  213.67        2951.50           1252          20.00        65.39
  213.69        2951.75           1256          19.00        61.03
  213.72        2952.00           1259          21.00        69.75
  213.75        2952.25           1262          18.00        56.67
  213.78        2952.50           1266          20.00        65.39
  213.80        2952.75           1269          20.00        65.39
  213.83        2953.00           1272          24.00        82.82
  213.86        2953.25           1276          20.00        65.39
  213.88        2953.50           1279          25.00        87.18
  213.91        2953.75           1282          21.00        69.75
  213.94        2954.00           1286          20.00        65.39
  213.97        2954.25           1289          21.00        69.75
  213.99        2954.50           1292          17.00        52.31
  214.02        2954.75           1295          15.00        43.59
  214.05        2955.00           1299          18.00        56.67
  214.07        2955.25           1302          16.00        47.95
  214.10        2955.50           1305          20.00        65.39
  214.13        2955.75           1309          20.00        65.39
  214.16        2956.00           1312          17.00        52.31
  214.18        2956.25           1315          19.00        61.03
  214.21        2956.50           1319          17.00        52.31
  214.24        2956.75           1322          23.00        78.47
  214.26        2957.00           1325          16.00        47.95
  214.29        2957.25           1329          18.00        56.67
  214.32        2957.50           1332          26.00        91.54
  214.35        2957.75           1335          19.00        61.03
  214.37        2958.00           1339          20.00        65.39
  214.40        2958.25           1342          18.00        56.67
  214.43        2958.50           1345          19.00        61.03
  214.46        2958.75           1348          24.00        82.82
  214.48        2959.00           1352          24.00        82.82
  214.51        2959.25           1355          20.00        65.39
  214.54        2959.50           1358          24.00        82.82
  214.56        2959.75           1362          25.00        87.18
  214.59        2960.00           1365          27.00        95.90
  214.62        2960.25           1368          26.00        91.54
  214.65        2960.50           1372          31.00       113.34
  214.67        2960.75           1375          39.00       148.21
  214.70        2961.00           1378         110.00       457.72
  214.73        2961.25           1382         545.00      2354.12
  214.75        2961.50           1385        1363.00      5920.77
  214.78        2961.75           1388        2720.00     11839.15
  214.81        2962.00           1392        5502.00     23978.61
  214.84        2962.25           1395        8207.00     35789.99
  214.86        2962.50           1398       11367.00     49598.04
  214.89        2962.75           1402       14834.00     64759.87
  214.92        2963.00           1405       17904.00     78196.31
  214.95        2963.25           1408       20779.00     90788.48
  214.97        2963.50           1412       24739.00    108147.40
  215.00        2963.75           1415       27878.00    121919.40
  215.03        2964.00           1418       30877.00    135087.10
  215.05        2964.25           1422       34819.00    152410.20
  215.08        2964.50           1425       37758.00    165336.40
  215.11        2964.75           1428       40888.00    179113.10
  215.14        2965.00           1431       44065.00    193107.60
  215.16        2965.25           1435       47976.00    210350.40
  215.19        2965.50           1438       51032.00    223835.30
  215.22        2965.75           1441       54211.00    237873.80
  215.25        2966.00           1445       58437.00    256553.00
  215.27        2966.25           1448       60774.00    266891.10
  215.30        2966.50           1451       62884.00    276230.30
  215.33        2966.75           1455       64744.00    284467.00
  215.36        2967.00           1458       65692.00    288666.40
  215.38        2967.25           1461       65528.00    287939.90
  215.41        2967.50           1465       65182.00    286407.10
  215.44        2967.75           1468       64902.00    285166.80
  215.46        2968.00           1471       63856.00    280534.10
  215.49        2968.25           1475       61286.00    269156.90
  215.52        2968.50           1478       58956.00    258848.40
  215.55        2968.75           1481       55595.00    243989.00
  215.57        2969.00           1485       51783.00    227150.70
  215.60        2969.25           1488       48401.00    212225.10
  215.63        2969.50           1491       45201.00    198114.30
  215.66        2969.75           1495       40667.00    178140.00
  215.68        2970.00           1498       37591.00    164601.70
  215.71        2970.25           1501       34820.00    152414.60
  215.74        2970.50           1505       30524.00    133536.70
  215.77        2970.75           1508       27519.00    120343.80
  215.79        2971.00           1511       24373.00    106542.30
  215.82        2971.25           1515       20407.00     89158.66
  215.85        2971.50           1518       17045.00     74435.71
  215.87        2971.75           1521       14282.00     62345.01
  215.90        2972.00           1525       10189.00     44449.36
  215.93        2972.25           1528        6995.00     30496.83
  215.96        2972.50           1531        4531.00     19740.64
  215.98        2972.75           1535        1748.00      7599.70
  216.01        2973.00           1538         681.00      2947.06
  216.04        2973.25           1541         206.00       876.22
  216.06        2973.50           1545          55.00       217.96
  216.09        2973.75           1548          40.00       152.57
  216.12        2974.00           1551          39.00       148.21
  216.15        2974.25           1555          31.00       113.34
  216.17        2974.50           1558          32.00       117.70
  216.20        2974.75           1561          30.00       108.98
  216.23        2975.00           1565          22.00        74.11
  216.25        2975.25           1568          26.00        91.54
  216.28        2975.50           1571          21.00        69.75
  216.31        2975.75           1575          24.00        82.82
  216.34        2976.00           1578          21.00        69.75
  216.36        2976.25           1581          25.00        87.18
  216.39        2976.50           1585          22.00        74.11
  216.42        2976.75           1588          26.00        91.54
  216.44        2977.00           1591          22.00        74.11
  216.47        2977.25           1595          22.00        74.11
  216.50        2977.50           1598          25.00        87.18
  216.53        2977.75           1601          19.00        61.03
  216.55        2978.00           1605          24.00        82.82
  216.58        2978.25           1608          23.00        78.47
  216.61        2978.50           1611          20.00        65.39
  216.64        2978.75           1615          21.00        69.75
  216.66        2979.00           1618          18.00        56.67
  216.69        2979.25           1621          18.00        56.67
  216.72        2979.50           1625          18.00        56.67
  216.74        2979.75           1628          20.00        65.39
  216.77        2980.00           1631          22.00        74.11
  216.80        2980.25           1635          25.00        87.18
  216.83        2980.50           1638          20.00        65.39
  216.85        2980.75           1641          22.00        74.11
  216.88        2981.00           1645          17.00        52.31
  216.91        2981.25           1648          17.00        52.31
  216.94        2981.50           1651          19.00        61.03
  216.96        2981.75           1655          20.00        65.39
  216.99        2982.00           1658          14.00        39.23
  217.02        2982.25           1661          21.00        69.75
  217.04        2982.50           1665          16.00        47.95
  217.07        2982.75           1668          25.00        87.18
  217.10        2983.00           1671          20.00        65.39
  217.13        2983.25           1675          21.00        69.75
  217.15        2983.50           1678          20.00        65.39
  217.18        2983.75           1681          20.00        65.39
  217.21        2984.00           1685          21.00        69.75
HS scan finished at 03:37:24
end
