************************************************************
  HS Scan of (1) Internal mercury lamp
************************************************************
Integration time is 0.2294 seconds per sample
dh120918Tamanrasset 22.79-5.529 4.974364pr865
************************************************************
Dead Time -------------------------  2.8E-08 
Number of Cycles Used -------------  4 
Starting Wavelength (Angstroms) ---  2950 
Final Wavelength (Angstoms) -------  2984 
Wavelength Increment (Angstroms) --  .25 
Filter Wheel #1 Position ---------- (1) Ground quartz diffuser (ND=2.32)
Filter Wheel #2 Position ---------- (1) Neutral Density 0.494



************************************************************
HS scan start time = 03:37:11
Dark Count =  4.8 


Time (GMT)  Wavelength (Ang)  Step Number  Raw Counts  Counts/Second

  217.54        2950.00           1233          20.00        66.26
  217.60        2950.25           1236          21.00        70.62
  217.63        2950.50           1239          22.00        74.98
  217.66        2950.75           1242          18.00        57.54
  217.68        2951.00           1246          22.00        74.98
  217.71        2951.25           1249          23.00        79.34
  217.74        2951.50           1252          22.00        74.98
  217.76        2951.75           1256          16.00        48.82
  217.79        2952.00           1259          18.00        57.54
  217.82        2952.25           1262          21.00        70.62
  217.85        2952.50           1266          19.00        61.90
  217.87        2952.75           1269          23.00        79.34
  217.90        2953.00           1272          19.00        61.90
  217.93        2953.25           1276          17.00        53.18
  217.95        2953.50           1279          20.00        66.26
  217.98        2953.75           1282          22.00        74.98
  218.01        2954.00           1286          19.00        61.90
  218.04        2954.25           1289          19.00        61.90
  218.06        2954.50           1292          24.00        83.70
  218.09        2954.75           1295          22.00        74.98
  218.12        2955.00           1299          21.00        70.62
  218.15        2955.25           1302          18.00        57.54
  218.17        2955.50           1305          23.00        79.34
  218.20        2955.75           1309          23.00        79.34
  218.23        2956.00           1312          20.00        66.26
  218.25        2956.25           1315          16.00        48.82
  218.28        2956.50           1319          21.00        70.62
  218.31        2956.75           1322          22.00        74.98
  218.34        2957.00           1325          21.00        70.62
  218.36        2957.25           1329          16.00        48.82
  218.39        2957.50           1332          18.00        57.54
  218.42        2957.75           1335          19.00        61.90
  218.44        2958.00           1339          20.00        66.26
  218.47        2958.25           1342          18.00        57.54
  218.50        2958.50           1345          21.00        70.62
  218.53        2958.75           1348          21.00        70.62
  218.55        2959.00           1352          16.00        48.82
  218.58        2959.25           1355          23.00        79.34
  218.61        2959.50           1358          20.00        66.26
  218.63        2959.75           1362          23.00        79.34
  218.66        2960.00           1365          24.00        83.70
  218.69        2960.25           1368          31.00       114.21
  218.72        2960.50           1372          31.00       114.21
  218.74        2960.75           1375          36.00       136.01
  218.77        2961.00           1378          84.00       345.25
  218.80        2961.25           1382         457.00      1971.34
  218.82        2961.50           1385        1135.00      4927.45
  218.85        2961.75           1388        2362.00     10278.46
  218.88        2962.00           1392        5115.00     22290.28
  218.91        2962.25           1395        7745.00     33772.99
  218.93        2962.50           1398       10386.00     45311.16
  218.96        2962.75           1402       13907.00     60705.55
  218.99        2963.00           1405       16759.00     73184.69
  219.02        2963.25           1408       19578.00     85528.03
  219.04        2963.50           1412       23097.00    100948.40
  219.07        2963.75           1415       25980.00    113591.80
  219.10        2964.00           1418       28836.00    126125.50
  219.12        2964.25           1422       32589.00    142609.30
  219.15        2964.50           1425       35361.00    154794.10
  219.18        2964.75           1428       38459.00    168421.90
  219.21        2965.00           1431       41241.00    180668.40
  219.23        2965.25           1435       45075.00    197559.80
  219.26        2965.50           1438       48244.00    211533.40
  219.29        2965.75           1441       51192.00    224542.50
  219.32        2966.00           1445       54920.00    241007.10
  219.34        2966.25           1448       57042.00    250385.70
  219.37        2966.50           1451       59062.00    259318.10
  219.40        2966.75           1455       60613.00    266179.60
  219.42        2967.00           1458       61550.00    270326.10
  219.45        2967.25           1461       61848.00    271645.10
  219.48        2967.50           1465       61568.00    270405.80
  219.51        2967.75           1468       60890.00    267405.30
  219.53        2968.00           1471       59743.00    262330.50
  219.56        2968.25           1475       57438.00    252136.50
  219.59        2968.50           1478       54827.00    240596.20
  219.62        2968.75           1481       52057.00    228361.40
  219.64        2969.00           1485       48147.00    211105.60
  219.67        2969.25           1488       45030.00    197361.40
  219.70        2969.50           1491       41974.00    183896.50
  219.73        2969.75           1495       38306.00    167748.60
  219.75        2970.00           1498       35331.00    154662.20
  219.78        2970.25           1501       32516.00    142288.50
  219.81        2970.50           1505       28624.00    125194.90
  219.83        2970.75           1508       25702.00    112372.20
  219.86        2971.00           1511       22778.00     99549.99
  219.89        2971.25           1515       18940.00     82733.71
  219.92        2971.50           1518       16111.00     70348.56
  219.94        2971.75           1521       13269.00     57915.12
  219.97        2972.00           1525        9548.00     41649.24
  220.00        2972.25           1528        6801.00     29650.59
  220.03        2972.50           1531        4431.00     19305.12
  220.05        2972.75           1535        1926.00      8376.86
  220.08        2973.00           1538         746.00      3231.33
  220.11        2973.25           1541         228.00       973.00
  220.13        2973.50           1545          59.00       236.27
  220.16        2973.75           1548          42.00       162.16
  220.19        2974.00           1551          30.00       109.85
  220.22        2974.25           1555          27.00        96.77
  220.24        2974.50           1558          26.00        92.42
  220.27        2974.75           1561          27.00        96.77
  220.30        2975.00           1565          31.00       114.21
  220.32        2975.25           1568          24.00        83.70
  220.35        2975.50           1571          22.00        74.98
  220.38        2975.75           1575          23.00        79.34
  220.41        2976.00           1578          23.00        79.34
  220.43        2976.25           1581          22.00        74.98
  220.46        2976.50           1585          23.00        79.34
  220.49        2976.75           1588          22.00        74.98
  220.52        2977.00           1591          22.00        74.98
  220.54        2977.25           1595          26.00        92.42
  220.57        2977.50           1598          16.00        48.82
  220.60        2977.75           1601          24.00        83.70
  220.62        2978.00           1605          23.00        79.34
  220.65        2978.25           1608          23.00        79.34
  220.68        2978.50           1611          23.00        79.34
  220.71        2978.75           1615          21.00        70.62
  220.73        2979.00           1618          25.00        88.06
  220.76        2979.25           1621          20.00        66.26
  220.79        2979.50           1625          17.00        53.18
  220.81        2979.75           1628          19.00        61.90
  220.84        2980.00           1631          23.00        79.34
  220.87        2980.25           1635          19.00        61.90
  220.90        2980.50           1638          19.00        61.90
  220.92        2980.75           1641          19.00        61.90
  220.95        2981.00           1645          16.00        48.82
  220.98        2981.25           1648          19.00        61.90
  221.00        2981.50           1651          17.00        53.18
  221.03        2981.75           1655          23.00        79.34
  221.06        2982.00           1658          18.00        57.54
  221.09        2982.25           1661          22.00        74.98
  221.11        2982.50           1665          24.00        83.70
  221.14        2982.75           1668          18.00        57.54
  221.17        2983.00           1671          18.00        57.54
  221.19        2983.25           1675          18.00        57.54
  221.22        2983.50           1678          26.00        92.42
  221.25        2983.75           1681          20.00        66.26
  221.28        2984.00           1685          15.00        44.46
HS scan finished at 03:41:28
end
