************************************************************
  HS Scan of (1) Internal mercury lamp
************************************************************
Integration time is 0.2294 seconds per sample
dh090917Tamanrasset 22.79-5.529 3.138972pr865
************************************************************
Dead Time -------------------------  2.8E-08 
Number of Cycles Used -------------  4 
Starting Wavelength (Angstroms) ---  2950 
Final Wavelength (Angstoms) -------  2984 
Wavelength Increment (Angstroms) --  .25 
Filter Wheel #1 Position ---------- (1) Ground quartz diffuser (ND=2.32)
Filter Wheel #2 Position ---------- (1) Neutral Density 0.494



************************************************************
HS scan start time = 03:35:19
Dark Count =  4.1 


Time (GMT)  Wavelength (Ang)  Step Number  Raw Counts  Counts/Second

  215.67        2950.00           1233          20.00        69.31
  215.74        2950.25           1236          15.00        47.52
  215.76        2950.50           1239          25.00        91.11
  215.79        2950.75           1242          21.00        73.67
  215.82        2951.00           1246          19.00        64.95
  215.85        2951.25           1249          17.00        56.23
  215.87        2951.50           1252          21.00        73.67
  215.90        2951.75           1256          20.00        69.31
  215.93        2952.00           1259          17.00        56.23
  215.96        2952.25           1262          20.00        69.31
  215.98        2952.50           1266          18.00        60.59
  216.01        2952.75           1269          16.00        51.87
  216.04        2953.00           1272          23.00        82.39
  216.06        2953.25           1276          24.00        86.75
  216.09        2953.50           1279          18.00        60.59
  216.12        2953.75           1282          20.00        69.31
  216.15        2954.00           1286          16.00        51.87
  216.17        2954.25           1289          17.00        56.23
  216.20        2954.50           1292          17.00        56.23
  216.23        2954.75           1295          20.00        69.31
  216.25        2955.00           1299          21.00        73.67
  216.28        2955.25           1302          21.00        73.67
  216.31        2955.50           1305          20.00        69.31
  216.34        2955.75           1309          17.00        56.23
  216.36        2956.00           1312          17.00        56.23
  216.39        2956.25           1315          21.00        73.67
  216.42        2956.50           1319          19.00        64.95
  216.44        2956.75           1322          21.00        73.67
  216.47        2957.00           1325          21.00        73.67
  216.50        2957.25           1329          18.00        60.59
  216.52        2957.50           1332          20.00        69.31
  216.55        2957.75           1335          19.00        64.95
  216.58        2958.00           1339          19.00        64.95
  216.61        2958.25           1342          18.00        60.59
  216.63        2958.50           1345          20.00        69.31
  216.66        2958.75           1348          19.00        64.95
  216.69        2959.00           1352          19.00        64.95
  216.71        2959.25           1355          19.00        64.95
  216.74        2959.50           1358          17.00        56.23
  216.77        2959.75           1362          22.00        78.03
  216.80        2960.00           1365          20.00        69.31
  216.82        2960.25           1368          27.00        99.83
  216.85        2960.50           1372          33.00       125.98
  216.88        2960.75           1375          40.00       156.50
  216.90        2961.00           1378         141.00       596.78
  216.93        2961.25           1382         655.00      2837.63
  216.96        2961.50           1385        1518.00      6600.61
  216.99        2961.75           1388        3038.00     13230.27
  217.01        2962.00           1392        5864.00     25562.76
  217.04        2962.25           1395        8424.00     36741.79
  217.07        2962.50           1398       11211.00     48920.06
  217.10        2962.75           1402       15071.00     65800.73
  217.12        2963.00           1405       18043.00     78808.85
  217.15        2963.25           1408       20762.00     90717.94
  217.18        2963.50           1412       24733.00    108125.00
  217.21        2963.75           1415       27310.00    119430.60
  217.23        2964.00           1418       30392.00    132961.00
  217.26        2964.25           1422       34326.00    150246.70
  217.29        2964.50           1425       36972.00    161882.50
  217.31        2964.75           1428       40005.00    175229.50
  217.34        2965.00           1431       42963.00    188256.10
  217.37        2965.25           1435       47067.00    206345.30
  217.40        2965.50           1438       50095.00    219703.50
  217.42        2965.75           1441       53044.00    232723.00
  217.45        2966.00           1445       56643.00    248625.00
  217.48        2966.25           1448       58948.00    258817.00
  217.51        2966.50           1451       61052.00    268125.30
  217.53        2966.75           1455       62839.00    276035.00
  217.56        2967.00           1458       63194.00    277606.80
  217.59        2967.25           1461       63028.00    276871.80
  217.62        2967.50           1465       63230.00    277766.10
  217.64        2967.75           1468       62427.00    274211.10
  217.67        2968.00           1471       61207.00    268811.30
  217.70        2968.25           1475       58782.00    258082.80
  217.73        2968.50           1478       56075.00    246114.40
  217.75        2968.75           1481       53456.00    234542.70
  217.78        2969.00           1485       49412.00    216689.60
  217.81        2969.25           1488       46632.00    204427.10
  217.84        2969.50           1491       43226.00    189414.70
  217.86        2969.75           1495       39441.00    172746.80
  217.89        2970.00           1498       36320.00    159014.60
  217.92        2970.25           1501       33410.00    146220.40
  217.95        2970.50           1505       29252.00    127955.00
  217.97        2970.75           1508       26065.00    113967.70
  218.00        2971.00           1511       23277.00    101740.60
  218.03        2971.25           1515       19093.00     83406.86
  218.05        2971.50           1518       16211.00     70789.27
  218.08        2971.75           1521       13407.00     58521.72
  218.11        2972.00           1525        9804.00     42770.90
  218.14        2972.25           1528        6967.00     30378.49
  218.16        2972.50           1531        4395.00     19151.07
  218.19        2972.75           1535        1840.00      8004.85
  218.22        2973.00           1538         722.00      3129.74
  218.25        2973.25           1541         213.00       910.66
  218.27        2973.50           1545          60.00       243.68
  218.30        2973.75           1548          41.00       160.86
  218.33        2974.00           1551          33.00       125.98
  218.35        2974.25           1555          32.00       121.62
  218.38        2974.50           1558          27.00        99.83
  218.41        2974.75           1561          21.00        73.67
  218.44        2975.00           1565          21.00        73.67
  218.46        2975.25           1568          27.00        99.83
  218.49        2975.50           1571          24.00        86.75
  218.52        2975.75           1575          21.00        73.67
  218.54        2976.00           1578          22.00        78.03
  218.57        2976.25           1581          23.00        82.39
  218.60        2976.50           1585          20.00        69.31
  218.63        2976.75           1588          21.00        73.67
  218.65        2977.00           1591          20.00        69.31
  218.68        2977.25           1595          21.00        73.67
  218.71        2977.50           1598          18.00        60.59
  218.73        2977.75           1601          19.00        64.95
  218.76        2978.00           1605          22.00        78.03
  218.79        2978.25           1608          24.00        86.75
  218.82        2978.50           1611          18.00        60.59
  218.84        2978.75           1615          20.00        69.31
  218.87        2979.00           1618          19.00        64.95
  218.90        2979.25           1621          18.00        60.59
  218.93        2979.50           1625          19.00        64.95
  218.95        2979.75           1628          20.00        69.31
  218.98        2980.00           1631          23.00        82.39
  219.01        2980.25           1635          21.00        73.67
  219.03        2980.50           1638          17.00        56.23
  219.06        2980.75           1641          19.00        64.95
  219.09        2981.00           1645          26.00        95.47
  219.12        2981.25           1648          23.00        82.39
  219.14        2981.50           1651          20.00        69.31
  219.17        2981.75           1655          25.00        91.11
  219.20        2982.00           1658          24.00        86.75
  219.22        2982.25           1661          23.00        82.39
  219.25        2982.50           1665          22.00        78.03
  219.28        2982.75           1668          19.00        64.95
  219.31        2983.00           1671          21.00        73.67
  219.33        2983.25           1675          21.00        73.67
  219.36        2983.50           1678          14.00        43.16
  219.39        2983.75           1681          19.00        64.95
  219.41        2984.00           1685          18.00        60.59
HS scan finished at 03:39:36
end
