************************************************************
  HS Scan of (1) Internal mercury lamp
************************************************************
Integration time is 0.2294 seconds per sample
dh160918Tamanrasset 22.79-5.529 4.974364pr865
************************************************************
Dead Time -------------------------  2.8E-08 
Number of Cycles Used -------------  4 
Starting Wavelength (Angstroms) ---  2950 
Final Wavelength (Angstoms) -------  2984 
Wavelength Increment (Angstroms) --  .25 
Filter Wheel #1 Position ---------- (1) Ground quartz diffuser (ND=2.32)
Filter Wheel #2 Position ---------- (1) Neutral Density 0.494



************************************************************
HS scan start time = 03:36:16
Dark Count =  4.7 


Time (GMT)  Wavelength (Ang)  Step Number  Raw Counts  Counts/Second

  216.63        2950.00           1233          19.00        62.34
  216.69        2950.25           1236          23.00        79.77
  216.72        2950.50           1239          23.00        79.77
  216.75        2950.75           1242          15.00        44.90
  216.77        2951.00           1246          20.00        66.70
  216.80        2951.25           1249          23.00        79.77
  216.83        2951.50           1252          17.00        53.62
  216.85        2951.75           1256          23.00        79.77
  216.88        2952.00           1259          24.00        84.13
  216.91        2952.25           1262          19.00        62.34
  216.94        2952.50           1266          18.00        57.98
  216.96        2952.75           1269          17.00        53.62
  216.99        2953.00           1272          21.00        71.06
  217.02        2953.25           1276          20.00        66.70
  217.05        2953.50           1279          15.00        44.90
  217.07        2953.75           1282          22.00        75.41
  217.10        2954.00           1286          18.00        57.98
  217.13        2954.25           1289          20.00        66.70
  217.15        2954.50           1292          19.00        62.34
  217.18        2954.75           1295          18.00        57.98
  217.21        2955.00           1299          22.00        75.41
  217.24        2955.25           1302          19.00        62.34
  217.26        2955.50           1305          24.00        84.13
  217.29        2955.75           1309          19.00        62.34
  217.32        2956.00           1312          21.00        71.06
  217.34        2956.25           1315          24.00        84.13
  217.37        2956.50           1319          15.00        44.90
  217.40        2956.75           1322          20.00        66.70
  217.43        2957.00           1325          16.00        49.26
  217.45        2957.25           1329          22.00        75.41
  217.48        2957.50           1332          15.00        44.90
  217.51        2957.75           1335          21.00        71.06
  217.54        2958.00           1339          17.00        53.62
  217.56        2958.25           1342          18.00        57.98
  217.59        2958.50           1345          20.00        66.70
  217.62        2958.75           1348          19.00        62.34
  217.64        2959.00           1352          20.00        66.70
  217.67        2959.25           1355          22.00        75.41
  217.70        2959.50           1358          21.00        71.06
  217.73        2959.75           1362          22.00        75.41
  217.75        2960.00           1365          25.00        88.49
  217.78        2960.25           1368          24.00        84.13
  217.81        2960.50           1372          37.00       140.80
  217.83        2960.75           1375          49.00       193.11
  217.86        2961.00           1378         152.00       642.12
  217.89        2961.25           1382         702.00      3039.93
  217.92        2961.50           1385        1689.00      7343.71
  217.94        2961.75           1388        3252.00     14161.24
  217.97        2962.00           1392        6258.00     27280.20
  218.00        2962.25           1395        9060.00     39517.55
  218.02        2962.50           1398       12084.00     52733.87
  218.05        2962.75           1402       15805.00     69009.85
  218.08        2963.00           1405       18626.00     81359.06
  218.11        2963.25           1408       21718.00     94904.44
  218.13        2963.50           1412       25418.00    111126.90
  218.16        2963.75           1415       28215.00    123399.90
  218.19        2964.00           1418       31373.00    137267.20
  218.22        2964.25           1422       35305.00    154548.40
  218.24        2964.50           1425       38280.00    167634.60
  218.27        2964.75           1428       41472.00    181686.10
  218.30        2965.00           1431       44499.00    195021.50
  218.33        2965.25           1435       48306.00    211807.40
  218.35        2965.50           1438       51256.00    224825.40
  218.38        2965.75           1441       54483.00    239076.80
  218.41        2966.00           1445       58214.00    255568.20
  218.44        2966.25           1448       60711.00    266613.70
  218.46        2966.50           1451       62699.00    275412.60
  218.49        2966.75           1455       64026.00    281288.30
  218.52        2967.00           1458       64910.00    285203.50
  218.54        2967.25           1461       64735.00    284428.40
  218.57        2967.50           1465       64632.00    283972.20
  218.60        2967.75           1468       64069.00    281478.70
  218.63        2968.00           1471       62540.00    274708.70
  218.66        2968.25           1475       60115.00    263976.70
  218.68        2968.50           1478       57412.00    252022.00
  218.71        2968.75           1481       54484.00    239081.20
  218.74        2969.00           1485       49968.00    219140.50
  218.76        2969.25           1488       46970.00    205914.90
  218.79        2969.50           1491       43845.00    192139.50
  218.82        2969.75           1495       39683.00    173809.40
  218.85        2970.00           1498       36801.00    161127.70
  218.87        2970.25           1501       33563.00    146890.20
  218.90        2970.50           1505       29779.00    130266.40
  218.93        2970.75           1508       26775.00    117080.20
  218.96        2971.00           1511       23807.00    104061.70
  218.98        2971.25           1515       19499.00     85182.44
  219.01        2971.50           1518       16540.00     72226.57
  219.04        2971.75           1521       13735.00     59953.66
  219.06        2972.00           1525        9745.00     42510.47
  219.09        2972.25           1528        6740.00     29384.68
  219.12        2972.50           1531        4260.00     18559.34
  219.15        2972.75           1535        1676.00      7287.01
  219.17        2973.00           1538         650.00      2813.21
  219.20        2973.25           1541         195.00       829.57
  219.23        2973.50           1545          52.00       206.19
  219.25        2973.75           1548          44.00       171.32
  219.28        2974.00           1551          33.00       123.37
  219.31        2974.25           1555          31.00       114.65
  219.34        2974.50           1558          26.00        92.85
  219.36        2974.75           1561          26.00        92.85
  219.39        2975.00           1565          23.00        79.77
  219.42        2975.25           1568          28.00       101.57
  219.44        2975.50           1571          22.00        75.41
  219.47        2975.75           1575          20.00        66.70
  219.50        2976.00           1578          24.00        84.13
  219.53        2976.25           1581          21.00        71.06
  219.55        2976.50           1585          20.00        66.70
  219.58        2976.75           1588          23.00        79.77
  219.61        2977.00           1591          27.00        97.21
  219.63        2977.25           1595          22.00        75.41
  219.66        2977.50           1598          25.00        88.49
  219.69        2977.75           1601          20.00        66.70
  219.72        2978.00           1605          23.00        79.77
  219.75        2978.25           1608          23.00        79.77
  219.77        2978.50           1611          20.00        66.70
  219.80        2978.75           1615          24.00        84.13
  219.83        2979.00           1618          21.00        71.06
  219.86        2979.25           1621          29.00       105.93
  219.88        2979.50           1625          21.00        71.06
  219.91        2979.75           1628          23.00        79.77
  219.94        2980.00           1631          22.00        75.41
  219.96        2980.25           1635          22.00        75.41
  219.99        2980.50           1638          21.00        71.06
  220.02        2980.75           1641          23.00        79.77
  220.05        2981.00           1645          25.00        88.49
  220.07        2981.25           1648          22.00        75.41
  220.10        2981.50           1651          20.00        66.70
  220.13        2981.75           1655          22.00        75.41
  220.15        2982.00           1658          19.00        62.34
  220.18        2982.25           1661          20.00        66.70
  220.21        2982.50           1665          20.00        66.70
  220.24        2982.75           1668          20.00        66.70
  220.26        2983.00           1671          20.00        66.70
  220.29        2983.25           1675          15.00        44.90
  220.32        2983.50           1678          21.00        71.06
  220.34        2983.75           1681          23.00        79.77
  220.37        2984.00           1685          19.00        62.34
HS scan finished at 03:40:34
end
