************************************************************
  HS Scan of (1) Internal mercury lamp
************************************************************
Integration time is 0.2294 seconds per sample
dh160917Tamanrasset 22.79-5.529 3.179758pr865
************************************************************
Dead Time -------------------------  2.8E-08 
Number of Cycles Used -------------  4 
Starting Wavelength (Angstroms) ---  2950 
Final Wavelength (Angstoms) -------  2984 
Wavelength Increment (Angstroms) --  .25 
Filter Wheel #1 Position ---------- (1) Ground quartz diffuser (ND=2.32)
Filter Wheel #2 Position ---------- (1) Neutral Density 0.494



************************************************************
HS scan start time = 03:37:48
Dark Count =  4.9 


Time (GMT)  Wavelength (Ang)  Step Number  Raw Counts  Counts/Second

  218.16        2950.00           1233          19.00        61.46
  218.22        2950.25           1236          19.00        61.46
  218.25        2950.50           1239          20.00        65.82
  218.28        2950.75           1242          20.00        65.82
  218.30        2951.00           1246          22.00        74.54
  218.33        2951.25           1249          15.00        44.03
  218.36        2951.50           1252          22.00        74.54
  218.38        2951.75           1256          22.00        74.54
  218.41        2952.00           1259          19.00        61.46
  218.44        2952.25           1262          21.00        70.18
  218.47        2952.50           1266          21.00        70.18
  218.49        2952.75           1269          22.00        74.54
  218.52        2953.00           1272          16.00        48.39
  218.55        2953.25           1276          20.00        65.82
  218.57        2953.50           1279          25.00        87.62
  218.60        2953.75           1282          17.00        52.75
  218.63        2954.00           1286          25.00        87.62
  218.66        2954.25           1289          19.00        61.46
  218.68        2954.50           1292          20.00        65.82
  218.71        2954.75           1295          20.00        65.82
  218.74        2955.00           1299          16.00        48.39
  218.76        2955.25           1302          17.00        52.75
  218.79        2955.50           1305          21.00        70.18
  218.82        2955.75           1309          20.00        65.82
  218.85        2956.00           1312          21.00        70.18
  218.87        2956.25           1315          20.00        65.82
  218.90        2956.50           1319          24.00        83.26
  218.93        2956.75           1322          18.00        57.11
  218.95        2957.00           1325          22.00        74.54
  218.98        2957.25           1329          18.00        57.11
  219.01        2957.50           1332          19.00        61.46
  219.04        2957.75           1335          22.00        74.54
  219.06        2958.00           1339          17.00        52.75
  219.09        2958.25           1342          15.00        44.03
  219.12        2958.50           1345          21.00        70.18
  219.14        2958.75           1348          15.00        44.03
  219.17        2959.00           1352          20.00        65.82
  219.20        2959.25           1355          24.00        83.26
  219.23        2959.50           1358          24.00        83.26
  219.25        2959.75           1362          27.00        96.34
  219.28        2960.00           1365          28.00       100.70
  219.31        2960.25           1368          31.00       113.78
  219.33        2960.50           1372          35.00       131.21
  219.36        2960.75           1375          40.00       153.01
  219.39        2961.00           1378         110.00       458.16
  219.42        2961.25           1382         512.00      2210.69
  219.44        2961.50           1385        1278.00      5550.56
  219.47        2961.75           1388        2629.00     11442.64
  219.50        2962.00           1392        5511.00     24018.33
  219.52        2962.25           1395        8047.00     35091.57
  219.55        2962.50           1398       11207.00     48899.08
  219.58        2962.75           1402       14955.00     65289.69
  219.61        2963.00           1405       17703.00     77316.73
  219.63        2963.25           1408       20784.00     90810.82
  219.66        2963.50           1412       24769.00    108279.40
  219.69        2963.75           1415       27515.00    120326.70
  219.72        2964.00           1418       30427.00    133111.20
  219.74        2964.25           1422       34184.00    149619.00
  219.77        2964.50           1425       37005.00    162024.20
  219.80        2964.75           1428       40174.00    175970.00
  219.83        2965.00           1431       43152.00    189085.20
  219.85        2965.25           1435       47015.00    206112.40
  219.88        2965.50           1438       50431.00    221183.00
  219.91        2965.75           1441       53309.00    233889.90
  219.94        2966.00           1445       57172.00    250960.00
  219.96        2966.25           1448       59808.00    262617.60
  219.99        2966.50           1451       61617.00    270622.20
  220.02        2966.75           1455       63387.00    278457.80
  220.04        2967.00           1458       64225.00    282168.70
  220.07        2967.25           1461       64151.00    281841.00
  220.10        2967.50           1465       64185.00    281991.60
  220.13        2967.75           1468       63898.00    280720.60
  220.15        2968.00           1471       62524.00    274637.00
  220.18        2968.25           1475       60015.00    263533.40
  220.21        2968.50           1478       57640.00    253029.20
  220.24        2968.75           1481       54533.00    239296.80
  220.26        2969.00           1485       50455.00    221288.90
  220.29        2969.25           1488       47037.00    206209.50
  220.32        2969.50           1491       43936.00    192539.60
  220.34        2969.75           1495       39696.00    173865.70
  220.37        2970.00           1498       36829.00    161249.90
  220.40        2970.25           1501       33589.00    147003.60
  220.43        2970.50           1505       29501.00    129044.80
  220.45        2970.75           1508       26582.00    116232.50
  220.48        2971.00           1511       23634.00    103302.30
  220.51        2971.25           1515       19653.00     85856.09
  220.54        2971.50           1518       16714.00     72987.28
  220.56        2971.75           1521       13766.00     60088.37
  220.59        2972.00           1525       10006.00     43650.09
  220.62        2972.25           1528        6875.00     29973.27
  220.65        2972.50           1531        4362.00     19003.57
  220.67        2972.75           1535        1904.00      8280.47
  220.70        2973.00           1538         738.00      3196.01
  220.73        2973.25           1541         210.00       894.09
  220.75        2973.50           1545          52.00       205.32
  220.78        2973.75           1548          37.00       139.93
  220.81        2974.00           1551          31.00       113.78
  220.84        2974.25           1555          29.00       105.06
  220.86        2974.50           1558          19.00        61.46
  220.89        2974.75           1561          28.00       100.70
  220.92        2975.00           1565          22.00        74.54
  220.94        2975.25           1568          24.00        83.26
  220.97        2975.50           1571          17.00        52.75
  221.00        2975.75           1575          23.00        78.90
  221.03        2976.00           1578          23.00        78.90
  221.05        2976.25           1581          23.00        78.90
  221.08        2976.50           1585          22.00        74.54
  221.11        2976.75           1588          25.00        87.62
  221.13        2977.00           1591          27.00        96.34
  221.16        2977.25           1595          21.00        70.18
  221.19        2977.50           1598          26.00        91.98
  221.22        2977.75           1601          19.00        61.46
  221.24        2978.00           1605          19.00        61.46
  221.27        2978.25           1608          23.00        78.90
  221.30        2978.50           1611          22.00        74.54
  221.32        2978.75           1615          23.00        78.90
  221.35        2979.00           1618          19.00        61.46
  221.38        2979.25           1621          17.00        52.75
  221.41        2979.50           1625          21.00        70.18
  221.43        2979.75           1628          24.00        83.26
  221.46        2980.00           1631          25.00        87.62
  221.49        2980.25           1635          23.00        78.90
  221.51        2980.50           1638          20.00        65.82
  221.54        2980.75           1641          21.00        70.18
  221.57        2981.00           1645          21.00        70.18
  221.60        2981.25           1648          20.00        65.82
  221.62        2981.50           1651          20.00        65.82
  221.65        2981.75           1655          23.00        78.90
  221.68        2982.00           1658          17.00        52.75
  221.70        2982.25           1661          21.00        70.18
  221.73        2982.50           1665          20.00        65.82
  221.76        2982.75           1668          19.00        61.46
  221.79        2983.00           1671          20.00        65.82
  221.81        2983.25           1675          16.00        48.39
  221.84        2983.50           1678          20.00        65.82
  221.87        2983.75           1681          15.00        44.03
  221.89        2984.00           1685          19.00        61.46
HS scan finished at 03:42:05
end
