************************************************************
  HS Scan of (1) Internal mercury lamp
************************************************************
Integration time is 0.2294 seconds per sample
dh100918Tamanrasset 22.79-5.529 4.974364pr865
************************************************************
Dead Time -------------------------  2.8E-08 
Number of Cycles Used -------------  4 
Starting Wavelength (Angstroms) ---  2950 
Final Wavelength (Angstoms) -------  2984 
Wavelength Increment (Angstroms) --  .25 
Filter Wheel #1 Position ---------- (1) Ground quartz diffuser (ND=2.32)
Filter Wheel #2 Position ---------- (1) Neutral Density 0.494



************************************************************
HS scan start time = 03:34:34
Dark Count =  4.2 


Time (GMT)  Wavelength (Ang)  Step Number  Raw Counts  Counts/Second

  214.93        2950.00           1233          24.00        86.31
  214.99        2950.25           1236          19.00        64.52
  215.02        2950.50           1239          20.00        68.88
  215.05        2950.75           1242          20.00        68.88
  215.07        2951.00           1246          17.00        55.80
  215.10        2951.25           1249          22.00        77.59
  215.13        2951.50           1252          17.00        55.80
  215.15        2951.75           1256          21.00        73.23
  215.18        2952.00           1259          20.00        68.88
  215.21        2952.25           1262          25.00        90.67
  215.24        2952.50           1266          18.00        60.16
  215.26        2952.75           1269          17.00        55.80
  215.29        2953.00           1272          19.00        64.52
  215.32        2953.25           1276          21.00        73.23
  215.34        2953.50           1279          15.00        47.08
  215.37        2953.75           1282          20.00        68.88
  215.40        2954.00           1286          19.00        64.52
  215.43        2954.25           1289          18.00        60.16
  215.45        2954.50           1292          19.00        64.52
  215.48        2954.75           1295          17.00        55.80
  215.51        2955.00           1299          17.00        55.80
  215.53        2955.25           1302          18.00        60.16
  215.56        2955.50           1305          19.00        64.52
  215.59        2955.75           1309          16.00        51.44
  215.62        2956.00           1312          19.00        64.52
  215.64        2956.25           1315          22.00        77.59
  215.67        2956.50           1319          19.00        64.52
  215.70        2956.75           1322          19.00        64.52
  215.72        2957.00           1325          15.00        47.08
  215.75        2957.25           1329          19.00        64.52
  215.78        2957.50           1332          19.00        64.52
  215.81        2957.75           1335          20.00        68.88
  215.83        2958.00           1339          19.00        64.52
  215.86        2958.25           1342          24.00        86.31
  215.89        2958.50           1345          17.00        55.80
  215.91        2958.75           1348          21.00        73.23
  215.94        2959.00           1352          18.00        60.16
  215.97        2959.25           1355          19.00        64.52
  216.00        2959.50           1358          24.00        86.31
  216.02        2959.75           1362          21.00        73.23
  216.05        2960.00           1365          21.00        73.23
  216.08        2960.25           1368          24.00        86.31
  216.10        2960.50           1372          30.00       112.47
  216.13        2960.75           1375          33.00       125.55
  216.16        2961.00           1378          68.00       278.12
  216.19        2961.25           1382         388.00      1673.14
  216.21        2961.50           1385        1020.00      4428.62
  216.24        2961.75           1388        2228.00      9696.62
  216.27        2962.00           1392        4771.00     20791.52
  216.30        2962.25           1395        7393.00     32238.33
  216.32        2962.50           1398       10258.00     44754.40
  216.35        2962.75           1402       14122.00     61648.61
  216.38        2963.00           1405       16999.00     74237.86
  216.41        2963.25           1408       20029.00     87506.22
  216.43        2963.50           1412       23621.00    103248.40
  216.46        2963.75           1415       26407.00    115467.80
  216.49        2964.00           1418       29277.00    128064.30
  216.51        2964.25           1422       33364.00    146017.80
  216.54        2964.50           1425       36121.00    158139.00
  216.57        2964.75           1428       38993.00    170774.60
  216.60        2965.00           1431       42130.00    184586.30
  216.62        2965.25           1435       46059.00    201900.20
  216.65        2965.50           1438       49308.00    216230.20
  216.68        2965.75           1441       51975.00    228002.00
  216.71        2966.00           1445       55998.00    245773.60
  216.73        2966.25           1448       58402.00    256401.80
  216.76        2966.50           1451       60724.00    266673.50
  216.79        2966.75           1455       62252.00    273436.00
  216.81        2967.00           1458       63111.00    277238.90
  216.84        2967.25           1461       63466.00    278810.70
  216.87        2967.50           1465       62971.00    276619.00
  216.90        2967.75           1468       62520.00    274622.40
  216.92        2968.00           1471       61493.00    270076.50
  216.95        2968.25           1475       59085.00    259422.50
  216.98        2968.50           1478       56521.00    248085.20
  217.01        2968.75           1481       53862.00    236335.60
  217.03        2969.00           1485       49846.00    218604.20
  217.06        2969.25           1488       46613.00    204342.80
  217.09        2969.50           1491       43674.00    191388.20
  217.12        2969.75           1495       39576.00    173340.60
  217.14        2970.00           1498       36820.00    161213.40
  217.17        2970.25           1501       33634.00    147204.50
  217.20        2970.50           1505       29667.00    129776.80
  217.23        2970.75           1508       26718.00    116832.30
  217.25        2971.00           1511       23743.00    103783.30
  217.28        2971.25           1515       19726.00     86178.93
  217.31        2971.50           1518       16902.00     73813.25
  217.34        2971.75           1521       14199.00     61985.43
  217.36        2972.00           1525       10225.00     44610.18
  217.39        2972.25           1528        7372.00     32146.62
  217.42        2972.50           1531        4845.00     21114.49
  217.44        2972.75           1535        2206.00      9600.66
  217.47        2973.00           1538         903.00      3918.48
  217.50        2973.25           1541         305.00      1311.29
  217.53        2973.50           1545          60.00       243.24
  217.55        2973.75           1548          43.00       169.14
  217.58        2974.00           1551          34.00       129.90
  217.61        2974.25           1555          31.00       116.83
  217.63        2974.50           1558          24.00        86.31
  217.66        2974.75           1561          26.00        95.03
  217.69        2975.00           1565          20.00        68.88
  217.72        2975.25           1568          24.00        86.31
  217.74        2975.50           1571          27.00        99.39
  217.77        2975.75           1575          23.00        81.95
  217.80        2976.00           1578          17.00        55.80
  217.83        2976.25           1581          23.00        81.95
  217.85        2976.50           1585          22.00        77.59
  217.88        2976.75           1588          25.00        90.67
  217.91        2977.00           1591          24.00        86.31
  217.93        2977.25           1595          20.00        68.88
  217.96        2977.50           1598          19.00        64.52
  217.99        2977.75           1601          20.00        68.88
  218.02        2978.00           1605          19.00        64.52
  218.04        2978.25           1608          20.00        68.88
  218.07        2978.50           1611          19.00        64.52
  218.10        2978.75           1615          23.00        81.95
  218.12        2979.00           1618          21.00        73.23
  218.15        2979.25           1621          23.00        81.95
  218.18        2979.50           1625          22.00        77.59
  218.21        2979.75           1628          17.00        55.80
  218.23        2980.00           1631          17.00        55.80
  218.26        2980.25           1635          20.00        68.88
  218.29        2980.50           1638          24.00        86.31
  218.31        2980.75           1641          21.00        73.23
  218.34        2981.00           1645          21.00        73.23
  218.37        2981.25           1648          22.00        77.59
  218.40        2981.50           1651          22.00        77.59
  218.42        2981.75           1655          20.00        68.88
  218.45        2982.00           1658          20.00        68.88
  218.48        2982.25           1661          19.00        64.52
  218.50        2982.50           1665          18.00        60.16
  218.53        2982.75           1668          25.00        90.67
  218.56        2983.00           1671          23.00        81.95
  218.59        2983.25           1675          21.00        73.23
  218.61        2983.50           1678          22.00        77.59
  218.64        2983.75           1681          20.00        68.88
  218.67        2984.00           1685          24.00        86.31
HS scan finished at 03:38:51
end
