************************************************************
  HS Scan of (1) Internal mercury lamp
************************************************************
Integration time is 0.2294 seconds per sample
dh090918Tamanrasset 22.79-5.529 4.974364pr865
************************************************************
Dead Time -------------------------  2.8E-08 
Number of Cycles Used -------------  4 
Starting Wavelength (Angstroms) ---  2950 
Final Wavelength (Angstoms) -------  2984 
Wavelength Increment (Angstroms) --  .25 
Filter Wheel #1 Position ---------- (1) Ground quartz diffuser (ND=2.32)
Filter Wheel #2 Position ---------- (1) Neutral Density 0.494



************************************************************
HS scan start time = 03:35:14
Dark Count =  5.8 


Time (GMT)  Wavelength (Ang)  Step Number  Raw Counts  Counts/Second

  215.59        2950.00           1233          20.00        61.90
  215.65        2950.25           1236          20.00        61.90
  215.68        2950.50           1239          18.00        53.18
  215.71        2950.75           1242          18.00        53.18
  215.73        2951.00           1246          24.00        79.34
  215.76        2951.25           1249          20.00        61.90
  215.79        2951.50           1252          19.00        57.54
  215.82        2951.75           1256          21.00        66.26
  215.84        2952.00           1259          17.00        48.82
  215.87        2952.25           1262          22.00        70.62
  215.90        2952.50           1266          21.00        66.26
  215.93        2952.75           1269          21.00        66.26
  215.95        2953.00           1272          23.00        74.98
  215.98        2953.25           1276          20.00        61.90
  216.01        2953.50           1279          20.00        61.90
  216.03        2953.75           1282          19.00        57.54
  216.06        2954.00           1286          21.00        66.26
  216.09        2954.25           1289          20.00        61.90
  216.12        2954.50           1292          21.00        66.26
  216.14        2954.75           1295          19.00        57.54
  216.17        2955.00           1299          17.00        48.82
  216.20        2955.25           1302          21.00        66.26
  216.22        2955.50           1305          20.00        61.90
  216.25        2955.75           1309          23.00        74.98
  216.28        2956.00           1312          21.00        66.26
  216.31        2956.25           1315          18.00        53.18
  216.33        2956.50           1319          16.00        44.46
  216.36        2956.75           1322          19.00        57.54
  216.39        2957.00           1325          20.00        61.90
  216.41        2957.25           1329          23.00        74.98
  216.44        2957.50           1332          19.00        57.54
  216.47        2957.75           1335          22.00        70.62
  216.50        2958.00           1339          24.00        79.34
  216.52        2958.25           1342          18.00        53.18
  216.55        2958.50           1345          18.00        53.18
  216.58        2958.75           1348          21.00        66.26
  216.61        2959.00           1352          21.00        66.26
  216.63        2959.25           1355          20.00        61.90
  216.66        2959.50           1358          20.00        61.90
  216.69        2959.75           1362          27.00        92.42
  216.71        2960.00           1365          29.00       101.13
  216.74        2960.25           1368          33.00       118.57
  216.77        2960.50           1372          39.00       144.73
  216.79        2960.75           1375          46.00       175.24
  216.82        2961.00           1378         125.00       519.62
  216.85        2961.25           1382         596.00      2572.98
  216.88        2961.50           1385        1458.00      6331.55
  216.90        2961.75           1388        3081.00     13410.44
  216.93        2962.00           1392        6006.00     26175.24
  216.96        2962.25           1395        8869.00     38678.31
  216.99        2962.50           1398       11996.00     52344.32
  217.01        2962.75           1402       15819.00     69066.31
  217.04        2963.00           1405       18854.00     82352.71
  217.07        2963.25           1408       21946.00     95898.83
  217.10        2963.50           1412       26120.00    114201.60
  217.12        2963.75           1415       29124.00    127385.60
  217.15        2964.00           1418       32279.00    141242.80
  217.18        2964.25           1422       36343.00    159108.30
  217.20        2964.50           1425       39035.00    170952.40
  217.23        2964.75           1428       42530.00    186341.10
  217.26        2965.00           1431       45551.00    199653.60
  217.29        2965.25           1435       49814.00    218456.00
  217.31        2965.50           1438       52890.00    232035.40
  217.34        2965.75           1441       55952.00    245563.20
  217.37        2966.00           1445       60214.00    264409.80
  217.40        2966.25           1448       62717.00    275487.40
  217.42        2966.50           1451       64665.00    284113.50
  217.45        2966.75           1455       66663.00    292965.30
  217.48        2967.00           1458       67397.00    296218.30
  217.50        2967.25           1461       67511.00    296723.60
  217.53        2967.50           1465       67480.00    296586.20
  217.56        2967.75           1468       66933.00    294161.90
  217.59        2968.00           1471       65857.00    289393.90
  217.61        2968.25           1475       63414.00    278573.30
  217.64        2968.50           1478       60147.00    264113.40
  217.67        2968.75           1481       57289.00    251473.30
  217.70        2969.00           1485       53056.00    232768.50
  217.72        2969.25           1488       49530.00    217202.70
  217.75        2969.50           1491       46349.00    203171.70
  217.78        2969.75           1495       42131.00    184583.60
  217.81        2970.00           1498       38916.00    170428.60
  217.83        2970.25           1501       35564.00    155682.40
  217.86        2970.50           1505       31184.00    136432.10
  217.89        2970.75           1508       28120.00    122978.10
  217.92        2971.00           1511       25127.00    109845.60
  217.94        2971.25           1515       20853.00     91109.19
  217.97        2971.50           1518       17694.00     77273.38
  218.00        2971.75           1521       14802.00     64616.37
  218.02        2972.00           1525       10732.00     46818.97
  218.05        2972.25           1528        7702.00     33580.82
  218.08        2972.50           1531        5063.00     22058.96
  218.11        2972.75           1535        2093.00      9100.84
  218.13        2973.00           1538         814.00      3523.45
  218.16        2973.25           1541         246.00      1047.11
  218.19        2973.50           1545          58.00       227.55
  218.21        2973.75           1548          38.00       140.37
  218.24        2974.00           1551          44.00       166.52
  218.27        2974.25           1555          28.00        96.77
  218.30        2974.50           1558          26.00        88.06
  218.32        2974.75           1561          28.00        96.77
  218.35        2975.00           1565          25.00        83.70
  218.38        2975.25           1568          24.00        79.34
  218.41        2975.50           1571          23.00        74.98
  218.43        2975.75           1575          26.00        88.06
  218.46        2976.00           1578          22.00        70.62
  218.49        2976.25           1581          19.00        57.54
  218.51        2976.50           1585          22.00        70.62
  218.54        2976.75           1588          22.00        70.62
  218.57        2977.00           1591          21.00        66.26
  218.59        2977.25           1595          21.00        66.26
  218.62        2977.50           1598          24.00        79.34
  218.65        2977.75           1601          22.00        70.62
  218.68        2978.00           1605          24.00        79.34
  218.70        2978.25           1608          22.00        70.62
  218.73        2978.50           1611          23.00        74.98
  218.76        2978.75           1615          25.00        83.70
  218.79        2979.00           1618          21.00        66.26
  218.81        2979.25           1621          23.00        74.98
  218.84        2979.50           1625          25.00        83.70
  218.87        2979.75           1628          23.00        74.98
  218.89        2980.00           1631          20.00        61.90
  218.92        2980.25           1635          22.00        70.62
  218.95        2980.50           1638          20.00        61.90
  218.98        2980.75           1641          20.00        61.90
  219.00        2981.00           1645          24.00        79.34
  219.03        2981.25           1648          17.00        48.82
  219.06        2981.50           1651          21.00        66.26
  219.08        2981.75           1655          18.00        53.18
  219.11        2982.00           1658          23.00        74.98
  219.14        2982.25           1661          28.00        96.77
  219.17        2982.50           1665          20.00        61.90
  219.19        2982.75           1668          20.00        61.90
  219.22        2983.00           1671          19.00        57.54
  219.25        2983.25           1675          27.00        92.42
  219.27        2983.50           1678          17.00        48.82
  219.30        2983.75           1681          24.00        79.34
  219.33        2984.00           1685          19.00        57.54
HS scan finished at 03:39:31
end
