************************************************************
  HS Scan of (1) Internal mercury lamp
************************************************************
Integration time is 0.2294 seconds per sample
dh130917Tamanrasset 22.79-5.529 3.23584pr865
************************************************************
Dead Time -------------------------  2.8E-08 
Number of Cycles Used -------------  4 
Starting Wavelength (Angstroms) ---  2950 
Final Wavelength (Angstoms) -------  2984 
Wavelength Increment (Angstroms) --  .25 
Filter Wheel #1 Position ---------- (1) Ground quartz diffuser (ND=2.32)
Filter Wheel #2 Position ---------- (1) Neutral Density 0.494



************************************************************
HS scan start time = 03:36:47
Dark Count =  5.6 


Time (GMT)  Wavelength (Ang)  Step Number  Raw Counts  Counts/Second

  217.15        2950.00           1233          17.00        49.69
  217.21        2950.25           1236          16.00        45.34
  217.24        2950.50           1239          16.00        45.34
  217.27        2950.75           1242          22.00        71.49
  217.29        2951.00           1246          15.00        40.98
  217.32        2951.25           1249          16.00        45.34
  217.35        2951.50           1252          20.00        62.77
  217.37        2951.75           1256          17.00        49.69
  217.40        2952.00           1259          18.00        54.05
  217.43        2952.25           1262          20.00        62.77
  217.46        2952.50           1266          20.00        62.77
  217.48        2952.75           1269          21.00        67.13
  217.51        2953.00           1272          19.00        58.41
  217.54        2953.25           1276          17.00        49.69
  217.56        2953.50           1279          19.00        58.41
  217.59        2953.75           1282          17.00        49.69
  217.62        2954.00           1286          22.00        71.49
  217.65        2954.25           1289          21.00        67.13
  217.67        2954.50           1292          17.00        49.69
  217.70        2954.75           1295          21.00        67.13
  217.73        2955.00           1299          22.00        71.49
  217.76        2955.25           1302          18.00        54.05
  217.78        2955.50           1305          23.00        75.85
  217.81        2955.75           1309          15.00        40.98
  217.84        2956.00           1312          18.00        54.05
  217.86        2956.25           1315          21.00        67.13
  217.89        2956.50           1319          21.00        67.13
  217.92        2956.75           1322          24.00        80.21
  217.95        2957.00           1325          19.00        58.41
  217.97        2957.25           1329          23.00        75.85
  218.00        2957.50           1332          21.00        67.13
  218.03        2957.75           1335          19.00        58.41
  218.05        2958.00           1339          25.00        84.57
  218.08        2958.25           1342          22.00        71.49
  218.11        2958.50           1345          18.00        54.05
  218.14        2958.75           1348          19.00        58.41
  218.16        2959.00           1352          13.00        32.26
  218.19        2959.25           1355          17.00        49.69
  218.22        2959.50           1358          20.00        62.77
  218.25        2959.75           1362          24.00        80.21
  218.27        2960.00           1365          26.00        88.93
  218.30        2960.25           1368          32.00       115.08
  218.33        2960.50           1372          35.00       128.16
  218.35        2960.75           1375          44.00       167.39
  218.38        2961.00           1378         112.00       463.82
  218.41        2961.25           1382         542.00      2338.43
  218.44        2961.50           1385        1363.00      5918.16
  218.46        2961.75           1388        2786.00     12124.43
  218.49        2962.00           1392        5684.00     24770.44
  218.52        2962.25           1395        8460.00     36892.50
  218.54        2962.50           1398       11458.00     49993.22
  218.57        2962.75           1402       15328.00     66918.65
  218.60        2963.00           1405       18247.00     79695.52
  218.63        2963.25           1408       21061.00     92021.46
  218.65        2963.50           1412       25037.00    109451.80
  218.68        2963.75           1415       28064.00    122733.20
  218.71        2964.00           1418       30884.00    135115.30
  218.74        2964.25           1422       35249.00    154298.10
  218.76        2964.50           1425       37755.00    165320.60
  218.79        2964.75           1428       41044.00    179797.40
  218.82        2965.00           1431       43857.00    192188.40
  218.85        2965.25           1435       48263.00    211613.70
  218.87        2965.50           1438       51660.00    226605.00
  218.90        2965.75           1441       54537.00    239311.40
  218.93        2966.00           1445       58407.00    256417.70
  218.95        2966.25           1448       60582.00    266039.00
  218.98        2966.50           1451       62939.00    276471.10
  219.01        2966.75           1455       64957.00    285407.70
  219.04        2967.00           1458       65427.00    287489.80
  219.06        2967.25           1461       65720.00    288787.80
  219.09        2967.50           1465       65312.00    286980.30
  219.12        2967.75           1468       64748.00    284482.00
  219.15        2968.00           1471       63673.00    279721.10
  219.17        2968.25           1475       61506.00    270127.80
  219.20        2968.50           1478       58654.00    257510.00
  219.23        2968.75           1481       55091.00    241759.20
  219.26        2969.00           1485       51395.00    225435.10
  219.28        2969.25           1488       47941.00    210193.30
  219.31        2969.50           1491       44509.00    195061.60
  219.34        2969.75           1495       40515.00    177468.20
  219.37        2970.00           1498       37312.00    163371.60
  219.39        2970.25           1501       33986.00    148745.50
  219.42        2970.50           1505       29881.00    130710.30
  219.45        2970.75           1508       26971.00    117936.30
  219.47        2971.00           1511       23640.00    103325.50
  219.50        2971.25           1515       19992.00     87338.00
  219.53        2971.50           1518       16848.00     73570.76
  219.56        2971.75           1521       13948.00     60881.38
  219.58        2972.00           1525        9835.00     42899.80
  219.61        2972.25           1528        6957.00     30328.27
  219.64        2972.50           1531        4416.00     19236.16
  219.67        2972.75           1535        1808.00      7858.75
  219.69        2973.00           1538         657.00      2839.81
  219.72        2973.25           1541         192.00       812.57
  219.75        2973.50           1545          54.00       210.99
  219.77        2973.75           1548          41.00       154.32
  219.80        2974.00           1551          35.00       128.16
  219.83        2974.25           1555          29.00       102.01
  219.86        2974.50           1558          29.00       102.01
  219.88        2974.75           1561          26.00        88.93
  219.91        2975.00           1565          25.00        84.57
  219.94        2975.25           1568          23.00        75.85
  219.97        2975.50           1571          19.00        58.41
  219.99        2975.75           1575          24.00        80.21
  220.02        2976.00           1578          23.00        75.85
  220.05        2976.25           1581          22.00        71.49
  220.07        2976.50           1585          24.00        80.21
  220.10        2976.75           1588          26.00        88.93
  220.13        2977.00           1591          22.00        71.49
  220.16        2977.25           1595          22.00        71.49
  220.18        2977.50           1598          21.00        67.13
  220.21        2977.75           1601          21.00        67.13
  220.24        2978.00           1605          30.00       106.36
  220.26        2978.25           1608          23.00        75.85
  220.29        2978.50           1611          22.00        71.49
  220.32        2978.75           1615          20.00        62.77
  220.35        2979.00           1618          24.00        80.21
  220.37        2979.25           1621          25.00        84.57
  220.40        2979.50           1625          22.00        71.49
  220.43        2979.75           1628          20.00        62.77
  220.46        2980.00           1631          22.00        71.49
  220.48        2980.25           1635          21.00        67.13
  220.51        2980.50           1638          23.00        75.85
  220.54        2980.75           1641          23.00        75.85
  220.56        2981.00           1645          25.00        84.57
  220.59        2981.25           1648          22.00        71.49
  220.62        2981.50           1651          21.00        67.13
  220.65        2981.75           1655          17.00        49.69
  220.67        2982.00           1658          14.00        36.62
  220.70        2982.25           1661          24.00        80.21
  220.73        2982.50           1665          19.00        58.41
  220.75        2982.75           1668          19.00        58.41
  220.78        2983.00           1671          20.00        62.77
  220.81        2983.25           1675          21.00        67.13
  220.84        2983.50           1678          17.00        49.69
  220.86        2983.75           1681          16.00        45.34
  220.89        2984.00           1685          20.00        62.77
HS scan finished at 03:41:05
end
