************************************************************
  HS Scan of (1) Internal mercury lamp
************************************************************
Integration time is 0.2294 seconds per sample
dh150917Tamanrasset 22.79-5.529 3.154266pr865
************************************************************
Dead Time -------------------------  2.8E-08 
Number of Cycles Used -------------  4 
Starting Wavelength (Angstroms) ---  2950 
Final Wavelength (Angstoms) -------  2984 
Wavelength Increment (Angstroms) --  .25 
Filter Wheel #1 Position ---------- (1) Ground quartz diffuser (ND=2.32)
Filter Wheel #2 Position ---------- (1) Neutral Density 0.494



************************************************************
HS scan start time = 03:36:19
Dark Count =  5.9 


Time (GMT)  Wavelength (Ang)  Step Number  Raw Counts  Counts/Second

  216.67        2950.00           1233          21.00        65.82
  216.74        2950.25           1236          19.00        57.11
  216.77        2950.50           1239          21.00        65.82
  216.79        2950.75           1242          21.00        65.82
  216.82        2951.00           1246          18.00        52.75
  216.85        2951.25           1249          21.00        65.82
  216.87        2951.50           1252          18.00        52.75
  216.90        2951.75           1256          16.00        44.03
  216.93        2952.00           1259          19.00        57.11
  216.96        2952.25           1262          19.00        57.11
  216.98        2952.50           1266          20.00        61.46
  217.01        2952.75           1269          19.00        57.11
  217.04        2953.00           1272          23.00        74.54
  217.06        2953.25           1276          14.00        35.31
  217.09        2953.50           1279          23.00        74.54
  217.12        2953.75           1282          17.00        48.39
  217.15        2954.00           1286          19.00        57.11
  217.17        2954.25           1289          21.00        65.82
  217.20        2954.50           1292          16.00        44.03
  217.23        2954.75           1295          25.00        83.26
  217.25        2955.00           1299          20.00        61.46
  217.28        2955.25           1302          19.00        57.11
  217.31        2955.50           1305          21.00        65.82
  217.34        2955.75           1309          20.00        61.46
  217.36        2956.00           1312          18.00        52.75
  217.39        2956.25           1315          17.00        48.39
  217.42        2956.50           1319          17.00        48.39
  217.44        2956.75           1322          22.00        70.18
  217.47        2957.00           1325          20.00        61.46
  217.50        2957.25           1329          14.00        35.31
  217.53        2957.50           1332          20.00        61.46
  217.55        2957.75           1335          17.00        48.39
  217.58        2958.00           1339          18.00        52.75
  217.61        2958.25           1342          19.00        57.11
  217.63        2958.50           1345          17.00        48.39
  217.66        2958.75           1348          16.00        44.03
  217.69        2959.00           1352          21.00        65.82
  217.72        2959.25           1355          22.00        70.18
  217.74        2959.50           1358          21.00        65.82
  217.77        2959.75           1362          23.00        74.54
  217.80        2960.00           1365          27.00        91.98
  217.82        2960.25           1368          28.00        96.34
  217.85        2960.50           1372          30.00       105.06
  217.88        2960.75           1375          36.00       131.21
  217.91        2961.00           1378         116.00       479.95
  217.93        2961.25           1382         580.00      2502.79
  217.96        2961.50           1385        1425.00      6187.21
  217.99        2961.75           1388        2873.00     12502.63
  218.02        2962.00           1392        5839.00     25445.76
  218.04        2962.25           1395        8577.00     37402.27
  218.07        2962.50           1398       11548.00     50385.33
  218.10        2962.75           1402       15369.00     67096.74
  218.12        2963.00           1405       18163.00     79326.40
  218.15        2963.25           1408       21163.00     92467.08
  218.18        2963.50           1412       24905.00    108871.50
  218.21        2963.75           1415       27864.00    121854.00
  218.23        2964.00           1418       30708.00    134340.90
  218.26        2964.25           1422       34593.00    151412.60
  218.29        2964.50           1425       37592.00    164602.10
  218.32        2964.75           1428       40525.00    177510.90
  218.34        2965.00           1431       43529.00    190741.80
  218.37        2965.25           1435       47486.00    208185.20
  218.40        2965.50           1438       50316.00    220671.00
  218.43        2965.75           1441       53171.00    233275.90
  218.45        2966.00           1445       57080.00    250548.90
  218.48        2966.25           1448       59645.00    261892.10
  218.51        2966.50           1451       61690.00    270940.90
  218.53        2966.75           1455       63328.00    278192.10
  218.56        2967.00           1458       63753.00    280074.00
  218.59        2967.25           1461       63400.00    278510.90
  218.62        2967.50           1465       63351.00    278294.00
  218.64        2967.75           1468       63354.00    278307.20
  218.67        2968.00           1471       61772.00    271303.80
  218.70        2968.25           1475       59158.00    259737.90
  218.73        2968.50           1478       56505.00    248007.00
  218.75        2968.75           1481       53598.00    235161.90
  218.78        2969.00           1485       49750.00    218173.10
  218.81        2969.25           1488       46341.00    203136.00
  218.84        2969.50           1491       43387.00    190116.20
  218.86        2969.75           1495       39320.00    172206.30
  218.89        2970.00           1498       36253.00    158712.00
  218.92        2970.25           1501       33235.00    145443.40
  218.94        2970.50           1505       29390.00    128553.00
  218.97        2970.75           1508       26348.00    115201.40
  219.00        2971.00           1511       23409.00    102311.40
  219.03        2971.25           1515       19354.00     84542.09
  219.05        2971.50           1518       16627.00     72602.10
  219.08        2971.75           1521       13674.00     59681.61
  219.11        2972.00           1525        9893.00     43151.94
  219.14        2972.25           1528        6895.00     30056.24
  219.16        2972.50           1531        4375.00     19055.94
  219.19        2972.75           1535        1809.00      7861.80
  219.22        2973.00           1538         675.00      2916.98
  219.24        2973.25           1541         200.00       846.14
  219.27        2973.50           1545          49.00       187.88
  219.30        2973.75           1548          35.00       126.85
  219.33        2974.00           1551          36.00       131.21
  219.35        2974.25           1555          32.00       113.78
  219.38        2974.50           1558          29.00       100.70
  219.41        2974.75           1561          23.00        74.54
  219.44        2975.00           1565          26.00        87.62
  219.46        2975.25           1568          21.00        65.82
  219.49        2975.50           1571          22.00        70.18
  219.52        2975.75           1575          21.00        65.82
  219.54        2976.00           1578          25.00        83.26
  219.57        2976.25           1581          24.00        78.90
  219.60        2976.50           1585          20.00        61.46
  219.62        2976.75           1588          19.00        57.11
  219.65        2977.00           1591          26.00        87.62
  219.68        2977.25           1595          23.00        74.54
  219.71        2977.50           1598          19.00        57.11
  219.73        2977.75           1601          22.00        70.18
  219.76        2978.00           1605          23.00        74.54
  219.79        2978.25           1608          21.00        65.82
  219.82        2978.50           1611          23.00        74.54
  219.84        2978.75           1615          23.00        74.54
  219.87        2979.00           1618          18.00        52.75
  219.90        2979.25           1621          22.00        70.18
  219.92        2979.50           1625          19.00        57.11
  219.95        2979.75           1628          18.00        52.75
  219.98        2980.00           1631          19.00        57.11
  220.01        2980.25           1635          17.00        48.39
  220.03        2980.50           1638          18.00        52.75
  220.06        2980.75           1641          20.00        61.46
  220.09        2981.00           1645          17.00        48.39
  220.11        2981.25           1648          18.00        52.75
  220.14        2981.50           1651          24.00        78.90
  220.17        2981.75           1655          21.00        65.82
  220.20        2982.00           1658          18.00        52.75
  220.22        2982.25           1661          21.00        65.82
  220.25        2982.50           1665          23.00        74.54
  220.28        2982.75           1668          20.00        61.46
  220.30        2983.00           1671          22.00        70.18
  220.33        2983.25           1675          24.00        78.90
  220.36        2983.50           1678          17.00        48.39
  220.39        2983.75           1681          18.00        52.75
  220.41        2984.00           1685          20.00        61.46
HS scan finished at 03:40:36
end
