************************************************************
  HS Scan of (1) Internal mercury lamp
************************************************************
Integration time is 0.2294 seconds per sample
dh080918Tamanrasset 22.79-5.529 4.974364pr865
************************************************************
Dead Time -------------------------  2.8E-08 
Number of Cycles Used -------------  4 
Starting Wavelength (Angstroms) ---  2950 
Final Wavelength (Angstoms) -------  2984 
Wavelength Increment (Angstroms) --  .25 
Filter Wheel #1 Position ---------- (1) Ground quartz diffuser (ND=2.32)
Filter Wheel #2 Position ---------- (1) Neutral Density 0.494



************************************************************
HS scan start time = 03:34:09
Dark Count =  5.3 


Time (GMT)  Wavelength (Ang)  Step Number  Raw Counts  Counts/Second

  214.51        2950.00           1233          19.00        59.72
  214.57        2950.25           1236          18.00        55.36
  214.60        2950.50           1239          21.00        68.44
  214.62        2950.75           1242          23.00        77.16
  214.65        2951.00           1246          21.00        68.44
  214.68        2951.25           1249          20.00        64.08
  214.71        2951.50           1252          15.00        42.28
  214.73        2951.75           1256          22.00        72.80
  214.76        2952.00           1259          23.00        77.16
  214.79        2952.25           1262          19.00        59.72
  214.81        2952.50           1266          15.00        42.28
  214.84        2952.75           1269          21.00        68.44
  214.87        2953.00           1272          23.00        77.16
  214.90        2953.25           1276          22.00        72.80
  214.92        2953.50           1279          21.00        68.44
  214.95        2953.75           1282          24.00        81.52
  214.98        2954.00           1286          19.00        59.72
  215.00        2954.25           1289          23.00        77.16
  215.03        2954.50           1292          19.00        59.72
  215.06        2954.75           1295          18.00        55.36
  215.09        2955.00           1299          20.00        64.08
  215.11        2955.25           1302          21.00        68.44
  215.14        2955.50           1305          20.00        64.08
  215.17        2955.75           1309          21.00        68.44
  215.19        2956.00           1312          24.00        81.52
  215.22        2956.25           1315          15.00        42.28
  215.25        2956.50           1319          18.00        55.36
  215.28        2956.75           1322          20.00        64.08
  215.30        2957.00           1325          20.00        64.08
  215.33        2957.25           1329          21.00        68.44
  215.36        2957.50           1332          21.00        68.44
  215.38        2957.75           1335          19.00        59.72
  215.41        2958.00           1339          20.00        64.08
  215.44        2958.25           1342          18.00        55.36
  215.47        2958.50           1345          20.00        64.08
  215.49        2958.75           1348          20.00        64.08
  215.52        2959.00           1352          18.00        55.36
  215.55        2959.25           1355          20.00        64.08
  215.57        2959.50           1358          25.00        85.88
  215.60        2959.75           1362          27.00        94.59
  215.63        2960.00           1365          27.00        94.59
  215.66        2960.25           1368          28.00        98.95
  215.68        2960.50           1372          33.00       120.75
  215.71        2960.75           1375          47.00       181.78
  215.74        2961.00           1378         156.00       656.94
  215.76        2961.25           1382         709.00      3067.83
  215.79        2961.50           1385        1690.00      7345.45
  215.82        2961.75           1388        3356.00     14612.34
  215.85        2962.00           1392        6543.00     28521.90
  215.87        2962.25           1395        9672.00     42188.87
  215.90        2962.50           1398       12797.00     55848.82
  215.93        2962.75           1402       16745.00     73121.22
  215.95        2963.00           1405       19792.00     86463.21
  215.98        2963.25           1408       23082.00    100880.40
  216.01        2963.50           1412       26711.00    116796.80
  216.04        2963.75           1415       29621.00    129569.90
  216.06        2964.00           1418       32708.00    143130.00
  216.09        2964.25           1422       36758.00    160935.90
  216.12        2964.50           1425       39681.00    173797.90
  216.15        2964.75           1428       42973.00    188294.90
  216.17        2965.00           1431       46154.00    202314.20
  216.20        2965.25           1435       50514.00    221547.50
  216.23        2965.50           1438       53515.00    234798.00
  216.25        2965.75           1441       56655.00    248672.70
  216.28        2966.00           1445       60601.00    266124.30
  216.31        2966.25           1448       62917.00    276375.00
  216.34        2966.50           1451       64897.00    285143.30
  216.36        2966.75           1455       66175.00    290805.10
  216.39        2967.00           1458       66754.00    293370.80
  216.42        2967.25           1461       66692.00    293096.00
  216.45        2967.50           1465       66450.00    292023.70
  216.47        2967.75           1468       65434.00    287522.10
  216.50        2968.00           1471       64490.00    283340.60
  216.53        2968.25           1475       61450.00    269881.40
  216.56        2968.50           1478       58470.00    256697.60
  216.58        2968.75           1481       55549.00    243784.40
  216.61        2969.00           1485       51018.00    223772.20
  216.64        2969.25           1488       47885.00    209947.70
  216.67        2969.50           1491       44679.00    195812.20
  216.69        2969.75           1495       40529.00    177531.10
  216.72        2970.00           1498       37183.00    162805.40
  216.75        2970.25           1501       34170.00    149555.60
  216.77        2970.50           1505       29847.00    130562.30
  216.80        2970.75           1508       26765.00    117033.70
  216.83        2971.00           1511       23773.00    103910.00
  216.86        2971.25           1515       19639.00     85793.02
  216.88        2971.50           1518       16572.00     72364.00
  216.91        2971.75           1521       13664.00     59640.49
  216.94        2972.00           1525        9697.00     42298.11
  216.97        2972.25           1528        6844.00     29836.17
  216.99        2972.50           1531        4168.00     18155.26
  217.02        2972.75           1535        1573.00      6835.22
  217.05        2973.00           1538         561.00      2422.57
  217.08        2973.25           1541         162.00       683.10
  217.10        2973.50           1545          53.00       207.93
  217.13        2973.75           1548          42.00       159.98
  217.16        2974.00           1551          34.00       125.11
  217.18        2974.25           1555          25.00        85.88
  217.21        2974.50           1558          37.00       138.19
  217.24        2974.75           1561          28.00        98.95
  217.26        2975.00           1565          28.00        98.95
  217.29        2975.25           1568          24.00        81.52
  217.32        2975.50           1571          26.00        90.24
  217.35        2975.75           1575          21.00        68.44
  217.37        2976.00           1578          23.00        77.16
  217.40        2976.25           1581          25.00        85.88
  217.43        2976.50           1585          26.00        90.24
  217.46        2976.75           1588          23.00        77.16
  217.48        2977.00           1591          21.00        68.44
  217.51        2977.25           1595          21.00        68.44
  217.54        2977.50           1598          23.00        77.16
  217.56        2977.75           1601          21.00        68.44
  217.59        2978.00           1605          21.00        68.44
  217.62        2978.25           1608          19.00        59.72
  217.65        2978.50           1611          23.00        77.16
  217.67        2978.75           1615          25.00        85.88
  217.70        2979.00           1618          21.00        68.44
  217.73        2979.25           1621          21.00        68.44
  217.75        2979.50           1625          21.00        68.44
  217.78        2979.75           1628          23.00        77.16
  217.81        2980.00           1631          22.00        72.80
  217.84        2980.25           1635          24.00        81.52
  217.86        2980.50           1638          22.00        72.80
  217.89        2980.75           1641          21.00        68.44
  217.92        2981.00           1645          24.00        81.52
  217.94        2981.25           1648          23.00        77.16
  217.97        2981.50           1651          21.00        68.44
  218.00        2981.75           1655          24.00        81.52
  218.03        2982.00           1658          17.00        51.00
  218.05        2982.25           1661          22.00        72.80
  218.08        2982.50           1665          20.00        64.08
  218.11        2982.75           1668          15.00        42.28
  218.13        2983.00           1671          17.00        51.00
  218.16        2983.25           1675          20.00        64.08
  218.19        2983.50           1678          16.00        46.64
  218.22        2983.75           1681          17.00        51.00
  218.24        2984.00           1685          25.00        85.88
HS scan finished at 03:38:26
end
