************************************************************
  HS Scan of (1) Internal mercury lamp
************************************************************
Integration time is 0.2294 seconds per sample
dh110917Tamanrasset 22.79-5.529 3.404084pr865
************************************************************
Dead Time -------------------------  2.8E-08 
Number of Cycles Used -------------  4 
Starting Wavelength (Angstroms) ---  2950 
Final Wavelength (Angstoms) -------  2984 
Wavelength Increment (Angstroms) --  .25 
Filter Wheel #1 Position ---------- (1) Ground quartz diffuser (ND=2.32)
Filter Wheel #2 Position ---------- (1) Neutral Density 0.494



************************************************************
HS scan start time = 03:35:49
Dark Count =  6.6 


Time (GMT)  Wavelength (Ang)  Step Number  Raw Counts  Counts/Second

  216.17        2950.00           1233          25.00        80.21
  216.23        2950.25           1236          25.00        80.21
  216.26        2950.50           1239          20.00        58.41
  216.29        2950.75           1242          20.00        58.41
  216.31        2951.00           1246          18.00        49.69
  216.34        2951.25           1249          15.00        36.62
  216.37        2951.50           1252          21.00        62.77
  216.39        2951.75           1256          15.00        36.62
  216.42        2952.00           1259          17.00        45.34
  216.45        2952.25           1262          18.00        49.69
  216.48        2952.50           1266          20.00        58.41
  216.50        2952.75           1269          19.00        54.05
  216.53        2953.00           1272          23.00        71.49
  216.56        2953.25           1276          24.00        75.85
  216.59        2953.50           1279          16.00        40.98
  216.61        2953.75           1282          20.00        58.41
  216.64        2954.00           1286          17.00        45.34
  216.67        2954.25           1289          19.00        54.05
  216.69        2954.50           1292          21.00        62.77
  216.72        2954.75           1295          17.00        45.34
  216.75        2955.00           1299          20.00        58.41
  216.78        2955.25           1302          23.00        71.49
  216.80        2955.50           1305          17.00        45.34
  216.83        2955.75           1309          19.00        54.05
  216.86        2956.00           1312          20.00        58.41
  216.88        2956.25           1315          21.00        62.77
  216.91        2956.50           1319          18.00        49.69
  216.94        2956.75           1322          20.00        58.41
  216.97        2957.00           1325          16.00        40.98
  216.99        2957.25           1329          22.00        67.13
  217.02        2957.50           1332          20.00        58.41
  217.05        2957.75           1335          19.00        54.05
  217.08        2958.00           1339          15.00        36.62
  217.10        2958.25           1342          23.00        71.49
  217.13        2958.50           1345          19.00        54.05
  217.16        2958.75           1348          15.00        36.62
  217.18        2959.00           1352          21.00        62.77
  217.21        2959.25           1355          18.00        49.69
  217.24        2959.50           1358          20.00        58.41
  217.27        2959.75           1362          22.00        67.13
  217.29        2960.00           1365          23.00        71.49
  217.32        2960.25           1368          29.00        97.65
  217.35        2960.50           1372          39.00       141.24
  217.37        2960.75           1375          49.00       184.83
  217.40        2961.00           1378         144.00       598.96
  217.43        2961.25           1382         721.00      3114.48
  217.46        2961.50           1385        1733.00      7527.31
  217.48        2961.75           1388        3346.00     14563.04
  217.51        2962.00           1392        6680.00     29114.40
  217.54        2962.25           1395        9506.00     41457.86
  217.56        2962.50           1398       12587.00     54924.87
  217.59        2962.75           1402       16461.00     71872.49
  217.62        2963.00           1405       19501.00     85182.88
  217.65        2963.25           1408       22846.00     99840.18
  217.67        2963.50           1412       26584.00    116233.80
  217.70        2963.75           1415       29984.00    131158.20
  217.73        2964.00           1418       33091.00    144807.40
  217.76        2964.25           1422       36978.00    161897.90
  217.78        2964.50           1425       40206.00    176103.40
  217.81        2964.75           1428       43566.00    190901.70
  217.84        2965.00           1431       46771.00    205028.90
  217.87        2965.25           1435       50815.00    222870.40
  217.89        2965.50           1438       54218.00    237897.60
  217.92        2965.75           1441       57255.00    251319.40
  217.95        2966.00           1445       61360.00    269477.30
  217.97        2966.25           1448       64114.00    281669.60
  218.00        2966.50           1451       66010.00    290068.30
  218.03        2966.75           1455       68024.00    298994.00
  218.06        2967.00           1458       68516.00    301175.10
  218.08        2967.25           1461       68629.00    301676.10
  218.11        2967.50           1465       68479.00    301011.10
  218.14        2967.75           1468       68108.00    299366.40
  218.17        2968.00           1471       66313.00    291410.80
  218.19        2968.25           1475       63472.00    278826.60
  218.22        2968.50           1478       60855.00    267242.50
  218.25        2968.75           1481       57573.00    252725.40
  218.28        2969.00           1485       53309.00    233882.30
  218.30        2969.25           1488       49641.00    217689.00
  218.33        2969.50           1491       46274.00    202837.50
  218.36        2969.75           1495       41775.00    183012.10
  218.38        2970.00           1498       38594.00    169008.00
  218.41        2970.25           1501       35556.00    155643.70
  218.44        2970.50           1505       31095.00    136037.70
  218.47        2970.75           1508       27847.00    121776.40
  218.49        2971.00           1511       24628.00    107653.60
  218.52        2971.25           1515       20292.00     88647.84
  218.55        2971.50           1518       17072.00     74546.90
  218.58        2971.75           1521       14131.00     61677.48
  218.60        2972.00           1525        9837.00     42904.17
  218.63        2972.25           1528        6664.00     29044.54
  218.66        2972.50           1531        4125.00     17961.95
  218.68        2972.75           1535        1499.00      6506.85
  218.71        2973.00           1538         529.00      2277.39
  218.74        2973.25           1541         151.00       629.48
  218.77        2973.50           1545          48.00       180.47
  218.79        2973.75           1548          44.00       163.03
  218.82        2974.00           1551          30.00       102.01
  218.85        2974.25           1555          30.00       102.01
  218.88        2974.50           1558          23.00        71.49
  218.90        2974.75           1561          29.00        97.65
  218.93        2975.00           1565          23.00        71.49
  218.96        2975.25           1568          25.00        80.21
  218.98        2975.50           1571          27.00        88.93
  219.01        2975.75           1575          18.00        49.69
  219.04        2976.00           1578          23.00        71.49
  219.07        2976.25           1581          24.00        75.85
  219.09        2976.50           1585          18.00        49.69
  219.12        2976.75           1588          21.00        62.77
  219.15        2977.00           1591          22.00        67.13
  219.18        2977.25           1595          21.00        62.77
  219.20        2977.50           1598          22.00        67.13
  219.23        2977.75           1601          17.00        45.34
  219.26        2978.00           1605          21.00        62.77
  219.28        2978.25           1608          21.00        62.77
  219.31        2978.50           1611          25.00        80.21
  219.34        2978.75           1615          25.00        80.21
  219.37        2979.00           1618          23.00        71.49
  219.39        2979.25           1621          23.00        71.49
  219.42        2979.50           1625          20.00        58.41
  219.45        2979.75           1628          22.00        67.13
  219.47        2980.00           1631          23.00        71.49
  219.50        2980.25           1635          23.00        71.49
  219.53        2980.50           1638          21.00        62.77
  219.56        2980.75           1641          20.00        58.41
  219.58        2981.00           1645          22.00        67.13
  219.61        2981.25           1648          18.00        49.69
  219.64        2981.50           1651          22.00        67.13
  219.66        2981.75           1655          21.00        62.77
  219.69        2982.00           1658          22.00        67.13
  219.72        2982.25           1661          18.00        49.69
  219.75        2982.50           1665          17.00        45.34
  219.77        2982.75           1668          24.00        75.85
  219.80        2983.00           1671          25.00        80.21
  219.83        2983.25           1675          17.00        45.34
  219.85        2983.50           1678          22.00        67.13
  219.88        2983.75           1681          21.00        62.77
  219.91        2984.00           1685          17.00        45.34
HS scan finished at 03:40:06
end
