************************************************************
  HS Scan of (1) Internal mercury lamp
************************************************************
Integration time is 0.2294 seconds per sample
dh070918Tamanrasset 22.79-5.529 4.974364pr865
************************************************************
Dead Time -------------------------  2.8E-08 
Number of Cycles Used -------------  4 
Starting Wavelength (Angstroms) ---  2950 
Final Wavelength (Angstoms) -------  2984 
Wavelength Increment (Angstroms) --  .25 
Filter Wheel #1 Position ---------- (1) Ground quartz diffuser (ND=2.32)
Filter Wheel #2 Position ---------- (1) Neutral Density 0.494



************************************************************
HS scan start time = 03:34:09
Dark Count =  5.7 


Time (GMT)  Wavelength (Ang)  Step Number  Raw Counts  Counts/Second

  214.51        2950.00           1233          20.00        62.34
  214.58        2950.25           1236          23.00        75.41
  214.60        2950.50           1239          20.00        62.34
  214.63        2950.75           1242          19.00        57.98
  214.66        2951.00           1246          25.00        84.13
  214.69        2951.25           1249          20.00        62.34
  214.71        2951.50           1252          16.00        44.90
  214.74        2951.75           1256          17.00        49.26
  214.77        2952.00           1259          24.00        79.77
  214.79        2952.25           1262          21.00        66.70
  214.82        2952.50           1266          19.00        57.98
  214.85        2952.75           1269          19.00        57.98
  214.88        2953.00           1272          15.00        40.54
  214.90        2953.25           1276          20.00        62.34
  214.93        2953.50           1279          21.00        66.70
  214.96        2953.75           1282          20.00        62.34
  214.98        2954.00           1286          21.00        66.70
  215.01        2954.25           1289          19.00        57.98
  215.04        2954.50           1292          21.00        66.70
  215.07        2954.75           1295          18.00        53.62
  215.09        2955.00           1299          21.00        66.70
  215.12        2955.25           1302          22.00        71.06
  215.15        2955.50           1305          19.00        57.98
  215.18        2955.75           1309          21.00        66.70
  215.20        2956.00           1312          20.00        62.34
  215.23        2956.25           1315          17.00        49.26
  215.26        2956.50           1319          19.00        57.98
  215.28        2956.75           1322          19.00        57.98
  215.31        2957.00           1325          20.00        62.34
  215.34        2957.25           1329          17.00        49.26
  215.37        2957.50           1332          15.00        40.54
  215.39        2957.75           1335          15.00        40.54
  215.42        2958.00           1339          16.00        44.90
  215.45        2958.25           1342          22.00        71.06
  215.47        2958.50           1345          17.00        49.26
  215.50        2958.75           1348          21.00        66.70
  215.53        2959.00           1352          22.00        71.06
  215.56        2959.25           1355          23.00        75.41
  215.58        2959.50           1358          19.00        57.98
  215.61        2959.75           1362          26.00        88.49
  215.64        2960.00           1365          22.00        71.06
  215.66        2960.25           1368          24.00        79.77
  215.69        2960.50           1372          34.00       123.37
  215.72        2960.75           1375          41.00       153.88
  215.75        2961.00           1378         103.00       424.16
  215.77        2961.25           1382         538.00      2320.55
  215.80        2961.50           1385        1331.00      5778.18
  215.83        2961.75           1388        2777.00     12084.74
  215.85        2962.00           1392        5756.00     25084.31
  215.88        2962.25           1395        8615.00     37569.15
  215.91        2962.50           1398       11737.00     51212.44
  215.94        2962.75           1402       15546.00     67872.10
  215.96        2963.00           1405       18678.00     81582.41
  215.99        2963.25           1408       21778.00     95163.01
  216.02        2963.50           1412       25450.00    111262.80
  216.05        2963.75           1415       28380.00    124119.80
  216.07        2964.00           1418       31550.00    138040.40
  216.10        2964.25           1422       35563.00    155678.40
  216.13        2964.50           1425       38788.00    169865.70
  216.15        2964.75           1428       42001.00    184011.50
  216.18        2965.00           1431       44939.00    196956.30
  216.21        2965.25           1435       49115.00    215372.10
  216.24        2965.50           1438       52403.00    229885.20
  216.26        2965.75           1441       55769.00    244754.90
  216.29        2966.00           1445       59817.00    262653.90
  216.32        2966.25           1448       62440.00    274261.60
  216.35        2966.50           1451       64536.00    283542.60
  216.37        2966.75           1455       66277.00    291255.30
  216.40        2967.00           1458       66762.00    293404.50
  216.43        2967.25           1461       67288.00    295735.60
  216.46        2967.50           1465       67199.00    295341.20
  216.48        2967.75           1468       66544.00    292438.40
  216.51        2968.00           1471       65649.00    288472.80
  216.54        2968.25           1475       62318.00    273721.50
  216.57        2968.50           1478       59780.00    262490.20
  216.59        2968.75           1481       56812.00    249365.00
  216.62        2969.00           1485       52525.00    230423.90
  216.65        2969.25           1488       49554.00    217309.10
  216.68        2969.50           1491       45953.00    201426.20
  216.70        2969.75           1495       41345.00    181122.40
  216.73        2970.00           1498       38403.00    168171.50
  216.76        2970.25           1501       35213.00    154139.40
  216.78        2970.50           1505       30850.00    134965.50
  216.81        2970.75           1508       27487.00    120200.30
  216.84        2971.00           1511       24479.00    107004.10
  216.87        2971.25           1515       20348.00     88897.12
  216.89        2971.50           1518       17233.00     75255.63
  216.92        2971.75           1521       14400.00     62858.14
  216.95        2972.00           1525       10302.00     44940.12
  216.98        2972.25           1528        7341.00     32004.69
  217.00        2972.50           1531        4655.00     20278.73
  217.03        2972.75           1535        1963.00      8534.30
  217.06        2973.00           1538         738.00      3192.53
  217.09        2973.25           1541         221.00       938.56
  217.11        2973.50           1545          60.00       236.71
  217.14        2973.75           1548          46.00       175.68
  217.17        2974.00           1551          47.00       180.04
  217.19        2974.25           1555          30.00       105.93
  217.22        2974.50           1558          24.00        79.77
  217.25        2974.75           1561          29.00       101.57
  217.27        2975.00           1565          23.00        75.41
  217.30        2975.25           1568          19.00        57.98
  217.33        2975.50           1571          20.00        62.34
  217.36        2975.75           1575          26.00        88.49
  217.38        2976.00           1578          24.00        79.77
  217.41        2976.25           1581          23.00        75.41
  217.44        2976.50           1585          24.00        79.77
  217.47        2976.75           1588          23.00        75.41
  217.49        2977.00           1591          22.00        71.06
  217.52        2977.25           1595          23.00        75.41
  217.55        2977.50           1598          23.00        75.41
  217.57        2977.75           1601          23.00        75.41
  217.60        2978.00           1605          22.00        71.06
  217.63        2978.25           1608          23.00        75.41
  217.66        2978.50           1611          25.00        84.13
  217.68        2978.75           1615          24.00        79.77
  217.71        2979.00           1618          19.00        57.98
  217.74        2979.25           1621          18.00        53.62
  217.76        2979.50           1625          25.00        84.13
  217.79        2979.75           1628          19.00        57.98
  217.82        2980.00           1631          21.00        66.70
  217.84        2980.25           1635          24.00        79.77
  217.87        2980.50           1638          25.00        84.13
  217.90        2980.75           1641          26.00        88.49
  217.93        2981.00           1645          24.00        79.77
  217.95        2981.25           1648          23.00        75.41
  217.98        2981.50           1651          23.00        75.41
  218.01        2981.75           1655          24.00        79.77
  218.03        2982.00           1658          23.00        75.41
  218.06        2982.25           1661          23.00        75.41
  218.09        2982.50           1665          24.00        79.77
  218.12        2982.75           1668          18.00        53.62
  218.14        2983.00           1671          22.00        71.06
  218.17        2983.25           1675          23.00        75.41
  218.20        2983.50           1678          25.00        84.13
  218.22        2983.75           1681          21.00        66.70
  218.25        2984.00           1685          24.00        79.77
HS scan finished at 03:38:26
end
