************************************************************
  HS Scan of (1) Internal mercury lamp
************************************************************
Integration time is 0.2294 seconds per sample
dh100917Tamanrasset 22.79-5.529 3.271528pr865
************************************************************
Dead Time -------------------------  2.8E-08 
Number of Cycles Used -------------  4 
Starting Wavelength (Angstroms) ---  2950 
Final Wavelength (Angstoms) -------  2984 
Wavelength Increment (Angstroms) --  .25 
Filter Wheel #1 Position ---------- (1) Ground quartz diffuser (ND=2.32)
Filter Wheel #2 Position ---------- (1) Neutral Density 0.494



************************************************************
HS scan start time = 03:34:43
Dark Count =  4.7 


Time (GMT)  Wavelength (Ang)  Step Number  Raw Counts  Counts/Second

  215.08        2950.00           1233          19.00        62.34
  215.14        2950.25           1236          24.00        84.13
  215.17        2950.50           1239          22.00        75.41
  215.20        2950.75           1242          18.00        57.98
  215.22        2951.00           1246          14.00        40.54
  215.25        2951.25           1249          24.00        84.13
  215.28        2951.50           1252          18.00        57.98
  215.31        2951.75           1256          16.00        49.26
  215.33        2952.00           1259          21.00        71.06
  215.36        2952.25           1262          21.00        71.06
  215.39        2952.50           1266          21.00        71.06
  215.41        2952.75           1269          22.00        75.41
  215.44        2953.00           1272          19.00        62.34
  215.47        2953.25           1276          17.00        53.62
  215.50        2953.50           1279          20.00        66.70
  215.52        2953.75           1282          20.00        66.70
  215.55        2954.00           1286          19.00        62.34
  215.58        2954.25           1289          18.00        57.98
  215.60        2954.50           1292          17.00        53.62
  215.63        2954.75           1295          21.00        71.06
  215.66        2955.00           1299          20.00        66.70
  215.69        2955.25           1302          18.00        57.98
  215.71        2955.50           1305          19.00        62.34
  215.74        2955.75           1309          20.00        66.70
  215.77        2956.00           1312          20.00        66.70
  215.79        2956.25           1315          18.00        57.98
  215.82        2956.50           1319          16.00        49.26
  215.85        2956.75           1322          19.00        62.34
  215.88        2957.00           1325          17.00        53.62
  215.90        2957.25           1329          20.00        66.70
  215.93        2957.50           1332          21.00        71.06
  215.96        2957.75           1335          21.00        71.06
  215.98        2958.00           1339          21.00        71.06
  216.01        2958.25           1342          26.00        92.85
  216.04        2958.50           1345          24.00        84.13
  216.07        2958.75           1348          18.00        57.98
  216.09        2959.00           1352          25.00        88.49
  216.12        2959.25           1355          20.00        66.70
  216.15        2959.50           1358          18.00        57.98
  216.17        2959.75           1362          24.00        84.13
  216.20        2960.00           1365          28.00       101.57
  216.23        2960.25           1368          28.00       101.57
  216.26        2960.50           1372          39.00       149.52
  216.28        2960.75           1375          44.00       171.32
  216.31        2961.00           1378         116.00       485.19
  216.34        2961.25           1382         557.00      2407.75
  216.36        2961.50           1385        1406.00      6109.59
  216.39        2961.75           1388        2799.00     12185.07
  216.42        2962.00           1392        5888.00     25664.91
  216.45        2962.25           1395        8480.00     36983.79
  216.47        2962.50           1398       11589.00     50569.81
  216.50        2962.75           1402       15458.00     67491.41
  216.53        2963.00           1405       18577.00     81144.50
  216.56        2963.25           1408       21738.00     94992.09
  216.58        2963.50           1412       25470.00    111355.00
  216.61        2963.75           1415       28435.00    124365.60
  216.64        2964.00           1418       31336.00    137104.70
  216.67        2964.25           1422       35430.00    155098.00
  216.69        2964.50           1425       38215.00    167348.60
  216.72        2964.75           1428       41526.00    181923.90
  216.75        2965.00           1431       44423.00    194686.60
  216.77        2965.25           1435       48411.00    212270.60
  216.80        2965.50           1438       51919.00    227752.50
  216.83        2965.75           1441       55019.00    241445.00
  216.86        2966.00           1445       59155.00    259729.90
  216.88        2966.25           1448       61574.00    270432.80
  216.91        2966.50           1451       63646.00    279605.50
  216.94        2966.75           1455       65543.00    288007.60
  216.97        2967.00           1458       66319.00    291445.80
  216.99        2967.25           1461       66421.00    291897.80
  217.02        2967.50           1465       66263.00    291197.70
  217.05        2967.75           1468       65793.00    289115.20
  217.08        2968.00           1471       64672.00    284149.30
  217.10        2968.25           1475       62135.00    272915.90
  217.13        2968.50           1478       59234.00    260079.40
  217.16        2968.75           1481       56457.00    247800.20
  217.18        2969.00           1485       52294.00    229408.30
  217.21        2969.25           1488       48973.00    214750.00
  217.24        2969.50           1491       45671.00    200187.40
  217.27        2969.75           1495       41407.00    181399.90
  217.29        2970.00           1498       38265.00    167568.60
  217.32        2970.25           1501       35130.00    153778.90
  217.35        2970.50           1505       30980.00    135540.90
  217.38        2970.75           1508       28003.00    122469.40
  217.40        2971.00           1511       24887.00    108797.80
  217.43        2971.25           1515       20862.00     91153.46
  217.46        2971.50           1518       17706.00     77330.74
  217.49        2971.75           1521       14724.00     64279.94
  217.51        2972.00           1525       10720.00     46771.33
  217.54        2972.25           1528        7685.00     33511.38
  217.57        2972.50           1531        4968.00     21649.13
  217.60        2972.75           1535        2083.00      9062.02
  217.62        2973.00           1538         823.00      3567.49
  217.65        2973.25           1541         282.00      1208.85
  217.68        2973.50           1545          72.00       293.38
  217.70        2973.75           1548          42.00       162.60
  217.73        2974.00           1551          42.00       162.60
  217.76        2974.25           1555          35.00       132.08
  217.79        2974.50           1558          31.00       114.65
  217.81        2974.75           1561          27.00        97.21
  217.84        2975.00           1565          19.00        62.34
  217.87        2975.25           1568          22.00        75.41
  217.89        2975.50           1571          22.00        75.41
  217.92        2975.75           1575          20.00        66.70
  217.95        2976.00           1578          28.00       101.57
  217.98        2976.25           1581          22.00        75.41
  218.00        2976.50           1585          29.00       105.93
  218.03        2976.75           1588          22.00        75.41
  218.06        2977.00           1591          20.00        66.70
  218.08        2977.25           1595          22.00        75.41
  218.11        2977.50           1598          24.00        84.13
  218.14        2977.75           1601          24.00        84.13
  218.17        2978.00           1605          25.00        88.49
  218.19        2978.25           1608          21.00        71.06
  218.22        2978.50           1611          21.00        71.06
  218.25        2978.75           1615          23.00        79.77
  218.27        2979.00           1618          23.00        79.77
  218.30        2979.25           1621          23.00        79.77
  218.33        2979.50           1625          21.00        71.06
  218.36        2979.75           1628          25.00        88.49
  218.38        2980.00           1631          22.00        75.41
  218.41        2980.25           1635          17.00        53.62
  218.44        2980.50           1638          21.00        71.06
  218.46        2980.75           1641          18.00        57.98
  218.49        2981.00           1645          20.00        66.70
  218.52        2981.25           1648          21.00        71.06
  218.55        2981.50           1651          21.00        71.06
  218.57        2981.75           1655          24.00        84.13
  218.60        2982.00           1658          21.00        71.06
  218.63        2982.25           1661          19.00        62.34
  218.65        2982.50           1665          17.00        53.62
  218.68        2982.75           1668          23.00        79.77
  218.71        2983.00           1671          21.00        71.06
  218.74        2983.25           1675          17.00        53.62
  218.76        2983.50           1678          25.00        88.49
  218.79        2983.75           1681          18.00        57.98
  218.82        2984.00           1685          21.00        71.06
HS scan finished at 03:39:00
end
