************************************************************
  HS Scan of (1) Internal mercury lamp
************************************************************
Integration time is 0.2294 seconds per sample
dh120917Tamanrasset 22.79-5.529 3.17466pr865
************************************************************
Dead Time -------------------------  2.8E-08 
Number of Cycles Used -------------  4 
Starting Wavelength (Angstroms) ---  2950 
Final Wavelength (Angstoms) -------  2984 
Wavelength Increment (Angstroms) --  .25 
Filter Wheel #1 Position ---------- (1) Ground quartz diffuser (ND=2.32)
Filter Wheel #2 Position ---------- (1) Neutral Density 0.494



************************************************************
HS scan start time = 03:35:43
Dark Count =  4.7 


Time (GMT)  Wavelength (Ang)  Step Number  Raw Counts  Counts/Second

  216.08        2950.00           1233          21.00        71.06
  216.14        2950.25           1236          22.00        75.41
  216.17        2950.50           1239          17.00        53.62
  216.20        2950.75           1242          19.00        62.34
  216.23        2951.00           1246          17.00        53.62
  216.25        2951.25           1249          17.00        53.62
  216.28        2951.50           1252          22.00        75.41
  216.31        2951.75           1256          18.00        57.98
  216.33        2952.00           1259          18.00        57.98
  216.36        2952.25           1262          17.00        53.62
  216.39        2952.50           1266          19.00        62.34
  216.42        2952.75           1269          19.00        62.34
  216.44        2953.00           1272          19.00        62.34
  216.47        2953.25           1276          21.00        71.06
  216.50        2953.50           1279          20.00        66.70
  216.53        2953.75           1282          15.00        44.90
  216.55        2954.00           1286          21.00        71.06
  216.58        2954.25           1289          17.00        53.62
  216.61        2954.50           1292          22.00        75.41
  216.63        2954.75           1295          18.00        57.98
  216.66        2955.00           1299          17.00        53.62
  216.69        2955.25           1302          16.00        49.26
  216.72        2955.50           1305          24.00        84.13
  216.74        2955.75           1309          21.00        71.06
  216.77        2956.00           1312          20.00        66.70
  216.80        2956.25           1315          19.00        62.34
  216.82        2956.50           1319          18.00        57.98
  216.85        2956.75           1322          18.00        57.98
  216.88        2957.00           1325          17.00        53.62
  216.91        2957.25           1329          16.00        49.26
  216.93        2957.50           1332          17.00        53.62
  216.96        2957.75           1335          20.00        66.70
  216.99        2958.00           1339          17.00        53.62
  217.01        2958.25           1342          21.00        71.06
  217.04        2958.50           1345          19.00        62.34
  217.07        2958.75           1348          18.00        57.98
  217.10        2959.00           1352          13.00        36.18
  217.12        2959.25           1355          17.00        53.62
  217.15        2959.50           1358          18.00        57.98
  217.18        2959.75           1362          26.00        92.85
  217.21        2960.00           1365          21.00        71.06
  217.23        2960.25           1368          30.00       110.29
  217.26        2960.50           1372          34.00       127.72
  217.29        2960.75           1375          52.00       206.19
  217.31        2961.00           1378         147.00       620.32
  217.34        2961.25           1382         684.00      2961.45
  217.37        2961.50           1385        1550.00      6737.54
  217.40        2961.75           1388        3123.00     13598.47
  217.42        2962.00           1392        6256.00     27271.47
  217.45        2962.25           1395        9025.00     39364.64
  217.48        2962.50           1398       12059.00     52624.57
  217.50        2962.75           1402       15864.00     69268.05
  217.53        2963.00           1405       18745.00     81880.19
  217.56        2963.25           1408       21471.00     93822.01
  217.59        2963.50           1412       25241.00    110350.50
  217.61        2963.75           1415       28249.00    123549.20
  217.64        2964.00           1418       31105.00    136090.00
  217.67        2964.25           1422       34992.00    153172.10
  217.70        2964.50           1425       37765.00    165368.60
  217.72        2964.75           1428       40908.00    179202.50
  217.75        2965.00           1431       44085.00    193197.00
  217.78        2965.25           1435       48002.00    210466.40
  217.81        2965.50           1438       51362.00    225293.40
  217.83        2965.75           1441       54208.00    237861.90
  217.86        2966.00           1445       57877.00    254078.00
  217.89        2966.25           1448       60260.00    264618.20
  217.92        2966.50           1451       62227.00    273323.10
  217.94        2966.75           1455       63450.00    278737.60
  217.97        2967.00           1458       64043.00    281363.60
  218.00        2967.25           1461       64072.00    281492.00
  218.03        2967.50           1465       63811.00    280336.20
  218.05        2967.75           1468       62788.00    275806.60
  218.08        2968.00           1471       61588.00    270494.80
  218.11        2968.25           1475       58714.00    257779.40
  218.14        2968.50           1478       56045.00    245979.10
  218.16        2968.75           1481       53295.00    233828.90
  218.19        2969.00           1485       48819.00    214070.50
  218.22        2969.25           1488       45600.00    199874.40
  218.24        2969.50           1491       42689.00    187046.40
  218.27        2969.75           1495       38582.00    168963.60
  218.30        2970.00           1498       35410.00    155010.10
  218.33        2970.25           1501       32368.00    141638.60
  218.35        2970.50           1505       28435.00    124365.60
  218.38        2970.75           1508       25244.00    110363.60
  218.41        2971.00           1511       22437.00     98055.69
  218.44        2971.25           1515       18516.00     80877.37
  218.46        2971.50           1518       15516.00     67745.21
  218.49        2971.75           1521       12626.00     55103.71
  218.52        2972.00           1525        8843.00     38569.53
  218.54        2972.25           1528        6090.00     26546.76
  218.57        2972.50           1531        3551.00     15465.72
  218.60        2972.75           1535        1330.00      5778.18
  218.63        2973.00           1538         457.00      1971.77
  218.65        2973.25           1541         137.00       576.73
  218.68        2973.50           1545          36.00       136.44
  218.71        2973.75           1548          44.00       171.32
  218.74        2974.00           1551          33.00       123.37
  218.76        2974.25           1555          25.00        88.49
  218.79        2974.50           1558          27.00        97.21
  218.82        2974.75           1561          23.00        79.77
  218.84        2975.00           1565          23.00        79.77
  218.87        2975.25           1568          20.00        66.70
  218.90        2975.50           1571          21.00        71.06
  218.93        2975.75           1575          23.00        79.77
  218.95        2976.00           1578          23.00        79.77
  218.98        2976.25           1581          23.00        79.77
  219.01        2976.50           1585          22.00        75.41
  219.04        2976.75           1588          27.00        97.21
  219.06        2977.00           1591          21.00        71.06
  219.09        2977.25           1595          22.00        75.41
  219.12        2977.50           1598          22.00        75.41
  219.14        2977.75           1601          22.00        75.41
  219.17        2978.00           1605          19.00        62.34
  219.20        2978.25           1608          21.00        71.06
  219.23        2978.50           1611          21.00        71.06
  219.25        2978.75           1615          24.00        84.13
  219.28        2979.00           1618          18.00        57.98
  219.31        2979.25           1621          26.00        92.85
  219.33        2979.50           1625          18.00        57.98
  219.36        2979.75           1628          20.00        66.70
  219.39        2980.00           1631          20.00        66.70
  219.41        2980.25           1635          18.00        57.98
  219.44        2980.50           1638          22.00        75.41
  219.47        2980.75           1641          23.00        79.77
  219.50        2981.00           1645          16.00        49.26
  219.52        2981.25           1648          19.00        62.34
  219.55        2981.50           1651          25.00        88.49
  219.58        2981.75           1655          20.00        66.70
  219.61        2982.00           1658          19.00        62.34
  219.63        2982.25           1661          15.00        44.90
  219.66        2982.50           1665          22.00        75.41
  219.69        2982.75           1668          18.00        57.98
  219.71        2983.00           1671          18.00        57.98
  219.74        2983.25           1675          23.00        79.77
  219.77        2983.50           1678          22.00        75.41
  219.80        2983.75           1681          19.00        62.34
  219.82        2984.00           1685          16.00        49.26
HS scan finished at 03:40:01
end
