************************************************************
  HS Scan of (1) Internal mercury lamp
************************************************************
Integration time is 0.2294 seconds per sample
dh080917Tamanrasset 22.79-5.529 3.123676pr865
************************************************************
Dead Time -------------------------  2.8E-08 
Number of Cycles Used -------------  4 
Starting Wavelength (Angstroms) ---  2950 
Final Wavelength (Angstoms) -------  2984 
Wavelength Increment (Angstroms) --  .25 
Filter Wheel #1 Position ---------- (1) Ground quartz diffuser (ND=2.32)
Filter Wheel #2 Position ---------- (1) Neutral Density 0.494



************************************************************
HS scan start time = 03:34:47
Dark Count =  4.9 


Time (GMT)  Wavelength (Ang)  Step Number  Raw Counts  Counts/Second

  215.14        2950.00           1233          17.00        52.75
  215.20        2950.25           1236          24.00        83.26
  215.23        2950.50           1239          18.00        57.11
  215.26        2950.75           1242          21.00        70.18
  215.28        2951.00           1246          23.00        78.90
  215.31        2951.25           1249          22.00        74.54
  215.34        2951.50           1252          19.00        61.46
  215.37        2951.75           1256          18.00        57.11
  215.39        2952.00           1259          19.00        61.46
  215.42        2952.25           1262          21.00        70.18
  215.45        2952.50           1266          14.00        39.67
  215.47        2952.75           1269          26.00        91.98
  215.50        2953.00           1272          17.00        52.75
  215.53        2953.25           1276          21.00        70.18
  215.56        2953.50           1279          19.00        61.46
  215.58        2953.75           1282          22.00        74.54
  215.61        2954.00           1286          18.00        57.11
  215.64        2954.25           1289          17.00        52.75
  215.66        2954.50           1292          20.00        65.82
  215.69        2954.75           1295          19.00        61.46
  215.72        2955.00           1299          25.00        87.62
  215.75        2955.25           1302          19.00        61.46
  215.77        2955.50           1305          18.00        57.11
  215.80        2955.75           1309          22.00        74.54
  215.83        2956.00           1312          18.00        57.11
  215.85        2956.25           1315          20.00        65.82
  215.88        2956.50           1319          16.00        48.39
  215.91        2956.75           1322          20.00        65.82
  215.94        2957.00           1325          19.00        61.46
  215.96        2957.25           1329          17.00        52.75
  215.99        2957.50           1332          18.00        57.11
  216.02        2957.75           1335          24.00        83.26
  216.04        2958.00           1339          20.00        65.82
  216.07        2958.25           1342          20.00        65.82
  216.10        2958.50           1345          21.00        70.18
  216.13        2958.75           1348          23.00        78.90
  216.15        2959.00           1352          17.00        52.75
  216.18        2959.25           1355          20.00        65.82
  216.21        2959.50           1358          18.00        57.11
  216.23        2959.75           1362          25.00        87.62
  216.26        2960.00           1365          24.00        83.26
  216.29        2960.25           1368          25.00        87.62
  216.32        2960.50           1372          33.00       122.49
  216.34        2960.75           1375          35.00       131.21
  216.37        2961.00           1378          70.00       283.79
  216.40        2961.25           1382         441.00      1901.15
  216.42        2961.50           1385        1114.00      4835.44
  216.45        2961.75           1388        2367.00     10299.83
  216.48        2962.00           1392        4961.00     21617.70
  216.51        2962.25           1395        7346.00     32030.02
  216.53        2962.50           1398       10352.00     45162.13
  216.56        2962.75           1402       14008.00     61146.89
  216.59        2963.00           1405       16775.00     73254.29
  216.62        2963.25           1408       19632.00     85764.12
  216.64        2963.50           1412       23305.00    101859.80
  216.67        2963.75           1415       25961.00    113508.00
  216.70        2964.00           1418       29223.00    127824.20
  216.73        2964.25           1422       32787.00    143478.90
  216.75        2964.50           1425       35627.00    155963.40
  216.78        2964.75           1428       38854.00    170159.70
  216.81        2965.00           1431       41397.00    181354.90
  216.83        2965.25           1435       45610.00    199917.60
  216.86        2965.50           1438       48287.00    211722.70
  216.89        2965.75           1441       51474.00    225786.90
  216.92        2966.00           1445       55346.00    242889.10
  216.94        2966.25           1448       57863.00    254015.20
  216.97        2966.50           1451       59732.00    262281.40
  217.00        2966.75           1455       61699.00    270985.10
  217.03        2967.00           1458       62420.00    274176.60
  217.05        2967.25           1461       62785.00    275792.40
  217.08        2967.50           1465       62566.00    274822.90
  217.11        2967.75           1468       62330.00    273778.20
  217.14        2968.00           1471       61231.00    268913.90
  217.16        2968.25           1475       59052.00    259273.50
  217.19        2968.50           1478       56782.00    249235.90
  217.22        2968.75           1481       53718.00    235696.40
  217.25        2969.00           1485       49742.00    218142.20
  217.27        2969.25           1488       46627.00    204401.50
  217.30        2969.50           1491       43582.00    190979.80
  217.33        2969.75           1495       39581.00    173359.50
  217.35        2970.00           1498       36747.00    160889.30
  217.38        2970.25           1501       33829.00    148058.50
  217.41        2970.50           1505       29857.00    130608.00
  217.44        2970.75           1508       26924.00    117733.20
  217.46        2971.00           1511       23728.00    103714.40
  217.49        2971.25           1515       20004.00     87393.62
  217.52        2971.50           1518       16988.00     74186.63
  217.55        2971.75           1521       14105.00     61571.18
  217.57        2972.00           1525       10294.00     44908.66
  217.60        2972.25           1528        7288.00     31776.74
  217.63        2972.50           1531        4713.00     20535.35
  217.66        2972.75           1535        2227.00      9689.20
  217.68        2973.00           1538         882.00      3823.86
  217.71        2973.25           1541         302.00      1295.16
  217.74        2973.50           1545          68.00       275.07
  217.76        2973.75           1548          37.00       139.93
  217.79        2974.00           1551          37.00       139.93
  217.82        2974.25           1555          26.00        91.98
  217.85        2974.50           1558          28.00       100.70
  217.87        2974.75           1561          23.00        78.90
  217.90        2975.00           1565          26.00        91.98
  217.93        2975.25           1568          23.00        78.90
  217.95        2975.50           1571          19.00        61.46
  217.98        2975.75           1575          24.00        83.26
  218.01        2976.00           1578          19.00        61.46
  218.04        2976.25           1581          22.00        74.54
  218.06        2976.50           1585          19.00        61.46
  218.09        2976.75           1588          27.00        96.34
  218.12        2977.00           1591          22.00        74.54
  218.15        2977.25           1595          20.00        65.82
  218.17        2977.50           1598          20.00        65.82
  218.20        2977.75           1601          19.00        61.46
  218.23        2978.00           1605          24.00        83.26
  218.25        2978.25           1608          27.00        96.34
  218.28        2978.50           1611          22.00        74.54
  218.31        2978.75           1615          20.00        65.82
  218.34        2979.00           1618          20.00        65.82
  218.36        2979.25           1621          21.00        70.18
  218.39        2979.50           1625          19.00        61.46
  218.42        2979.75           1628          19.00        61.46
  218.44        2980.00           1631          21.00        70.18
  218.47        2980.25           1635          21.00        70.18
  218.50        2980.50           1638          18.00        57.11
  218.53        2980.75           1641          22.00        74.54
  218.55        2981.00           1645          20.00        65.82
  218.58        2981.25           1648          19.00        61.46
  218.61        2981.50           1651          21.00        70.18
  218.63        2981.75           1655          16.00        48.39
  218.66        2982.00           1658          18.00        57.11
  218.69        2982.25           1661          22.00        74.54
  218.72        2982.50           1665          19.00        61.46
  218.74        2982.75           1668          17.00        52.75
  218.77        2983.00           1671          15.00        44.03
  218.80        2983.25           1675          19.00        61.46
  218.83        2983.50           1678          19.00        61.46
  218.85        2983.75           1681          18.00        57.11
  218.88        2984.00           1685          16.00        48.39
HS scan finished at 03:39:04
end
