************************************************************
  HS Scan of (1) Internal mercury lamp
************************************************************
Integration time is 0.2294 seconds per sample
dh150918Tamanrasset 22.79-5.529 4.974364pr865
************************************************************
Dead Time -------------------------  2.8E-08 
Number of Cycles Used -------------  4 
Starting Wavelength (Angstroms) ---  2950 
Final Wavelength (Angstoms) -------  2984 
Wavelength Increment (Angstroms) --  .25 
Filter Wheel #1 Position ---------- (1) Ground quartz diffuser (ND=2.32)
Filter Wheel #2 Position ---------- (1) Neutral Density 0.494



************************************************************
HS scan start time = 03:37:23
Dark Count =  5.3 


Time (GMT)  Wavelength (Ang)  Step Number  Raw Counts  Counts/Second

  217.75        2950.00           1233          20.00        64.08
  217.81        2950.25           1236          23.00        77.16
  217.84        2950.50           1239          15.00        42.28
  217.87        2950.75           1242          21.00        68.44
  217.89        2951.00           1246          22.00        72.80
  217.92        2951.25           1249          19.00        59.72
  217.95        2951.50           1252          23.00        77.16
  217.97        2951.75           1256          16.00        46.64
  218.00        2952.00           1259          19.00        59.72
  218.03        2952.25           1262          17.00        51.00
  218.06        2952.50           1266          20.00        64.08
  218.08        2952.75           1269          20.00        64.08
  218.11        2953.00           1272          21.00        68.44
  218.14        2953.25           1276          21.00        68.44
  218.16        2953.50           1279          21.00        68.44
  218.19        2953.75           1282          20.00        64.08
  218.22        2954.00           1286          21.00        68.44
  218.25        2954.25           1289          23.00        77.16
  218.27        2954.50           1292          21.00        68.44
  218.30        2954.75           1295          22.00        72.80
  218.33        2955.00           1299          16.00        46.64
  218.35        2955.25           1302          22.00        72.80
  218.38        2955.50           1305          20.00        64.08
  218.41        2955.75           1309          19.00        59.72
  218.44        2956.00           1312          21.00        68.44
  218.46        2956.25           1315          22.00        72.80
  218.49        2956.50           1319          20.00        64.08
  218.52        2956.75           1322          27.00        94.59
  218.55        2957.00           1325          21.00        68.44
  218.57        2957.25           1329          22.00        72.80
  218.60        2957.50           1332          16.00        46.64
  218.63        2957.75           1335          18.00        55.36
  218.65        2958.00           1339          18.00        55.36
  218.68        2958.25           1342          18.00        55.36
  218.71        2958.50           1345          22.00        72.80
  218.74        2958.75           1348          21.00        68.44
  218.76        2959.00           1352          21.00        68.44
  218.79        2959.25           1355          21.00        68.44
  218.82        2959.50           1358          24.00        81.52
  218.84        2959.75           1362          18.00        55.36
  218.87        2960.00           1365          28.00        98.95
  218.90        2960.25           1368          31.00       112.03
  218.93        2960.50           1372          32.00       116.39
  218.95        2960.75           1375          36.00       133.83
  218.98        2961.00           1378          89.00       364.87
  219.01        2961.25           1382         441.00      1899.40
  219.03        2961.50           1385        1125.00      4881.66
  219.06        2961.75           1388        2456.00     10686.28
  219.09        2962.00           1392        5066.00     22074.23
  219.12        2962.25           1395        7579.00     33045.82
  219.14        2962.50           1398       10636.00     46401.58
  219.17        2962.75           1402       14246.00     62186.22
  219.20        2963.00           1405       17636.00     77021.63
  219.23        2963.25           1408       20745.00     90638.19
  219.25        2963.50           1412       24465.00    106944.40
  219.28        2963.75           1415       27481.00    120175.70
  219.31        2964.00           1418       30487.00    133372.90
  219.33        2964.25           1422       34620.00    151533.90
  219.36        2964.50           1425       37757.00    165330.70
  219.39        2964.75           1428       40690.00    178240.00
  219.42        2965.00           1431       43349.00    189951.40
  219.44        2965.25           1435       47432.00    207949.70
  219.47        2965.50           1438       50468.00    221344.50
  219.50        2965.75           1441       53647.00    235381.00
  219.53        2966.00           1445       57500.00    252408.40
  219.55        2966.25           1448       60136.00    264066.90
  219.58        2966.50           1451       62509.00    274568.80
  219.61        2966.75           1455       64416.00    283012.80
  219.63        2967.00           1458       65224.00    286591.80
  219.66        2967.25           1461       65694.00    288674.00
  219.69        2967.50           1465       65223.00    286587.40
  219.72        2967.75           1468       64661.00    284098.00
  219.74        2968.00           1471       64074.00    281498.20
  219.77        2968.25           1475       61779.00    271337.50
  219.80        2968.50           1478       59330.00    260501.30
  219.83        2968.75           1481       56649.00    248646.20
  219.85        2969.00           1485       52460.00    230138.70
  219.88        2969.25           1488       49255.00    215991.50
  219.91        2969.50           1491       46005.00    201657.20
  219.94        2969.75           1495       41956.00    183815.00
  219.96        2970.00           1498       38840.00    170096.40
  219.99        2970.25           1501       35951.00    157386.50
  220.02        2970.50           1505       31637.00    138424.30
  220.04        2970.75           1508       28495.00    124626.40
  220.07        2971.00           1511       25633.00    112067.30
  220.10        2971.25           1515       21467.00     93801.84
  220.13        2971.50           1518       18538.00     80971.07
  220.15        2971.75           1521       15652.00     68337.71
  220.18        2972.00           1525       11753.00     51284.14
  220.21        2972.25           1528        8716.00     38012.10
  220.24        2972.50           1531        6047.00     26356.41
  220.26        2972.75           1535        3016.00     13129.06
  220.29        2973.00           1538        1398.00      6072.09
  220.32        2973.25           1541         474.00      2043.27
  220.34        2973.50           1545          98.00       404.10
  220.37        2973.75           1548          40.00       151.26
  220.40        2974.00           1551          32.00       116.39
  220.43        2974.25           1555          26.00        90.24
  220.45        2974.50           1558          29.00       103.31
  220.48        2974.75           1561          26.00        90.24
  220.51        2975.00           1565          26.00        90.24
  220.53        2975.25           1568          22.00        72.80
  220.56        2975.50           1571          18.00        55.36
  220.59        2975.75           1575          22.00        72.80
  220.62        2976.00           1578          20.00        64.08
  220.64        2976.25           1581          25.00        85.88
  220.67        2976.50           1585          26.00        90.24
  220.70        2976.75           1588          23.00        77.16
  220.72        2977.00           1591          24.00        81.52
  220.75        2977.25           1595          24.00        81.52
  220.78        2977.50           1598          23.00        77.16
  220.81        2977.75           1601          21.00        68.44
  220.83        2978.00           1605          20.00        64.08
  220.86        2978.25           1608          23.00        77.16
  220.89        2978.50           1611          19.00        59.72
  220.91        2978.75           1615          21.00        68.44
  220.94        2979.00           1618          22.00        72.80
  220.97        2979.25           1621          16.00        46.64
  221.00        2979.50           1625          18.00        55.36
  221.02        2979.75           1628          24.00        81.52
  221.05        2980.00           1631          21.00        68.44
  221.08        2980.25           1635          24.00        81.52
  221.11        2980.50           1638          21.00        68.44
  221.13        2980.75           1641          19.00        59.72
  221.16        2981.00           1645          19.00        59.72
  221.19        2981.25           1648          27.00        94.59
  221.21        2981.50           1651          22.00        72.80
  221.24        2981.75           1655          19.00        59.72
  221.27        2982.00           1658          18.00        55.36
  221.30        2982.25           1661          19.00        59.72
  221.32        2982.50           1665          16.00        46.64
  221.35        2982.75           1668          23.00        77.16
  221.38        2983.00           1671          21.00        68.44
  221.41        2983.25           1675          25.00        85.88
  221.43        2983.50           1678          22.00        72.80
  221.46        2983.75           1681          23.00        77.16
  221.49        2984.00           1685          20.00        64.08
HS scan finished at 03:41:40
end
