************************************************************
  HS Scan of (1) Internal mercury lamp
************************************************************
Integration time is 0.2294 seconds per sample
dh110918Tamanrasset 22.79-5.529 4.974364pr865
************************************************************
Dead Time -------------------------  2.8E-08 
Number of Cycles Used -------------  4 
Starting Wavelength (Angstroms) ---  2950 
Final Wavelength (Angstoms) -------  2984 
Wavelength Increment (Angstroms) --  .25 
Filter Wheel #1 Position ---------- (1) Ground quartz diffuser (ND=2.32)
Filter Wheel #2 Position ---------- (1) Neutral Density 0.494



************************************************************
HS scan start time = 03:35:12
Dark Count =  6.2 


Time (GMT)  Wavelength (Ang)  Step Number  Raw Counts  Counts/Second

  215.55        2950.00           1233          18.00        51.44
  215.61        2950.25           1236          24.00        77.59
  215.64        2950.50           1239          19.00        55.80
  215.67        2950.75           1242          19.00        55.80
  215.69        2951.00           1246          23.00        73.23
  215.72        2951.25           1249          17.00        47.08
  215.75        2951.50           1252          22.00        68.88
  215.78        2951.75           1256          17.00        47.08
  215.80        2952.00           1259          20.00        60.16
  215.83        2952.25           1262          24.00        77.59
  215.86        2952.50           1266          22.00        68.88
  215.88        2952.75           1269          20.00        60.16
  215.91        2953.00           1272          25.00        81.95
  215.94        2953.25           1276          25.00        81.95
  215.97        2953.50           1279          20.00        60.16
  215.99        2953.75           1282          27.00        90.67
  216.02        2954.00           1286          19.00        55.80
  216.05        2954.25           1289          19.00        55.80
  216.07        2954.50           1292          21.00        64.52
  216.10        2954.75           1295          21.00        64.52
  216.13        2955.00           1299          24.00        77.59
  216.15        2955.25           1302          18.00        51.44
  216.18        2955.50           1305          16.00        42.72
  216.21        2955.75           1309          17.00        47.08
  216.24        2956.00           1312          20.00        60.16
  216.26        2956.25           1315          17.00        47.08
  216.29        2956.50           1319          21.00        64.52
  216.32        2956.75           1322          15.00        38.36
  216.34        2957.00           1325          22.00        68.88
  216.37        2957.25           1329          18.00        51.44
  216.40        2957.50           1332          18.00        51.44
  216.43        2957.75           1335          22.00        68.88
  216.45        2958.00           1339          18.00        51.44
  216.48        2958.25           1342          18.00        51.44
  216.51        2958.50           1345          19.00        55.80
  216.53        2958.75           1348          22.00        68.88
  216.56        2959.00           1352          20.00        60.16
  216.59        2959.25           1355          22.00        68.88
  216.62        2959.50           1358          21.00        64.52
  216.64        2959.75           1362          22.00        68.88
  216.67        2960.00           1365          22.00        68.88
  216.70        2960.25           1368          28.00        95.03
  216.72        2960.50           1372          39.00       142.98
  216.75        2960.75           1375          43.00       160.42
  216.78        2961.00           1378         172.00       722.77
  216.81        2961.25           1382         856.00      3704.83
  216.83        2961.50           1385        1901.00      8261.72
  216.86        2961.75           1388        3722.00     16205.26
  216.89        2962.00           1392        6993.00     30482.85
  216.92        2962.25           1395        9710.00     42350.98
  216.94        2962.50           1398       12754.00     55656.85
  216.97        2962.75           1402       16785.00     73292.38
  217.00        2963.00           1405       19748.00     86266.55
  217.02        2963.25           1408       22784.00     99570.16
  217.05        2963.50           1412       26655.00    116547.10
  217.08        2963.75           1415       29565.00    129320.10
  217.11        2964.00           1418       32806.00    143556.70
  217.13        2964.25           1422       36854.00    161354.20
  217.16        2964.50           1425       39884.00    174687.60
  217.19        2964.75           1428       42762.00    187361.40
  217.22        2965.00           1431       45905.00    201212.40
  217.24        2965.25           1435       50293.00    220568.20
  217.27        2965.50           1438       53236.00    233561.70
  217.30        2965.75           1441       56174.00    246542.70
  217.33        2966.00           1445       60298.00    264779.70
  217.35        2966.25           1448       62372.00    273958.30
  217.38        2966.50           1451       64613.00    283881.40
  217.41        2966.75           1455       65841.00    289321.20
  217.43        2967.00           1458       66318.00    291434.80
  217.46        2967.25           1461       66492.00    292205.80
  217.49        2967.50           1465       65982.00    289946.00
  217.52        2967.75           1468       65273.00    286804.90
  217.54        2968.00           1471       63783.00    280205.60
  217.57        2968.25           1475       61053.00    268120.50
  217.60        2968.50           1478       58218.00    255579.20
  217.63        2968.75           1481       55349.00    242896.60
  217.65        2969.00           1485       50863.00    223084.00
  217.68        2969.25           1488       47858.00    209824.60
  217.71        2969.50           1491       44387.00    194521.30
  217.73        2969.75           1495       40359.00    176778.70
  217.76        2970.00           1498       37307.00    163347.00
  217.79        2970.25           1501       34032.00    148945.10
  217.82        2970.50           1505       29744.00    130106.10
  217.84        2970.75           1508       26617.00    116380.40
  217.87        2971.00           1511       23623.00    103248.40
  217.90        2971.25           1515       19457.00     84991.91
  217.93        2971.50           1518       16412.00     71659.77
  217.95        2971.75           1521       13468.00     58779.32
  217.98        2972.00           1525        9676.00     42202.41
  218.01        2972.25           1528        6766.00     29491.65
  218.03        2972.50           1531        4078.00     17758.61
  218.06        2972.75           1535        1633.00      7092.95
  218.09        2973.00           1538         587.00      2532.00
  218.12        2973.25           1541         183.00       770.72
  218.14        2973.50           1545          56.00       217.09
  218.17        2973.75           1548          40.00       147.34
  218.20        2974.00           1551          36.00       129.90
  218.23        2974.25           1555          30.00       103.75
  218.25        2974.50           1558          30.00       103.75
  218.28        2974.75           1561          27.00        90.67
  218.31        2975.00           1565          23.00        73.23
  218.33        2975.25           1568          29.00        99.39
  218.36        2975.50           1571          23.00        73.23
  218.39        2975.75           1575          24.00        77.59
  218.42        2976.00           1578          22.00        68.88
  218.44        2976.25           1581          27.00        90.67
  218.47        2976.50           1585          22.00        68.88
  218.50        2976.75           1588          26.00        86.31
  218.52        2977.00           1591          23.00        73.23
  218.55        2977.25           1595          22.00        68.88
  218.58        2977.50           1598          24.00        77.59
  218.61        2977.75           1601          28.00        95.03
  218.63        2978.00           1605          25.00        81.95
  218.66        2978.25           1608          20.00        60.16
  218.69        2978.50           1611          26.00        86.31
  218.71        2978.75           1615          27.00        90.67
  218.74        2979.00           1618          21.00        64.52
  218.77        2979.25           1621          25.00        81.95
  218.80        2979.50           1625          21.00        64.52
  218.82        2979.75           1628          26.00        86.31
  218.85        2980.00           1631          21.00        64.52
  218.88        2980.25           1635          18.00        51.44
  218.90        2980.50           1638          21.00        64.52
  218.93        2980.75           1641          24.00        77.59
  218.96        2981.00           1645          22.00        68.88
  218.99        2981.25           1648          20.00        60.16
  219.01        2981.50           1651          20.00        60.16
  219.04        2981.75           1655          20.00        60.16
  219.07        2982.00           1658          17.00        47.08
  219.09        2982.25           1661          22.00        68.88
  219.12        2982.50           1665          19.00        55.80
  219.15        2982.75           1668          25.00        81.95
  219.18        2983.00           1671          23.00        73.23
  219.20        2983.25           1675          21.00        64.52
  219.23        2983.50           1678          17.00        47.08
  219.26        2983.75           1681          15.00        38.36
  219.28        2984.00           1685          16.00        42.72
HS scan finished at 03:39:28
end
