************************************************************
  HS Scan of (1) Internal mercury lamp
************************************************************
Integration time is 0.2294 seconds per sample
dh130918Tamanrasset 22.79-5.529 4.974364pr865
************************************************************
Dead Time -------------------------  2.8E-08 
Number of Cycles Used -------------  4 
Starting Wavelength (Angstroms) ---  2950 
Final Wavelength (Angstoms) -------  2984 
Wavelength Increment (Angstroms) --  .25 
Filter Wheel #1 Position ---------- (1) Ground quartz diffuser (ND=2.32)
Filter Wheel #2 Position ---------- (1) Neutral Density 0.494



************************************************************
HS scan start time = 03:36:51
Dark Count =  4.9 


Time (GMT)  Wavelength (Ang)  Step Number  Raw Counts  Counts/Second

  217.20        2950.00           1233          22.00        74.54
  217.27        2950.25           1236          17.00        52.75
  217.30        2950.50           1239          22.00        74.54
  217.32        2950.75           1242          21.00        70.18
  217.35        2951.00           1246          20.00        65.82
  217.38        2951.25           1249          24.00        83.26
  217.40        2951.50           1252          18.00        57.11
  217.43        2951.75           1256          21.00        70.18
  217.46        2952.00           1259          21.00        70.18
  217.49        2952.25           1262          22.00        74.54
  217.51        2952.50           1266          18.00        57.11
  217.54        2952.75           1269          19.00        61.46
  217.57        2953.00           1272          20.00        65.82
  217.59        2953.25           1276          17.00        52.75
  217.62        2953.50           1279          24.00        83.26
  217.65        2953.75           1282          19.00        61.46
  217.68        2954.00           1286          19.00        61.46
  217.70        2954.25           1289          21.00        70.18
  217.73        2954.50           1292          21.00        70.18
  217.76        2954.75           1295          20.00        65.82
  217.78        2955.00           1299          19.00        61.46
  217.81        2955.25           1302          21.00        70.18
  217.84        2955.50           1305          20.00        65.82
  217.87        2955.75           1309          17.00        52.75
  217.89        2956.00           1312          17.00        52.75
  217.92        2956.25           1315          21.00        70.18
  217.95        2956.50           1319          22.00        74.54
  217.97        2956.75           1322          20.00        65.82
  218.00        2957.00           1325          19.00        61.46
  218.03        2957.25           1329          21.00        70.18
  218.06        2957.50           1332          22.00        74.54
  218.08        2957.75           1335          19.00        61.46
  218.11        2958.00           1339          18.00        57.11
  218.14        2958.25           1342          20.00        65.82
  218.16        2958.50           1345          17.00        52.75
  218.19        2958.75           1348          18.00        57.11
  218.22        2959.00           1352          20.00        65.82
  218.25        2959.25           1355          17.00        52.75
  218.27        2959.50           1358          18.00        57.11
  218.30        2959.75           1362          24.00        83.26
  218.33        2960.00           1365          23.00        78.90
  218.35        2960.25           1368          28.00       100.70
  218.38        2960.50           1372          34.00       126.85
  218.41        2960.75           1375          40.00       153.01
  218.44        2961.00           1378          91.00       375.33
  218.46        2961.25           1382         488.00      2106.05
  218.49        2961.50           1385        1255.00      5450.26
  218.52        2961.75           1388        2701.00     11756.70
  218.54        2962.00           1392        5416.00     23603.65
  218.57        2962.25           1395        8134.00     35471.57
  218.60        2962.50           1398       11095.00     48409.51
  218.63        2962.75           1402       14715.00     64239.68
  218.65        2963.00           1405       17646.00     77067.16
  218.68        2963.25           1408       20483.00     89492.06
  218.71        2963.50           1412       24286.00    106161.20
  218.74        2963.75           1415       27087.00    118448.40
  218.76        2964.00           1418       30417.00    133067.20
  218.79        2964.25           1422       34282.00    150049.80
  218.82        2964.50           1425       37030.00    162134.10
  218.85        2964.75           1428       40236.00    176242.90
  218.87        2965.00           1431       43386.00    190116.20
  218.90        2965.25           1435       47438.00    207977.90
  218.93        2965.50           1438       50733.00    222515.90
  218.95        2965.75           1441       53302.00    233859.00
  218.98        2966.00           1445       57076.00    250535.60
  219.01        2966.25           1448       59758.00    262396.40
  219.04        2966.50           1451       61862.00    271706.60
  219.06        2966.75           1455       63371.00    278386.90
  219.09        2967.00           1458       64069.00    281477.80
  219.12        2967.25           1461       64518.00    283466.40
  219.15        2967.50           1465       64318.00    282580.60
  219.17        2967.75           1468       63691.00    279803.90
  219.20        2968.00           1471       62509.00    274570.60
  219.23        2968.25           1475       59966.00    263316.60
  219.25        2968.50           1478       57355.00    251769.10
  219.28        2968.75           1481       54794.00    240450.00
  219.31        2969.00           1485       50402.00    221055.00
  219.34        2969.25           1488       47207.00    206959.10
  219.36        2969.50           1491       44100.00    193262.30
  219.39        2969.75           1495       40274.00    176410.20
  219.42        2970.00           1498       36904.00    161579.90
  219.45        2970.25           1501       34186.00    149627.80
  219.47        2970.50           1505       29838.00    130524.60
  219.50        2970.75           1508       27023.00    118167.60
  219.53        2971.00           1511       23879.00    104376.50
  219.56        2971.25           1515       19892.00     86903.01
  219.58        2971.50           1518       17043.00     74427.40
  219.61        2971.75           1521       14213.00     62043.61
  219.64        2972.00           1525       10152.00     44288.10
  219.66        2972.25           1528        7311.00     31877.18
  219.69        2972.50           1531        4698.00     20469.88
  219.72        2972.75           1535        1987.00      8642.46
  219.75        2973.00           1538         788.00      3414.01
  219.77        2973.25           1541         254.00      1085.91
  219.80        2973.50           1545          63.00       253.27
  219.83        2973.75           1548          44.00       170.45
  219.85        2974.00           1551          35.00       131.21
  219.88        2974.25           1555          25.00        87.62
  219.91        2974.50           1558          25.00        87.62
  219.94        2974.75           1561          27.00        96.34
  219.96        2975.00           1565          25.00        87.62
  219.99        2975.25           1568          26.00        91.98
  220.02        2975.50           1571          21.00        70.18
  220.04        2975.75           1575          24.00        83.26
  220.07        2976.00           1578          20.00        65.82
  220.10        2976.25           1581          23.00        78.90
  220.13        2976.50           1585          20.00        65.82
  220.15        2976.75           1588          19.00        61.46
  220.18        2977.00           1591          25.00        87.62
  220.21        2977.25           1595          22.00        74.54
  220.23        2977.50           1598          21.00        70.18
  220.26        2977.75           1601          19.00        61.46
  220.29        2978.00           1605          21.00        70.18
  220.32        2978.25           1608          27.00        96.34
  220.34        2978.50           1611          23.00        78.90
  220.37        2978.75           1615          21.00        70.18
  220.40        2979.00           1618          23.00        78.90
  220.42        2979.25           1621          19.00        61.46
  220.45        2979.50           1625          24.00        83.26
  220.48        2979.75           1628          26.00        91.98
  220.51        2980.00           1631          23.00        78.90
  220.53        2980.25           1635          19.00        61.46
  220.56        2980.50           1638          17.00        52.75
  220.59        2980.75           1641          24.00        83.26
  220.61        2981.00           1645          16.00        48.39
  220.64        2981.25           1648          20.00        65.82
  220.67        2981.50           1651          20.00        65.82
  220.70        2981.75           1655          20.00        65.82
  220.72        2982.00           1658          18.00        57.11
  220.75        2982.25           1661          22.00        74.54
  220.78        2982.50           1665          23.00        78.90
  220.81        2982.75           1668          19.00        61.46
  220.83        2983.00           1671          26.00        91.98
  220.86        2983.25           1675          27.00        96.34
  220.89        2983.50           1678          19.00        61.46
  220.91        2983.75           1681          23.00        78.90
  220.94        2984.00           1685          24.00        83.26
HS scan finished at 03:41:08
end
