************************************************************
  HS Scan of (1) Internal mercury lamp
************************************************************
Integration time is 0.2294 seconds per sample
dh140918Tamanrasset 22.79-5.529 4.974364pr865
************************************************************
Dead Time -------------------------  2.8E-08 
Number of Cycles Used -------------  4 
Starting Wavelength (Angstroms) ---  2950 
Final Wavelength (Angstoms) -------  2984 
Wavelength Increment (Angstroms) --  .25 
Filter Wheel #1 Position ---------- (1) Ground quartz diffuser (ND=2.32)
Filter Wheel #2 Position ---------- (1) Neutral Density 0.494



************************************************************
HS scan start time = 03:36:35
Dark Count =  5.7 


Time (GMT)  Wavelength (Ang)  Step Number  Raw Counts  Counts/Second

  216.95        2950.00           1233          19.00        57.98
  217.01        2950.25           1236          18.00        53.62
  217.04        2950.50           1239          20.00        62.34
  217.06        2950.75           1242          20.00        62.34
  217.09        2951.00           1246          22.00        71.06
  217.12        2951.25           1249          19.00        57.98
  217.15        2951.50           1252          17.00        49.26
  217.17        2951.75           1256          23.00        75.41
  217.20        2952.00           1259          20.00        62.34
  217.23        2952.25           1262          20.00        62.34
  217.25        2952.50           1266          23.00        75.41
  217.28        2952.75           1269          20.00        62.34
  217.31        2953.00           1272          18.00        53.62
  217.34        2953.25           1276          24.00        79.77
  217.36        2953.50           1279          17.00        49.26
  217.39        2953.75           1282          17.00        49.26
  217.42        2954.00           1286          21.00        66.70
  217.44        2954.25           1289          19.00        57.98
  217.47        2954.50           1292          22.00        71.06
  217.50        2954.75           1295          19.00        57.98
  217.53        2955.00           1299          25.00        84.13
  217.55        2955.25           1302          16.00        44.90
  217.58        2955.50           1305          20.00        62.34
  217.61        2955.75           1309          20.00        62.34
  217.63        2956.00           1312          17.00        49.26
  217.66        2956.25           1315          20.00        62.34
  217.69        2956.50           1319          19.00        57.98
  217.72        2956.75           1322          26.00        88.49
  217.74        2957.00           1325          22.00        71.06
  217.77        2957.25           1329          22.00        71.06
  217.80        2957.50           1332          21.00        66.70
  217.82        2957.75           1335          19.00        57.98
  217.85        2958.00           1339          21.00        66.70
  217.88        2958.25           1342          22.00        71.06
  217.91        2958.50           1345          19.00        57.98
  217.93        2958.75           1348          19.00        57.98
  217.96        2959.00           1352          24.00        79.77
  217.99        2959.25           1355          22.00        71.06
  218.01        2959.50           1358          24.00        79.77
  218.04        2959.75           1362          21.00        66.70
  218.07        2960.00           1365          25.00        84.13
  218.10        2960.25           1368          26.00        88.49
  218.12        2960.50           1372          35.00       127.72
  218.15        2960.75           1375          45.00       171.32
  218.18        2961.00           1378         150.00       629.04
  218.20        2961.25           1382         725.00      3135.85
  218.23        2961.50           1385        1743.00      7574.84
  218.26        2961.75           1388        3350.00     14584.42
  218.29        2962.00           1392        6391.00     27856.51
  218.31        2962.25           1395        9242.00     40308.33
  218.34        2962.50           1398       12216.00     53306.62
  218.37        2962.75           1402       16120.00     70384.00
  218.39        2963.00           1405       19141.00     83610.06
  218.42        2963.25           1408       22386.00     97827.76
  218.45        2963.50           1412       26020.00    113763.30
  218.48        2963.75           1415       29109.00    127320.10
  218.50        2964.00           1418       32207.00    140926.80
  218.53        2964.25           1422       36104.00    158057.60
  218.56        2964.50           1425       39211.00    171727.40
  218.59        2964.75           1428       42487.00    186152.20
  218.61        2965.00           1431       45522.00    199526.20
  218.64        2965.25           1435       49476.00    216964.90
  218.67        2965.50           1438       52524.00    230419.50
  218.69        2965.75           1441       55528.00    243689.80
  218.72        2966.00           1445       59449.00    261026.00
  218.75        2966.25           1448       61741.00    271167.50
  218.78        2966.50           1451       63814.00    280345.00
  218.80        2966.75           1455       65662.00    288530.50
  218.83        2967.00           1458       65791.00    289101.90
  218.86        2967.25           1461       65865.00    289429.80
  218.89        2967.50           1465       65853.00    289376.60
  218.91        2967.75           1468       64987.00    285540.20
  218.94        2968.00           1471       63769.00    280145.80
  218.97        2968.25           1475       61050.00    268109.40
  219.00        2968.50           1478       58183.00    255426.70
  219.02        2968.75           1481       55202.00    242249.20
  219.05        2969.00           1485       51094.00    224105.90
  219.08        2969.25           1488       47951.00    210237.00
  219.11        2969.50           1491       44746.00    196105.70
  219.13        2969.75           1495       40501.00    177406.10
  219.16        2970.00           1498       37261.00    163146.80
  219.19        2970.25           1501       34100.00    149246.20
  219.21        2970.50           1505       29994.00    131206.10
  219.24        2970.75           1508       26703.00    116759.90
  219.27        2971.00           1511       23401.00    102277.20
  219.30        2971.25           1515       19576.00     85515.34
  219.32        2971.50           1518       16563.00     72322.86
  219.35        2971.75           1521       13616.00     59428.80
  219.38        2972.00           1525        9704.00     42326.95
  219.41        2972.25           1528        6838.00     29808.22
  219.43        2972.50           1531        4325.00     18838.62
  219.46        2972.75           1535        1631.00      7086.41
  219.49        2973.00           1538         580.00      2503.66
  219.52        2973.25           1541         166.00       698.79
  219.54        2973.50           1545          58.00       227.99
  219.57        2973.75           1548          37.00       136.44
  219.60        2974.00           1551          35.00       127.72
  219.62        2974.25           1555          34.00       123.37
  219.65        2974.50           1558          31.00       110.29
  219.68        2974.75           1561          29.00       101.57
  219.71        2975.00           1565          21.00        66.70
  219.73        2975.25           1568          20.00        62.34
  219.76        2975.50           1571          27.00        92.85
  219.79        2975.75           1575          28.00        97.21
  219.81        2976.00           1578          22.00        71.06
  219.84        2976.25           1581          23.00        75.41
  219.87        2976.50           1585          18.00        53.62
  219.90        2976.75           1588          20.00        62.34
  219.92        2977.00           1591          26.00        88.49
  219.95        2977.25           1595          18.00        53.62
  219.98        2977.50           1598          25.00        84.13
  220.00        2977.75           1601          24.00        79.77
  220.03        2978.00           1605          28.00        97.21
  220.06        2978.25           1608          20.00        62.34
  220.09        2978.50           1611          20.00        62.34
  220.11        2978.75           1615          21.00        66.70
  220.14        2979.00           1618          21.00        66.70
  220.17        2979.25           1621          20.00        62.34
  220.19        2979.50           1625          19.00        57.98
  220.22        2979.75           1628          25.00        84.13
  220.25        2980.00           1631          20.00        62.34
  220.28        2980.25           1635          21.00        66.70
  220.30        2980.50           1638          21.00        66.70
  220.33        2980.75           1641          22.00        71.06
  220.36        2981.00           1645          21.00        66.70
  220.38        2981.25           1648          23.00        75.41
  220.41        2981.50           1651          20.00        62.34
  220.44        2981.75           1655          27.00        92.85
  220.47        2982.00           1658          24.00        79.77
  220.49        2982.25           1661          23.00        75.41
  220.52        2982.50           1665          18.00        53.62
  220.55        2982.75           1668          20.00        62.34
  220.57        2983.00           1671          20.00        62.34
  220.60        2983.25           1675          18.00        53.62
  220.63        2983.50           1678          21.00        66.70
  220.66        2983.75           1681          19.00        57.98
  220.68        2984.00           1685          22.00        71.06
HS scan finished at 03:40:52
end
