************************************************************
  HS Scan of (1) Internal mercury lamp
************************************************************
Integration time is 0.2294 seconds per sample
dh140917Tamanrasset 22.79-5.529 3.271528pr865
************************************************************
Dead Time -------------------------  2.8E-08 
Number of Cycles Used -------------  4 
Starting Wavelength (Angstroms) ---  2950 
Final Wavelength (Angstoms) -------  2984 
Wavelength Increment (Angstroms) --  .25 
Filter Wheel #1 Position ---------- (1) Ground quartz diffuser (ND=2.32)
Filter Wheel #2 Position ---------- (1) Neutral Density 0.494



************************************************************
HS scan start time = 03:36:47
Dark Count =  5.3 


Time (GMT)  Wavelength (Ang)  Step Number  Raw Counts  Counts/Second

  217.15        2950.00           1233          18.00        55.36
  217.21        2950.25           1236          19.00        59.72
  217.24        2950.50           1239          20.00        64.08
  217.26        2950.75           1242          17.00        51.00
  217.29        2951.00           1246          22.00        72.80
  217.32        2951.25           1249          19.00        59.72
  217.35        2951.50           1252          13.00        33.57
  217.37        2951.75           1256          23.00        77.16
  217.40        2952.00           1259          20.00        64.08
  217.43        2952.25           1262          17.00        51.00
  217.45        2952.50           1266          18.00        55.36
  217.48        2952.75           1269          23.00        77.16
  217.51        2953.00           1272          17.00        51.00
  217.54        2953.25           1276          20.00        64.08
  217.56        2953.50           1279          20.00        64.08
  217.59        2953.75           1282          16.00        46.64
  217.62        2954.00           1286          19.00        59.72
  217.64        2954.25           1289          20.00        64.08
  217.67        2954.50           1292          15.00        42.28
  217.70        2954.75           1295          19.00        59.72
  217.73        2955.00           1299          20.00        64.08
  217.75        2955.25           1302          18.00        55.36
  217.78        2955.50           1305          21.00        68.44
  217.81        2955.75           1309          18.00        55.36
  217.83        2956.00           1312          23.00        77.16
  217.86        2956.25           1315          18.00        55.36
  217.89        2956.50           1319          24.00        81.52
  217.92        2956.75           1322          23.00        77.16
  217.94        2957.00           1325          18.00        55.36
  217.97        2957.25           1329          22.00        72.80
  218.00        2957.50           1332          21.00        68.44
  218.02        2957.75           1335          16.00        46.64
  218.05        2958.00           1339          19.00        59.72
  218.08        2958.25           1342          18.00        55.36
  218.11        2958.50           1345          21.00        68.44
  218.13        2958.75           1348          24.00        81.52
  218.16        2959.00           1352          16.00        46.64
  218.19        2959.25           1355          19.00        59.72
  218.21        2959.50           1358          26.00        90.24
  218.24        2959.75           1362          28.00        98.95
  218.27        2960.00           1365          21.00        68.44
  218.30        2960.25           1368          32.00       116.39
  218.32        2960.50           1372          39.00       146.91
  218.35        2960.75           1375          56.00       221.01
  218.38        2961.00           1378         180.00       761.57
  218.41        2961.25           1382         783.00      3390.47
  218.43        2961.50           1385        1827.00      7942.92
  218.46        2961.75           1388        3509.00     15279.86
  218.49        2962.00           1392        6867.00     29936.59
  218.51        2962.25           1395        9596.00     41856.79
  218.54        2962.50           1398       12583.00     54913.06
  218.57        2962.75           1402       16581.00     72403.40
  218.60        2963.00           1405       19493.00     85153.53
  218.62        2963.25           1408       22535.00     98482.62
  218.65        2963.50           1412       26440.00    115607.70
  218.68        2963.75           1415       29352.00    128388.80
  218.71        2964.00           1418       32533.00    142361.00
  218.73        2964.25           1422       36732.00    160821.50
  218.76        2964.50           1425       39938.00    174929.30
  218.79        2964.75           1428       42950.00    188193.50
  218.82        2965.00           1431       45709.00    200352.30
  218.84        2965.25           1435       49966.00    219129.00
  218.87        2965.50           1438       53077.00    232863.40
  218.90        2965.75           1441       56081.00    246135.60
  218.92        2966.00           1445       60324.00    264898.70
  218.95        2966.25           1448       62653.00    275206.20
  218.98        2966.50           1451       64564.00    283668.40
  219.01        2966.75           1455       66296.00    291341.30
  219.03        2967.00           1458       66814.00    293636.70
  219.06        2967.25           1461       67147.00    295112.50
  219.09        2967.50           1465       66338.00    291527.40
  219.12        2967.75           1468       65448.00    287584.10
  219.14        2968.00           1471       64325.00    282609.80
  219.17        2968.25           1475       61319.00    269301.60
  219.20        2968.50           1478       58653.00    257507.00
  219.22        2968.75           1481       55232.00    242383.60
  219.25        2969.00           1485       51108.00    224169.50
  219.28        2969.25           1488       47876.00    209908.00
  219.31        2969.50           1491       44230.00    193833.40
  219.33        2969.75           1495       39879.00    174669.50
  219.36        2970.00           1498       36716.00    160751.10
  219.39        2970.25           1501       33550.00    146830.40
  219.42        2970.50           1505       29497.00    129025.40
  219.44        2970.75           1508       26302.00    115002.20
  219.47        2971.00           1511       23287.00    101779.20
  219.50        2971.25           1515       19130.00     83563.65
  219.53        2971.50           1518       16043.00     70048.77
  219.55        2971.75           1521       12910.00     56342.96
  219.58        2972.00           1525        8836.00     38536.33
  219.61        2972.25           1528        6052.00     26378.24
  219.63        2972.50           1531        3450.00     15022.45
  219.66        2972.75           1535        1189.00      5160.73
  219.69        2973.00           1538         374.00      1607.31
  219.72        2973.25           1541         111.00       460.77
  219.74        2973.50           1545          41.00       155.62
  219.77        2973.75           1548          41.00       155.62
  219.80        2974.00           1551          33.00       120.75
  219.83        2974.25           1555          26.00        90.24
  219.85        2974.50           1558          29.00       103.31
  219.88        2974.75           1561          32.00       116.39
  219.91        2975.00           1565          24.00        81.52
  219.93        2975.25           1568          22.00        72.80
  219.96        2975.50           1571          25.00        85.88
  219.99        2975.75           1575          27.00        94.59
  220.02        2976.00           1578          21.00        68.44
  220.04        2976.25           1581          20.00        64.08
  220.07        2976.50           1585          25.00        85.88
  220.10        2976.75           1588          23.00        77.16
  220.12        2977.00           1591          24.00        81.52
  220.15        2977.25           1595          21.00        68.44
  220.18        2977.50           1598          20.00        64.08
  220.21        2977.75           1601          27.00        94.59
  220.23        2978.00           1605          22.00        72.80
  220.26        2978.25           1608          21.00        68.44
  220.29        2978.50           1611          21.00        68.44
  220.31        2978.75           1615          19.00        59.72
  220.34        2979.00           1618          24.00        81.52
  220.37        2979.25           1621          22.00        72.80
  220.40        2979.50           1625          24.00        81.52
  220.42        2979.75           1628          16.00        46.64
  220.45        2980.00           1631          21.00        68.44
  220.48        2980.25           1635          26.00        90.24
  220.50        2980.50           1638          18.00        55.36
  220.53        2980.75           1641          20.00        64.08
  220.56        2981.00           1645          22.00        72.80
  220.59        2981.25           1648          21.00        68.44
  220.61        2981.50           1651          18.00        55.36
  220.64        2981.75           1655          23.00        77.16
  220.67        2982.00           1658          20.00        64.08
  220.70        2982.25           1661          25.00        85.88
  220.72        2982.50           1665          18.00        55.36
  220.75        2982.75           1668          20.00        64.08
  220.78        2983.00           1671          23.00        77.16
  220.81        2983.25           1675          24.00        81.52
  220.83        2983.50           1678          21.00        68.44
  220.86        2983.75           1681          20.00        64.08
  220.89        2984.00           1685          15.00        42.28
HS scan finished at 03:41:05
end
