************************************************************
  HS Scan of (1) Internal mercury lamp
************************************************************
Integration time is 0.2294 seconds per sample
dh070917Tamanrasset 22.79-5.529 3.087988pr865
************************************************************
Dead Time -------------------------  2.8E-08 
Number of Cycles Used -------------  4 
Starting Wavelength (Angstroms) ---  2950 
Final Wavelength (Angstoms) -------  2984 
Wavelength Increment (Angstroms) --  .25 
Filter Wheel #1 Position ---------- (1) Ground quartz diffuser (ND=2.32)
Filter Wheel #2 Position ---------- (1) Neutral Density 0.494



************************************************************
HS scan start time = 03:34:47
Dark Count =  4.1 


Time (GMT)  Wavelength (Ang)  Step Number  Raw Counts  Counts/Second

  215.14        2950.00           1233          22.00        78.03
  215.20        2950.25           1236          19.00        64.95
  215.23        2950.50           1239          16.00        51.87
  215.26        2950.75           1242          20.00        69.31
  215.28        2951.00           1246          21.00        73.67
  215.31        2951.25           1249          16.00        51.87
  215.34        2951.50           1252          20.00        69.31
  215.36        2951.75           1256          20.00        69.31
  215.39        2952.00           1259          21.00        73.67
  215.42        2952.25           1262          15.00        47.52
  215.45        2952.50           1266          20.00        69.31
  215.47        2952.75           1269          20.00        69.31
  215.50        2953.00           1272          18.00        60.59
  215.53        2953.25           1276          20.00        69.31
  215.56        2953.50           1279          17.00        56.23
  215.58        2953.75           1282          19.00        64.95
  215.61        2954.00           1286          19.00        64.95
  215.64        2954.25           1289          18.00        60.59
  215.66        2954.50           1292          16.00        51.87
  215.69        2954.75           1295          18.00        60.59
  215.72        2955.00           1299          24.00        86.75
  215.74        2955.25           1302          22.00        78.03
  215.77        2955.50           1305          21.00        73.67
  215.80        2955.75           1309          16.00        51.87
  215.83        2956.00           1312          17.00        56.23
  215.85        2956.25           1315          20.00        69.31
  215.88        2956.50           1319          20.00        69.31
  215.91        2956.75           1322          14.00        43.16
  215.94        2957.00           1325          24.00        86.75
  215.96        2957.25           1329          23.00        82.39
  215.99        2957.50           1332          16.00        51.87
  216.02        2957.75           1335          23.00        82.39
  216.04        2958.00           1339          19.00        64.95
  216.07        2958.25           1342          18.00        60.59
  216.10        2958.50           1345          19.00        64.95
  216.13        2958.75           1348          22.00        78.03
  216.15        2959.00           1352          21.00        73.67
  216.18        2959.25           1355          23.00        82.39
  216.21        2959.50           1358          21.00        73.67
  216.23        2959.75           1362          22.00        78.03
  216.26        2960.00           1365          22.00        78.03
  216.29        2960.25           1368          33.00       125.98
  216.32        2960.50           1372          32.00       121.62
  216.34        2960.75           1375          45.00       178.29
  216.37        2961.00           1378         106.00       444.21
  216.40        2961.25           1382         498.00      2153.14
  216.42        2961.50           1385        1270.00      5519.16
  216.45        2961.75           1388        2678.00     11659.87
  216.48        2962.00           1392        5578.00     24314.28
  216.51        2962.25           1395        8137.00     35488.17
  216.53        2962.50           1398       10777.00     47023.08
  216.56        2962.75           1402       14421.00     62957.01
  216.59        2963.00           1405       17350.00     75774.81
  216.62        2963.25           1408       20167.00     88111.19
  216.64        2963.50           1412       23753.00    103827.60
  216.67        2963.75           1415       26618.00    116394.00
  216.70        2964.00           1418       29337.00    128328.20
  216.72        2964.25           1422       33333.00    145881.90
  216.75        2964.50           1425       36103.00    158060.20
  216.78        2964.75           1428       38719.00    169569.10
  216.81        2965.00           1431       41525.00    181922.10
  216.83        2965.25           1435       45538.00    199603.70
  216.86        2965.50           1438       48487.00    212608.50
  216.89        2965.75           1441       51413.00    225521.20
  216.92        2966.00           1445       54937.00    241085.30
  216.94        2966.25           1448       57364.00    251812.40
  216.97        2966.50           1451       59465.00    261103.80
  217.00        2966.75           1455       60791.00    266970.30
  217.03        2967.00           1458       61395.00    269643.30
  217.05        2967.25           1461       61594.00    270524.00
  217.08        2967.50           1465       61325.00    269333.40
  217.11        2967.75           1468       60776.00    266904.00
  217.13        2968.00           1471       59717.00    262218.50
  217.16        2968.25           1475       57278.00    251432.20
  217.19        2968.50           1478       54693.00    240007.20
  217.22        2968.75           1481       52053.00    228346.80
  217.24        2969.00           1485       48037.00    210623.40
  217.27        2969.25           1488       44947.00    196998.60
  217.30        2969.50           1491       41951.00    183798.30
  217.33        2969.75           1495       38019.00    166488.80
  217.35        2970.00           1498       35081.00    153566.00
  217.38        2970.25           1501       32399.00    141777.50
  217.41        2970.50           1505       28400.00    124214.60
  217.43        2970.75           1508       25496.00    111471.60
  217.46        2971.00           1511       22540.00     98509.80
  217.49        2971.25           1515       18766.00     81974.78
  217.52        2971.50           1518       16008.00     69900.85
  217.54        2971.75           1521       13143.00     57367.14
  217.57        2972.00           1525        9306.00     40594.94
  217.60        2972.25           1528        6642.00     28959.39
  217.63        2972.50           1531        4117.00     17937.95
  217.65        2972.75           1535        1702.00      7403.02
  217.68        2973.00           1538         692.00      2998.94
  217.71        2973.25           1541         202.00       862.71
  217.74        2973.50           1545          50.00       200.09
  217.76        2973.75           1548          41.00       160.86
  217.79        2974.00           1551          33.00       125.98
  217.82        2974.25           1555          27.00        99.83
  217.84        2974.50           1558          25.00        91.11
  217.87        2974.75           1561          26.00        95.47
  217.90        2975.00           1565          24.00        86.75
  217.93        2975.25           1568          22.00        78.03
  217.95        2975.50           1571          23.00        82.39
  217.98        2975.75           1575          23.00        82.39
  218.01        2976.00           1578          23.00        82.39
  218.03        2976.25           1581          22.00        78.03
  218.06        2976.50           1585          22.00        78.03
  218.09        2976.75           1588          22.00        78.03
  218.12        2977.00           1591          19.00        64.95
  218.14        2977.25           1595          21.00        73.67
  218.17        2977.50           1598          23.00        82.39
  218.20        2977.75           1601          24.00        86.75
  218.22        2978.00           1605          15.00        47.52
  218.25        2978.25           1608          23.00        82.39
  218.28        2978.50           1611          20.00        69.31
  218.31        2978.75           1615          20.00        69.31
  218.33        2979.00           1618          21.00        73.67
  218.36        2979.25           1621          18.00        60.59
  218.39        2979.50           1625          22.00        78.03
  218.41        2979.75           1628          21.00        73.67
  218.44        2980.00           1631          23.00        82.39
  218.47        2980.25           1635          25.00        91.11
  218.50        2980.50           1638          21.00        73.67
  218.52        2980.75           1641          21.00        73.67
  218.55        2981.00           1645          19.00        64.95
  218.58        2981.25           1648          24.00        86.75
  218.60        2981.50           1651          20.00        69.31
  218.63        2981.75           1655          16.00        51.87
  218.66        2982.00           1658          19.00        64.95
  218.69        2982.25           1661          21.00        73.67
  218.71        2982.50           1665          19.00        64.95
  218.74        2982.75           1668          19.00        64.95
  218.77        2983.00           1671          21.00        73.67
  218.79        2983.25           1675          23.00        82.39
  218.82        2983.50           1678          22.00        78.03
  218.85        2983.75           1681          20.00        69.31
  218.88        2984.00           1685          24.00        86.75
HS scan finished at 03:39:04
end
