************************************************************
  HS Scan of (1) Internal mercury lamp
************************************************************
Integration time is 0.2294 seconds per sample
dh240917Tamanrasset 22.79-5.529 3.123676pr865
************************************************************
Dead Time -------------------------  2.8E-08 
Number of Cycles Used -------------  4 
Starting Wavelength (Angstroms) ---  2950 
Final Wavelength (Angstoms) -------  2984 
Wavelength Increment (Angstroms) --  .25 
Filter Wheel #1 Position ---------- (1) Ground quartz diffuser (ND=2.32)
Filter Wheel #2 Position ---------- (1) Neutral Density 0.494



************************************************************
HS scan start time = 03:39:49
Dark Count =  4.2 


Time (GMT)  Wavelength (Ang)  Step Number  Raw Counts  Counts/Second

  220.18        2950.00           1233          21.00        73.23
  220.24        2950.25           1236          16.00        51.44
  220.27        2950.50           1239          21.00        73.23
  220.29        2950.75           1242          20.00        68.88
  220.32        2951.00           1246          16.00        51.44
  220.35        2951.25           1249          19.00        64.52
  220.38        2951.50           1252          16.00        51.44
  220.40        2951.75           1256          18.00        60.16
  220.43        2952.00           1259          18.00        60.16
  220.46        2952.25           1262          19.00        64.52
  220.48        2952.50           1266          20.00        68.88
  220.51        2952.75           1269          17.00        55.80
  220.54        2953.00           1272          16.00        51.44
  220.57        2953.25           1276          19.00        64.52
  220.59        2953.50           1279          20.00        68.88
  220.62        2953.75           1282          19.00        64.52
  220.65        2954.00           1286          20.00        68.88
  220.68        2954.25           1289          20.00        68.88
  220.70        2954.50           1292          19.00        64.52
  220.73        2954.75           1295          13.00        38.36
  220.76        2955.00           1299          16.00        51.44
  220.78        2955.25           1302          18.00        60.16
  220.81        2955.50           1305          22.00        77.59
  220.84        2955.75           1309          22.00        77.59
  220.87        2956.00           1312          18.00        60.16
  220.89        2956.25           1315          18.00        60.16
  220.92        2956.50           1319          19.00        64.52
  220.95        2956.75           1322          24.00        86.31
  220.97        2957.00           1325          21.00        73.23
  221.00        2957.25           1329          17.00        55.80
  221.03        2957.50           1332          18.00        60.16
  221.06        2957.75           1335          22.00        77.59
  221.08        2958.00           1339          19.00        64.52
  221.11        2958.25           1342          18.00        60.16
  221.14        2958.50           1345          14.00        42.72
  221.17        2958.75           1348          22.00        77.59
  221.19        2959.00           1352          22.00        77.59
  221.22        2959.25           1355          19.00        64.52
  221.25        2959.50           1358          20.00        68.88
  221.28        2959.75           1362          27.00        99.39
  221.30        2960.00           1365          29.00       108.11
  221.33        2960.25           1368          23.00        81.95
  221.36        2960.50           1372          32.00       121.19
  221.38        2960.75           1375          43.00       169.14
  221.41        2961.00           1378         146.00       618.14
  221.44        2961.25           1382         702.00      3042.11
  221.47        2961.50           1385        1654.00      7193.25
  221.49        2961.75           1388        3125.00     13609.37
  221.52        2962.00           1392        6201.00     27033.53
  221.55        2962.25           1395        8964.00     39100.33
  221.58        2962.50           1398       11657.00     50869.27
  221.60        2962.75           1402       15337.00     66964.15
  221.63        2963.00           1405       17989.00     78571.97
  221.66        2963.25           1408       20997.00     91747.16
  221.69        2963.50           1412       24659.00    107800.10
  221.71        2963.75           1415       27615.00    120768.60
  221.74        2964.00           1418       30354.00    132793.60
  221.77        2964.25           1422       34166.00    149542.90
  221.80        2964.50           1425       36857.00    161376.20
  221.82        2964.75           1428       40110.00    175691.30
  221.85        2965.00           1431       42874.00    187863.60
  221.88        2965.25           1435       46815.00    205233.60
  221.91        2965.50           1438       49548.00    217289.20
  221.93        2965.75           1441       52403.00    229891.80
  221.96        2966.00           1445       56289.00    247059.80
  221.99        2966.25           1448       58256.00    255756.10
  222.02        2966.50           1451       60587.00    266067.30
  222.04        2966.75           1455       61896.00    271860.20
  222.07        2967.00           1458       62199.00    273201.40
  222.10        2967.25           1461       62559.00    274795.00
  222.13        2967.50           1465       62209.00    273245.60
  222.15        2967.75           1468       61905.00    271900.00
  222.18        2968.00           1471       60519.00    265766.40
  222.21        2968.25           1475       58106.00    255092.80
  222.24        2968.50           1478       55441.00    243312.00
  222.26        2968.75           1481       52676.00    231097.40
  222.29        2969.00           1485       48778.00    213891.80
  222.32        2969.25           1488       45642.00    200061.80
  222.35        2969.50           1491       42473.00    186097.10
  222.37        2969.75           1495       38610.00    169089.00
  222.40        2970.00           1498       35842.00    156912.00
  222.43        2970.25           1501       32685.00    143033.80
  222.46        2970.50           1505       28575.00    124982.40
  222.48        2970.75           1508       25634.00    112076.50
  222.51        2971.00           1511       22801.00     99653.44
  222.54        2971.25           1515       18799.00     82118.86
  222.57        2971.50           1518       15952.00     69655.34
  222.59        2971.75           1521       13329.00     58180.15
  222.62        2972.00           1525        9632.00     42018.89
  222.65        2972.25           1528        6789.00     29600.81
  222.68        2972.50           1531        4276.00     18631.34
  222.70        2972.75           1535        1842.00      8013.13
  222.73        2973.00           1538         765.00      3316.79
  222.76        2973.25           1541         246.00      1054.09
  222.79        2973.50           1545          49.00       195.29
  222.81        2973.75           1548          39.00       151.70
  222.84        2974.00           1551          37.00       142.98
  222.87        2974.25           1555          32.00       121.19
  222.89        2974.50           1558          32.00       121.19
  222.92        2974.75           1561          20.00        68.88
  222.95        2975.00           1565          20.00        68.88
  222.98        2975.25           1568          21.00        73.23
  223.00        2975.50           1571          21.00        73.23
  223.03        2975.75           1575          20.00        68.88
  223.06        2976.00           1578          19.00        64.52
  223.08        2976.25           1581          21.00        73.23
  223.11        2976.50           1585          23.00        81.95
  223.14        2976.75           1588          21.00        73.23
  223.17        2977.00           1591          20.00        68.88
  223.19        2977.25           1595          18.00        60.16
  223.22        2977.50           1598          20.00        68.88
  223.25        2977.75           1601          21.00        73.23
  223.28        2978.00           1605          21.00        73.23
  223.30        2978.25           1608          24.00        86.31
  223.33        2978.50           1611          23.00        81.95
  223.36        2978.75           1615          21.00        73.23
  223.39        2979.00           1618          22.00        77.59
  223.41        2979.25           1621          24.00        86.31
  223.44        2979.50           1625          27.00        99.39
  223.47        2979.75           1628          21.00        73.23
  223.49        2980.00           1631          21.00        73.23
  223.52        2980.25           1635          22.00        77.59
  223.55        2980.50           1638          18.00        60.16
  223.58        2980.75           1641          20.00        68.88
  223.60        2981.00           1645          18.00        60.16
  223.63        2981.25           1648          23.00        81.95
  223.66        2981.50           1651          24.00        86.31
  223.69        2981.75           1655          19.00        64.52
  223.71        2982.00           1658          17.00        55.80
  223.74        2982.25           1661          24.00        86.31
  223.77        2982.50           1665          21.00        73.23
  223.80        2982.75           1668          19.00        64.52
  223.82        2983.00           1671          19.00        64.52
  223.85        2983.25           1675          21.00        73.23
  223.88        2983.50           1678          20.00        68.88
  223.91        2983.75           1681          20.00        68.88
  223.93        2984.00           1685          19.00        64.52
HS scan finished at 03:44:07
end
