************************************************************
  HS Scan of (1) Internal mercury lamp
************************************************************
Integration time is 0.2294 seconds per sample
dh190917Tamanrasset 22.79-5.529 3.11348pr865
************************************************************
Dead Time -------------------------  2.8E-08 
Number of Cycles Used -------------  4 
Starting Wavelength (Angstroms) ---  2950 
Final Wavelength (Angstoms) -------  2984 
Wavelength Increment (Angstroms) --  .25 
Filter Wheel #1 Position ---------- (1) Ground quartz diffuser (ND=2.32)
Filter Wheel #2 Position ---------- (1) Neutral Density 0.494



************************************************************
HS scan start time = 03:38:47
Dark Count =  3.7 


Time (GMT)  Wavelength (Ang)  Step Number  Raw Counts  Counts/Second

  219.15        2950.00           1233          17.00        57.98
  219.21        2950.25           1236          20.00        71.06
  219.24        2950.50           1239          22.00        79.77
  219.26        2950.75           1242          14.00        44.90
  219.29        2951.00           1246          20.00        71.06
  219.32        2951.25           1249          22.00        79.77
  219.35        2951.50           1252          15.00        49.26
  219.37        2951.75           1256          19.00        66.70
  219.40        2952.00           1259          20.00        71.06
  219.43        2952.25           1262          20.00        71.06
  219.45        2952.50           1266          19.00        66.70
  219.48        2952.75           1269          20.00        71.06
  219.51        2953.00           1272          19.00        66.70
  219.54        2953.25           1276          19.00        66.70
  219.56        2953.50           1279          21.00        75.41
  219.59        2953.75           1282          23.00        84.13
  219.62        2954.00           1286          22.00        79.77
  219.64        2954.25           1289          17.00        57.98
  219.67        2954.50           1292          18.00        62.34
  219.70        2954.75           1295          16.00        53.62
  219.73        2955.00           1299          20.00        71.06
  219.75        2955.25           1302          20.00        71.06
  219.78        2955.50           1305          16.00        53.62
  219.81        2955.75           1309          21.00        75.41
  219.83        2956.00           1312          21.00        75.41
  219.86        2956.25           1315          20.00        71.06
  219.89        2956.50           1319          18.00        62.34
  219.92        2956.75           1322          19.00        66.70
  219.94        2957.00           1325          18.00        62.34
  219.97        2957.25           1329          13.00        40.54
  220.00        2957.50           1332          21.00        75.41
  220.02        2957.75           1335          18.00        62.34
  220.05        2958.00           1339          19.00        66.70
  220.08        2958.25           1342          22.00        79.77
  220.11        2958.50           1345          18.00        62.34
  220.13        2958.75           1348          21.00        75.41
  220.16        2959.00           1352          22.00        79.77
  220.19        2959.25           1355          18.00        62.34
  220.21        2959.50           1358          23.00        84.13
  220.24        2959.75           1362          24.00        88.49
  220.27        2960.00           1365          28.00       105.93
  220.30        2960.25           1368          26.00        97.21
  220.32        2960.50           1372          40.00       158.24
  220.35        2960.75           1375          47.00       188.75
  220.38        2961.00           1378         147.00       624.68
  220.40        2961.25           1382         710.00      3079.17
  220.43        2961.50           1385        1589.00      6911.97
  220.46        2961.75           1388        3067.00     13358.53
  220.49        2962.00           1392        5919.00     25804.60
  220.51        2962.25           1395        8641.00     37691.46
  220.54        2962.50           1398       11447.00     49953.43
  220.57        2962.75           1402       15179.00     66275.01
  220.59        2963.00           1405       18317.00     80010.35
  220.62        2963.25           1408       20842.00     91070.21
  220.65        2963.50           1412       25017.00    109372.40
  220.68        2963.75           1415       27637.00    120867.40
  220.70        2964.00           1418       30483.00    133362.40
  220.73        2964.25           1422       34354.00    150371.60
  220.76        2964.50           1425       37060.00    162271.40
  220.79        2964.75           1428       40001.00    175213.60
  220.81        2965.00           1431       42861.00    187808.50
  220.84        2965.25           1435       46914.00    205672.30
  220.87        2965.50           1438       50006.00    219312.60
  220.90        2965.75           1441       52801.00    231651.60
  220.92        2966.00           1445       56544.00    248189.20
  220.95        2966.25           1448       58633.00    257425.60
  220.98        2966.50           1451       60851.00    267237.60
  221.01        2966.75           1455       62055.00    272566.20
  221.03        2967.00           1458       62586.00    274916.80
  221.06        2967.25           1461       63018.00    276829.30
  221.09        2967.50           1465       62627.00    275098.30
  221.11        2967.75           1468       61960.00    272145.70
  221.14        2968.00           1471       60844.00    267206.60
  221.17        2968.25           1475       58008.00    254661.70
  221.20        2968.50           1478       55683.00    244383.70
  221.22        2968.75           1481       52990.00    232486.30
  221.25        2969.00           1485       48793.00    213960.20
  221.28        2969.25           1488       45733.00    200465.10
  221.31        2969.50           1491       42817.00    187614.70
  221.33        2969.75           1495       38574.00    168932.80
  221.36        2970.00           1498       35601.00    155854.40
  221.39        2970.25           1501       32649.00    142877.80
  221.42        2970.50           1505       28711.00    125581.60
  221.44        2970.75           1508       25668.00    112227.90
  221.47        2971.00           1511       22819.00     99734.53
  221.50        2971.25           1515       18950.00     82782.35
  221.52        2971.50           1518       16075.00     70195.81
  221.55        2971.75           1521       13162.00     57451.98
  221.58        2972.00           1525        9442.00     41190.90
  221.61        2972.25           1528        6458.00     28157.76
  221.63        2972.50           1531        4046.00     17629.89
  221.66        2972.75           1535        1604.00      6977.39
  221.69        2973.00           1538         583.00      2525.46
  221.72        2973.25           1541         162.00       690.07
  221.74        2973.50           1545          51.00       206.19
  221.77        2973.75           1548          37.00       145.16
  221.80        2974.00           1551          30.00       114.65
  221.82        2974.25           1555          35.00       136.44
  221.85        2974.50           1558          19.00        66.70
  221.88        2974.75           1561          23.00        84.13
  221.91        2975.00           1565          23.00        84.13
  221.93        2975.25           1568          23.00        84.13
  221.96        2975.50           1571          22.00        79.77
  221.99        2975.75           1575          23.00        84.13
  222.01        2976.00           1578          23.00        84.13
  222.04        2976.25           1581          23.00        84.13
  222.07        2976.50           1585          27.00       101.57
  222.10        2976.75           1588          21.00        75.41
  222.12        2977.00           1591          24.00        88.49
  222.15        2977.25           1595          18.00        62.34
  222.18        2977.50           1598          17.00        57.98
  222.21        2977.75           1601          23.00        84.13
  222.23        2978.00           1605          23.00        84.13
  222.26        2978.25           1608          19.00        66.70
  222.29        2978.50           1611          23.00        84.13
  222.31        2978.75           1615          20.00        71.06
  222.34        2979.00           1618          21.00        75.41
  222.37        2979.25           1621          18.00        62.34
  222.40        2979.50           1625          18.00        62.34
  222.42        2979.75           1628          19.00        66.70
  222.45        2980.00           1631          23.00        84.13
  222.48        2980.25           1635          21.00        75.41
  222.50        2980.50           1638          23.00        84.13
  222.53        2980.75           1641          23.00        84.13
  222.56        2981.00           1645          21.00        75.41
  222.59        2981.25           1648          18.00        62.34
  222.61        2981.50           1651          21.00        75.41
  222.64        2981.75           1655          18.00        62.34
  222.67        2982.00           1658          22.00        79.77
  222.69        2982.25           1661          20.00        71.06
  222.72        2982.50           1665          21.00        75.41
  222.75        2982.75           1668          20.00        71.06
  222.77        2983.00           1671          20.00        71.06
  222.80        2983.25           1675          23.00        84.13
  222.83        2983.50           1678          19.00        66.70
  222.86        2983.75           1681          18.00        62.34
  222.88        2984.00           1685          21.00        75.41
HS scan finished at 03:43:04
end
