************************************************************
  HS Scan of (1) Internal mercury lamp
************************************************************
Integration time is 0.2294 seconds per sample
dh170917Tamanrasset 22.79-5.529 3.383691pr865
************************************************************
Dead Time -------------------------  2.8E-08 
Number of Cycles Used -------------  4 
Starting Wavelength (Angstroms) ---  2950 
Final Wavelength (Angstoms) -------  2984 
Wavelength Increment (Angstroms) --  .25 
Filter Wheel #1 Position ---------- (1) Ground quartz diffuser (ND=2.32)
Filter Wheel #2 Position ---------- (1) Neutral Density 0.494



************************************************************
HS scan start time = 03:37:46
Dark Count =  6.6 


Time (GMT)  Wavelength (Ang)  Step Number  Raw Counts  Counts/Second

  218.12        2950.00           1233          21.00        62.77
  218.18        2950.25           1236          19.00        54.05
  218.21        2950.50           1239          21.00        62.77
  218.23        2950.75           1242          20.00        58.41
  218.26        2951.00           1246          21.00        62.77
  218.29        2951.25           1249          22.00        67.13
  218.32        2951.50           1252          23.00        71.49
  218.34        2951.75           1256          20.00        58.41
  218.37        2952.00           1259          22.00        67.13
  218.40        2952.25           1262          19.00        54.05
  218.42        2952.50           1266          23.00        71.49
  218.45        2952.75           1269          21.00        62.77
  218.48        2953.00           1272          21.00        62.77
  218.51        2953.25           1276          18.00        49.69
  218.53        2953.50           1279          19.00        54.05
  218.56        2953.75           1282          24.00        75.85
  218.59        2954.00           1286          20.00        58.41
  218.61        2954.25           1289          20.00        58.41
  218.64        2954.50           1292          19.00        54.05
  218.67        2954.75           1295          20.00        58.41
  218.70        2955.00           1299          18.00        49.69
  218.72        2955.25           1302          20.00        58.41
  218.75        2955.50           1305          16.00        40.98
  218.78        2955.75           1309          17.00        45.34
  218.80        2956.00           1312          18.00        49.69
  218.83        2956.25           1315          18.00        49.69
  218.86        2956.50           1319          20.00        58.41
  218.89        2956.75           1322          21.00        62.77
  218.91        2957.00           1325          23.00        71.49
  218.94        2957.25           1329          17.00        45.34
  218.97        2957.50           1332          16.00        40.98
  218.99        2957.75           1335          20.00        58.41
  219.02        2958.00           1339          20.00        58.41
  219.05        2958.25           1342          22.00        67.13
  219.08        2958.50           1345          21.00        62.77
  219.10        2958.75           1348          20.00        58.41
  219.13        2959.00           1352          23.00        71.49
  219.16        2959.25           1355          18.00        49.69
  219.18        2959.50           1358          20.00        58.41
  219.21        2959.75           1362          22.00        67.13
  219.24        2960.00           1365          25.00        80.21
  219.27        2960.25           1368          31.00       106.36
  219.29        2960.50           1372          36.00       128.16
  219.32        2960.75           1375          60.00       232.78
  219.35        2961.00           1378         197.00       830.01
  219.38        2961.25           1382         870.00      3764.13
  219.40        2961.50           1385        1925.00      8364.64
  219.43        2961.75           1388        3794.00     16517.66
  219.46        2962.00           1392        7345.00     32018.23
  219.48        2962.25           1395       10276.00     44822.57
  219.51        2962.50           1398       13286.00     57981.60
  219.54        2962.75           1402       17290.00     75501.21
  219.57        2963.00           1405       20339.00     88853.74
  219.59        2963.25           1408       23605.00    103167.70
  219.62        2963.50           1412       27225.00    119046.60
  219.65        2963.75           1415       30594.00    133837.10
  219.68        2964.00           1418       33938.00    148530.10
  219.70        2964.25           1422       37889.00    165905.80
  219.73        2964.50           1425       41349.00    181136.10
  219.76        2964.75           1428       44476.00    194911.70
  219.79        2965.00           1431       47489.00    208195.30
  219.81        2965.25           1435       52128.00    228666.90
  219.84        2965.50           1438       55278.00    242581.10
  219.87        2965.75           1441       58556.00    257072.20
  219.89        2966.00           1445       62105.00    272774.70
  219.92        2966.25           1448       64522.00    283476.50
  219.95        2966.50           1451       66337.00    291517.20
  219.98        2966.75           1455       67671.00    297429.20
  220.00        2967.00           1458       68163.00    299610.20
  220.03        2967.25           1461       68028.00    299011.70
  220.06        2967.50           1465       67635.00    297269.70
  220.09        2967.75           1468       67010.00    294499.50
  220.11        2968.00           1471       65103.00    286050.10
  220.14        2968.25           1475       61907.00    271898.20
  220.17        2968.50           1478       59092.00    259442.80
  220.19        2968.75           1481       55850.00    245108.90
  220.22        2969.00           1485       51478.00    225797.10
  220.25        2969.25           1488       48304.00    211790.20
  220.28        2969.50           1491       44723.00    196000.40
  220.30        2969.75           1495       40704.00    178295.90
  220.33        2970.00           1498       37429.00    163881.90
  220.36        2970.25           1501       34287.00    150064.30
  220.39        2970.50           1505       29939.00    130960.60
  220.41        2970.75           1508       26742.00    116927.10
  220.44        2971.00           1511       23509.00    102746.80
  220.47        2971.25           1515       19307.00     84333.18
  220.50        2971.50           1518       16316.00     71237.86
  220.52        2971.75           1521       13112.00     57220.64
  220.55        2972.00           1525        9273.00     40439.84
  220.58        2972.25           1528        6272.00     27333.03
  220.61        2972.50           1531        3682.00     16028.99
  220.63        2972.75           1535        1369.00      5939.96
  220.66        2973.00           1538         462.00      1985.29
  220.69        2973.25           1541         137.00       568.45
  220.71        2973.50           1545          52.00       197.91
  220.74        2973.75           1548          41.00       149.96
  220.77        2974.00           1551          35.00       123.80
  220.80        2974.25           1555          34.00       119.44
  220.82        2974.50           1558          31.00       106.36
  220.85        2974.75           1561          19.00        54.05
  220.88        2975.00           1565          23.00        71.49
  220.90        2975.25           1568          18.00        49.69
  220.93        2975.50           1571          26.00        84.57
  220.96        2975.75           1575          24.00        75.85
  220.99        2976.00           1578          25.00        80.21
  221.01        2976.25           1581          23.00        71.49
  221.04        2976.50           1585          21.00        62.77
  221.07        2976.75           1588          23.00        71.49
  221.09        2977.00           1591          23.00        71.49
  221.12        2977.25           1595          24.00        75.85
  221.15        2977.50           1598          25.00        80.21
  221.18        2977.75           1601          19.00        54.05
  221.20        2978.00           1605          17.00        45.34
  221.23        2978.25           1608          23.00        71.49
  221.26        2978.50           1611          21.00        62.77
  221.28        2978.75           1615          20.00        58.41
  221.31        2979.00           1618          20.00        58.41
  221.34        2979.25           1621          20.00        58.41
  221.37        2979.50           1625          26.00        84.57
  221.39        2979.75           1628          24.00        75.85
  221.42        2980.00           1631          22.00        67.13
  221.45        2980.25           1635          19.00        54.05
  221.47        2980.50           1638          16.00        40.98
  221.50        2980.75           1641          21.00        62.77
  221.53        2981.00           1645          21.00        62.77
  221.56        2981.25           1648          17.00        45.34
  221.58        2981.50           1651          23.00        71.49
  221.61        2981.75           1655          19.00        54.05
  221.64        2982.00           1658          19.00        54.05
  221.66        2982.25           1661          20.00        58.41
  221.69        2982.50           1665          15.00        36.62
  221.72        2982.75           1668          22.00        67.13
  221.75        2983.00           1671          19.00        54.05
  221.77        2983.25           1675          20.00        58.41
  221.80        2983.50           1678          21.00        62.77
  221.83        2983.75           1681          21.00        62.77
  221.85        2984.00           1685          19.00        54.05
HS scan finished at 03:42:03
end
