************************************************************
  HS Scan of (1) Internal mercury lamp
************************************************************
Integration time is 0.2294 seconds per sample
dh170918Tamanrasset 22.79-5.529 4.974364pr865
************************************************************
Dead Time -------------------------  2.8E-08 
Number of Cycles Used -------------  4 
Starting Wavelength (Angstroms) ---  2950 
Final Wavelength (Angstoms) -------  2984 
Wavelength Increment (Angstroms) --  .25 
Filter Wheel #1 Position ---------- (1) Ground quartz diffuser (ND=2.32)
Filter Wheel #2 Position ---------- (1) Neutral Density 0.494



************************************************************
HS scan start time = 03:37:40
Dark Count =  4.9 


Time (GMT)  Wavelength (Ang)  Step Number  Raw Counts  Counts/Second

  218.02        2950.00           1233          20.00        65.82
  218.09        2950.25           1236          21.00        70.18
  218.11        2950.50           1239          18.00        57.11
  218.14        2950.75           1242          23.00        78.90
  218.17        2951.00           1246          24.00        83.26
  218.20        2951.25           1249          15.00        44.03
  218.22        2951.50           1252          18.00        57.11
  218.25        2951.75           1256          20.00        65.82
  218.28        2952.00           1259          23.00        78.90
  218.31        2952.25           1262          20.00        65.82
  218.33        2952.50           1266          20.00        65.82
  218.36        2952.75           1269          18.00        57.11
  218.39        2953.00           1272          20.00        65.82
  218.41        2953.25           1276          21.00        70.18
  218.44        2953.50           1279          18.00        57.11
  218.47        2953.75           1282          23.00        78.90
  218.50        2954.00           1286          24.00        83.26
  218.52        2954.25           1289          20.00        65.82
  218.55        2954.50           1292          20.00        65.82
  218.58        2954.75           1295          21.00        70.18
  218.61        2955.00           1299          19.00        61.46
  218.63        2955.25           1302          16.00        48.39
  218.66        2955.50           1305          21.00        70.18
  218.69        2955.75           1309          21.00        70.18
  218.71        2956.00           1312          17.00        52.75
  218.74        2956.25           1315          21.00        70.18
  218.77        2956.50           1319          20.00        65.82
  218.80        2956.75           1322          19.00        61.46
  218.82        2957.00           1325          18.00        57.11
  218.85        2957.25           1329          20.00        65.82
  218.88        2957.50           1332          15.00        44.03
  218.91        2957.75           1335          18.00        57.11
  218.93        2958.00           1339          19.00        61.46
  218.96        2958.25           1342          19.00        61.46
  218.99        2958.50           1345          20.00        65.82
  219.01        2958.75           1348          23.00        78.90
  219.04        2959.00           1352          20.00        65.82
  219.07        2959.25           1355          20.00        65.82
  219.10        2959.50           1358          18.00        57.11
  219.12        2959.75           1362          27.00        96.34
  219.15        2960.00           1365          22.00        74.54
  219.18        2960.25           1368          33.00       122.49
  219.21        2960.50           1372          27.00        96.34
  219.23        2960.75           1375          39.00       148.65
  219.26        2961.00           1378          94.00       388.41
  219.29        2961.25           1382         461.00      1988.34
  219.32        2961.50           1385        1253.00      5441.54
  219.34        2961.75           1388        2619.00     11399.02
  219.37        2962.00           1392        5461.00     23800.08
  219.40        2962.25           1395        7964.00     34729.05
  219.43        2962.50           1398       11034.00     48142.88
  219.45        2962.75           1402       14687.00     64117.18
  219.48        2963.00           1405       17699.00     77299.21
  219.51        2963.25           1408       20582.00     89925.78
  219.53        2963.50           1412       24522.00    107196.20
  219.56        2963.75           1415       27287.00    119326.10
  219.59        2964.00           1418       30272.00    132430.40
  219.62        2964.25           1422       34450.00    150788.30
  219.65        2964.50           1425       37261.00    163150.30
  219.67        2964.75           1428       39925.00    174873.80
  219.70        2965.00           1431       43069.00    188719.60
  219.73        2965.25           1435       47155.00    206729.80
  219.76        2965.50           1438       50281.00    220520.90
  219.78        2965.75           1441       53480.00    234645.20
  219.81        2966.00           1445       57338.00    251693.90
  219.84        2966.25           1448       60083.00    263834.20
  219.86        2966.50           1451       61979.00    272224.50
  219.89        2966.75           1455       63950.00    280950.80
  219.92        2967.00           1458       64670.00    284139.60
  219.95        2967.25           1461       65021.00    285694.30
  219.97        2967.50           1465       64932.00    285300.10
  220.00        2967.75           1468       64302.00    282509.70
  220.03        2968.00           1471       63257.00    277882.20
  220.06        2968.25           1475       60979.00    267798.70
  220.08        2968.50           1478       58430.00    256522.50
  220.11        2968.75           1481       55762.00    244727.50
  220.14        2969.00           1485       51691.00    226745.00
  220.17        2969.25           1488       48391.00    212181.50
  220.19        2969.50           1491       45124.00    197775.30
  220.22        2969.75           1495       40931.00    179302.90
  220.25        2970.00           1498       37616.00    164712.10
  220.28        2970.25           1501       34425.00    150678.40
  220.30        2970.50           1505       30322.00    132650.00
  220.33        2970.75           1508       27291.00    119343.60
  220.36        2971.00           1511       24300.00    106222.60
  220.39        2971.25           1515       20345.00     88887.48
  220.41        2971.50           1518       17222.00     75210.97
  220.44        2971.75           1521       14348.00     62634.16
  220.47        2972.00           1525       10480.00     45721.53
  220.50        2972.25           1528        7570.00     33008.27
  220.52        2972.50           1531        4870.00     21220.54
  220.55        2972.75           1535        2017.00      8773.30
  220.58        2973.00           1538         750.00      3248.33
  220.61        2973.25           1541         212.00       902.81
  220.63        2973.50           1545          54.00       214.04
  220.66        2973.75           1548          48.00       187.88
  220.69        2974.00           1551          36.00       135.57
  220.71        2974.25           1555          27.00        96.34
  220.74        2974.50           1558          31.00       113.78
  220.77        2974.75           1561          24.00        83.26
  220.80        2975.00           1565          24.00        83.26
  220.82        2975.25           1568          27.00        96.34
  220.85        2975.50           1571          27.00        96.34
  220.88        2975.75           1575          26.00        91.98
  220.91        2976.00           1578          22.00        74.54
  220.93        2976.25           1581          21.00        70.18
  220.96        2976.50           1585          24.00        83.26
  220.99        2976.75           1588          22.00        74.54
  221.02        2977.00           1591          22.00        74.54
  221.04        2977.25           1595          20.00        65.82
  221.07        2977.50           1598          23.00        78.90
  221.10        2977.75           1601          23.00        78.90
  221.12        2978.00           1605          25.00        87.62
  221.15        2978.25           1608          22.00        74.54
  221.18        2978.50           1611          22.00        74.54
  221.21        2978.75           1615          21.00        70.18
  221.23        2979.00           1618          19.00        61.46
  221.26        2979.25           1621          21.00        70.18
  221.29        2979.50           1625          24.00        83.26
  221.32        2979.75           1628          20.00        65.82
  221.34        2980.00           1631          22.00        74.54
  221.37        2980.25           1635          24.00        83.26
  221.40        2980.50           1638          18.00        57.11
  221.42        2980.75           1641          21.00        70.18
  221.45        2981.00           1645          19.00        61.46
  221.48        2981.25           1648          16.00        48.39
  221.51        2981.50           1651          26.00        91.98
  221.53        2981.75           1655          18.00        57.11
  221.56        2982.00           1658          20.00        65.82
  221.59        2982.25           1661          26.00        91.98
  221.62        2982.50           1665          20.00        65.82
  221.64        2982.75           1668          17.00        52.75
  221.67        2983.00           1671          23.00        78.90
  221.70        2983.25           1675          23.00        78.90
  221.73        2983.50           1678          19.00        61.46
  221.75        2983.75           1681          19.00        61.46
  221.78        2984.00           1685          16.00        48.39
HS scan finished at 03:41:58
end
