************************************************************
  HS Scan of (1) Internal mercury lamp
************************************************************
Integration time is 0.2294 seconds per sample
dh250918Tamanrasset 22.79-5.529 4.974364pr865
************************************************************
Dead Time -------------------------  2.8E-08 
Number of Cycles Used -------------  4 
Starting Wavelength (Angstroms) ---  2950 
Final Wavelength (Angstoms) -------  2984 
Wavelength Increment (Angstroms) --  .25 
Filter Wheel #1 Position ---------- (1) Ground quartz diffuser (ND=2.32)
Filter Wheel #2 Position ---------- (1) Neutral Density 0.494



************************************************************
HS scan start time = 03:40:14
Dark Count =  5 


Time (GMT)  Wavelength (Ang)  Step Number  Raw Counts  Counts/Second

  220.60        2950.00           1233          22.00        74.11
  220.66        2950.25           1236          17.00        52.31
  220.69        2950.50           1239          18.00        56.67
  220.72        2950.75           1242          21.00        69.75
  220.74        2951.00           1246          21.00        69.75
  220.77        2951.25           1249          21.00        69.75
  220.80        2951.50           1252          16.00        47.95
  220.82        2951.75           1256          20.00        65.39
  220.85        2952.00           1259          16.00        47.95
  220.88        2952.25           1262          16.00        47.95
  220.91        2952.50           1266          23.00        78.47
  220.93        2952.75           1269          18.00        56.67
  220.96        2953.00           1272          21.00        69.75
  220.99        2953.25           1276          22.00        74.11
  221.02        2953.50           1279          22.00        74.11
  221.04        2953.75           1282          19.00        61.03
  221.07        2954.00           1286          18.00        56.67
  221.10        2954.25           1289          19.00        61.03
  221.12        2954.50           1292          20.00        65.39
  221.15        2954.75           1295          15.00        43.59
  221.18        2955.00           1299          16.00        47.95
  221.20        2955.25           1302          22.00        74.11
  221.23        2955.50           1305          22.00        74.11
  221.26        2955.75           1309          15.00        43.59
  221.29        2956.00           1312          17.00        52.31
  221.31        2956.25           1315          21.00        69.75
  221.34        2956.50           1319          18.00        56.67
  221.37        2956.75           1322          25.00        87.18
  221.39        2957.00           1325          21.00        69.75
  221.42        2957.25           1329          18.00        56.67
  221.45        2957.50           1332          18.00        56.67
  221.48        2957.75           1335          17.00        52.31
  221.50        2958.00           1339          17.00        52.31
  221.53        2958.25           1342          19.00        61.03
  221.56        2958.50           1345          22.00        74.11
  221.58        2958.75           1348          20.00        65.39
  221.61        2959.00           1352          21.00        69.75
  221.64        2959.25           1355          21.00        69.75
  221.67        2959.50           1358          22.00        74.11
  221.69        2959.75           1362          19.00        61.03
  221.72        2960.00           1365          25.00        87.18
  221.75        2960.25           1368          30.00       108.98
  221.78        2960.50           1372          32.00       117.70
  221.80        2960.75           1375          47.00       183.09
  221.83        2961.00           1378         136.00       571.06
  221.86        2961.25           1382         628.00      2715.99
  221.88        2961.50           1385        1481.00      6435.34
  221.91        2961.75           1388        3032.00     13200.17
  221.94        2962.00           1392        5936.00     25873.14
  221.97        2962.25           1395        8595.00     37484.83
  221.99        2962.50           1398       11426.00     49855.95
  222.02        2962.75           1402       14886.00     64987.37
  222.05        2963.00           1405       18059.00     78874.97
  222.08        2963.25           1408       20817.00     90954.98
  222.10        2963.50           1412       24419.00    106744.00
  222.13        2963.75           1415       27147.00    118711.30
  222.16        2964.00           1418       30169.00    131977.60
  222.18        2964.25           1422       33965.00    148655.80
  222.21        2964.50           1425       36592.00    160207.00
  222.24        2964.75           1428       39918.00    174842.50
  222.27        2965.00           1431       42696.00    187075.90
  222.29        2965.25           1435       46320.00    203047.40
  222.32        2965.50           1438       49305.00    216213.50
  222.35        2965.75           1441       52217.00    229067.00
  222.38        2966.00           1445       56075.00    246110.40
  222.40        2966.25           1448       58346.00    256150.60
  222.43        2966.50           1451       60466.00    265528.30
  222.46        2966.75           1455       62156.00    273007.50
  222.48        2967.00           1458       62380.00    273999.10
  222.51        2967.25           1461       62670.00    275282.90
  222.54        2967.50           1465       62854.00    276097.50
  222.57        2967.75           1468       61962.00    272148.80
  222.59        2968.00           1471       60789.00    266957.50
  222.62        2968.25           1475       58323.00    256048.90
  222.65        2968.50           1478       55867.00    245191.10
  222.68        2968.75           1481       52765.00    231486.80
  222.70        2969.00           1485       49133.00    215454.60
  222.73        2969.25           1488       45739.00    200485.90
  222.76        2969.50           1491       42315.00    185397.60
  222.79        2969.75           1495       38281.00    167637.70
  222.81        2970.00           1498       35146.00    153847.90
  222.84        2970.25           1501       32150.00    140679.50
  222.87        2970.50           1505       28245.00    123530.30
  222.89        2970.75           1508       25436.00    111204.50
  222.92        2971.00           1511       22652.00     98996.79
  222.95        2971.25           1515       18784.00     82049.66
  222.98        2971.50           1518       15745.00     68745.98
  223.00        2971.75           1521       13089.00     57127.05
  223.03        2972.00           1525        9206.00     40154.10
  223.06        2972.25           1528        6414.00     27959.98
  223.08        2972.50           1531        3898.00     16978.43
  223.11        2972.75           1535        1492.00      6483.30
  223.14        2973.00           1538         535.00      2310.52
  223.17        2973.25           1541         154.00       649.53
  223.19        2973.50           1545          57.00       226.68
  223.22        2973.75           1548          32.00       117.70
  223.25        2974.00           1551          31.00       113.34
  223.28        2974.25           1555          27.00        95.90
  223.30        2974.50           1558          25.00        87.18
  223.33        2974.75           1561          24.00        82.82
  223.36        2975.00           1565          28.00       100.26
  223.38        2975.25           1568          26.00        91.54
  223.41        2975.50           1571          26.00        91.54
  223.44        2975.75           1575          23.00        78.47
  223.47        2976.00           1578          30.00       108.98
  223.49        2976.25           1581          22.00        74.11
  223.52        2976.50           1585          25.00        87.18
  223.55        2976.75           1588          22.00        74.11
  223.57        2977.00           1591          22.00        74.11
  223.60        2977.25           1595          22.00        74.11
  223.63        2977.50           1598          23.00        78.47
  223.66        2977.75           1601          21.00        69.75
  223.68        2978.00           1605          20.00        65.39
  223.71        2978.25           1608          25.00        87.18
  223.74        2978.50           1611          22.00        74.11
  223.76        2978.75           1615          25.00        87.18
  223.79        2979.00           1618          21.00        69.75
  223.82        2979.25           1621          21.00        69.75
  223.85        2979.50           1625          18.00        56.67
  223.87        2979.75           1628          16.00        47.95
  223.90        2980.00           1631          20.00        65.39
  223.93        2980.25           1635          23.00        78.47
  223.95        2980.50           1638          21.00        69.75
  223.98        2980.75           1641          27.00        95.90
  224.01        2981.00           1645          21.00        69.75
  224.04        2981.25           1648          22.00        74.11
  224.06        2981.50           1651          17.00        52.31
  224.09        2981.75           1655          19.00        61.03
  224.12        2982.00           1658          22.00        74.11
  224.14        2982.25           1661          22.00        74.11
  224.17        2982.50           1665          21.00        69.75
  224.20        2982.75           1668          24.00        82.82
  224.23        2983.00           1671          17.00        52.31
  224.25        2983.25           1675          18.00        56.67
  224.28        2983.50           1678          19.00        61.03
  224.31        2983.75           1681          23.00        78.47
  224.33        2984.00           1685          21.00        69.75
HS scan finished at 03:44:31
end
