************************************************************
  HS Scan of (1) Internal mercury lamp
************************************************************
Integration time is 0.2294 seconds per sample
dh250917Tamanrasset 22.79-5.529 3.251135pr865
************************************************************
Dead Time -------------------------  2.8E-08 
Number of Cycles Used -------------  4 
Starting Wavelength (Angstroms) ---  2950 
Final Wavelength (Angstoms) -------  2984 
Wavelength Increment (Angstroms) --  .25 
Filter Wheel #1 Position ---------- (1) Ground quartz diffuser (ND=2.32)
Filter Wheel #2 Position ---------- (1) Neutral Density 0.494



************************************************************
HS scan start time = 03:40:22
Dark Count =  6.3 


Time (GMT)  Wavelength (Ang)  Step Number  Raw Counts  Counts/Second

  220.72        2950.00           1233          24.00        77.16
  220.79        2950.25           1236          18.00        51.00
  220.81        2950.50           1239          20.00        59.72
  220.84        2950.75           1242          21.00        64.08
  220.87        2951.00           1246          18.00        51.00
  220.90        2951.25           1249          21.00        64.08
  220.92        2951.50           1252          19.00        55.36
  220.95        2951.75           1256          19.00        55.36
  220.98        2952.00           1259          21.00        64.08
  221.00        2952.25           1262          16.00        42.28
  221.03        2952.50           1266          21.00        64.08
  221.06        2952.75           1269          17.00        46.64
  221.09        2953.00           1272          21.00        64.08
  221.11        2953.25           1276          17.00        46.64
  221.14        2953.50           1279          22.00        68.44
  221.17        2953.75           1282          20.00        59.72
  221.20        2954.00           1286          17.00        46.64
  221.22        2954.25           1289          21.00        64.08
  221.25        2954.50           1292          18.00        51.00
  221.28        2954.75           1295          18.00        51.00
  221.30        2955.00           1299          17.00        46.64
  221.33        2955.25           1302          18.00        51.00
  221.36        2955.50           1305          19.00        55.36
  221.39        2955.75           1309          22.00        68.44
  221.41        2956.00           1312          19.00        55.36
  221.44        2956.25           1315          22.00        68.44
  221.47        2956.50           1319          18.00        51.00
  221.50        2956.75           1322          19.00        55.36
  221.52        2957.00           1325          21.00        64.08
  221.55        2957.25           1329          17.00        46.64
  221.58        2957.50           1332          16.00        42.28
  221.60        2957.75           1335          17.00        46.64
  221.63        2958.00           1339          16.00        42.28
  221.66        2958.25           1342          20.00        59.72
  221.69        2958.50           1345          22.00        68.44
  221.71        2958.75           1348          19.00        55.36
  221.74        2959.00           1352          23.00        72.80
  221.77        2959.25           1355          17.00        46.64
  221.80        2959.50           1358          22.00        68.44
  221.82        2959.75           1362          21.00        64.08
  221.85        2960.00           1365          27.00        90.24
  221.88        2960.25           1368          29.00        98.95
  221.91        2960.50           1372          27.00        90.24
  221.93        2960.75           1375          38.00       138.19
  221.96        2961.00           1378         115.00       473.85
  221.99        2961.25           1382         543.00      2339.73
  222.01        2961.50           1385        1381.00      5993.60
  222.04        2961.75           1388        2811.00     12230.43
  222.07        2962.00           1392        5700.00     24837.24
  222.10        2962.25           1395        8287.00     36133.75
  222.12        2962.50           1398       11437.00     49898.35
  222.15        2962.75           1402       15185.00     66289.90
  222.18        2963.00           1405       18354.00     80160.98
  222.21        2963.25           1408       21368.00     93363.62
  222.23        2963.50           1412       25386.00    110979.50
  222.26        2963.75           1415       28301.00    123770.40
  222.29        2964.00           1418       31058.00    135876.50
  222.32        2964.25           1422       34889.00    152712.20
  222.34        2964.50           1425       37784.00    165445.10
  222.37        2964.75           1428       40728.00    178402.90
  222.40        2965.00           1431       44013.00    192872.70
  222.43        2965.25           1435       48317.00    211848.80
  222.45        2965.50           1438       51268.00    224871.30
  222.48        2965.75           1441       54433.00    238848.80
  222.51        2966.00           1445       58459.00    256644.50
  222.54        2966.25           1448       61045.00    268084.60
  222.56        2966.50           1451       63165.00    277468.60
  222.59        2966.75           1455       64671.00    284137.80
  222.62        2967.00           1458       65277.00    286822.20
  222.65        2967.25           1461       65212.00    286534.20
  222.67        2967.50           1465       64931.00    285289.50
  222.70        2967.75           1468       64495.00    283358.30
  222.73        2968.00           1471       63313.00    278123.90
  222.76        2968.25           1475       60448.00    265442.90
  222.78        2968.50           1478       58103.00    255070.20
  222.81        2968.75           1481       54923.00    241013.80
  222.84        2969.00           1485       51051.00    223913.40
  222.87        2969.25           1488       47431.00    207940.90
  222.89        2969.50           1491       44130.00    193388.30
  222.92        2969.75           1495       40124.00    175743.70
  222.95        2970.00           1498       37269.00    163179.40
  222.98        2970.25           1501       34339.00    150294.20
  223.00        2970.50           1505       29845.00    130549.10
  223.03        2970.75           1508       26979.00    117968.40
  223.06        2971.00           1511       23933.00    104607.20
  223.09        2971.25           1515       20155.00     88048.99
  223.11        2971.50           1518       17098.00     74662.03
  223.14        2971.75           1521       14276.00     62313.08
  223.17        2972.00           1525       10369.00     45230.31
  223.20        2972.25           1528        7296.00     31805.56
  223.22        2972.50           1531        4874.00     21231.89
  223.25        2972.75           1535        1996.00      8675.60
  223.28        2973.00           1538         797.00      3447.15
  223.31        2973.25           1541         247.00      1049.29
  223.33        2973.50           1545          59.00       229.73
  223.36        2973.75           1548          45.00       168.70
  223.39        2974.00           1551          36.00       129.47
  223.41        2974.25           1555          32.00       112.03
  223.44        2974.50           1558          23.00        72.80
  223.47        2974.75           1561          26.00        85.88
  223.50        2975.00           1565          23.00        72.80
  223.52        2975.25           1568          23.00        72.80
  223.55        2975.50           1571          24.00        77.16
  223.58        2975.75           1575          22.00        68.44
  223.61        2976.00           1578          27.00        90.24
  223.63        2976.25           1581          23.00        72.80
  223.66        2976.50           1585          23.00        72.80
  223.69        2976.75           1588          23.00        72.80
  223.71        2977.00           1591          20.00        59.72
  223.74        2977.25           1595          22.00        68.44
  223.77        2977.50           1598          26.00        85.88
  223.80        2977.75           1601          20.00        59.72
  223.82        2978.00           1605          24.00        77.16
  223.85        2978.25           1608          24.00        77.16
  223.88        2978.50           1611          22.00        68.44
  223.91        2978.75           1615          19.00        55.36
  223.93        2979.00           1618          18.00        51.00
  223.96        2979.25           1621          24.00        77.16
  223.99        2979.50           1625          22.00        68.44
  224.02        2979.75           1628          24.00        77.16
  224.04        2980.00           1631          20.00        59.72
  224.07        2980.25           1635          19.00        55.36
  224.10        2980.50           1638          21.00        64.08
  224.12        2980.75           1641          21.00        64.08
  224.15        2981.00           1645          18.00        51.00
  224.18        2981.25           1648          19.00        55.36
  224.21        2981.50           1651          19.00        55.36
  224.23        2981.75           1655          20.00        59.72
  224.26        2982.00           1658          20.00        59.72
  224.29        2982.25           1661          23.00        72.80
  224.32        2982.50           1665          19.00        55.36
  224.34        2982.75           1668          22.00        68.44
  224.37        2983.00           1671          18.00        51.00
  224.40        2983.25           1675          19.00        55.36
  224.43        2983.50           1678          18.00        51.00
  224.45        2983.75           1681          23.00        72.80
  224.48        2984.00           1685          19.00        55.36
HS scan finished at 03:44:40
end
