************************************************************
  HS Scan of (1) Internal mercury lamp
************************************************************
Integration time is 0.2294 seconds per sample
dh260918Tamanrasset 22.79-5.529 4.974364pr865
************************************************************
Dead Time -------------------------  2.8E-08 
Number of Cycles Used -------------  4 
Starting Wavelength (Angstroms) ---  2950 
Final Wavelength (Angstoms) -------  2984 
Wavelength Increment (Angstroms) --  .25 
Filter Wheel #1 Position ---------- (1) Ground quartz diffuser (ND=2.32)
Filter Wheel #2 Position ---------- (1) Neutral Density 0.494



************************************************************
HS scan start time = 03:40:24
Dark Count =  6.6 


Time (GMT)  Wavelength (Ang)  Step Number  Raw Counts  Counts/Second

  220.76        2950.00           1233          19.00        54.05
  220.82        2950.25           1236          17.00        45.34
  220.85        2950.50           1239          20.00        58.41
  220.88        2950.75           1242          24.00        75.85
  220.90        2951.00           1246          22.00        67.13
  220.93        2951.25           1249          18.00        49.69
  220.96        2951.50           1252          23.00        71.49
  220.98        2951.75           1256          19.00        54.05
  221.01        2952.00           1259          15.00        36.62
  221.04        2952.25           1262          20.00        58.41
  221.07        2952.50           1266          22.00        67.13
  221.09        2952.75           1269          22.00        67.13
  221.12        2953.00           1272          19.00        54.05
  221.15        2953.25           1276          18.00        49.69
  221.17        2953.50           1279          19.00        54.05
  221.20        2953.75           1282          21.00        62.77
  221.23        2954.00           1286          19.00        54.05
  221.26        2954.25           1289          16.00        40.98
  221.28        2954.50           1292          15.00        36.62
  221.31        2954.75           1295          18.00        49.69
  221.34        2955.00           1299          23.00        71.49
  221.36        2955.25           1302          24.00        75.85
  221.39        2955.50           1305          24.00        75.85
  221.42        2955.75           1309          16.00        40.98
  221.45        2956.00           1312          17.00        45.34
  221.47        2956.25           1315          19.00        54.05
  221.50        2956.50           1319          21.00        62.77
  221.53        2956.75           1322          19.00        54.05
  221.55        2957.00           1325          21.00        62.77
  221.58        2957.25           1329          17.00        45.34
  221.61        2957.50           1332          16.00        40.98
  221.64        2957.75           1335          18.00        49.69
  221.66        2958.00           1339          18.00        49.69
  221.69        2958.25           1342          18.00        49.69
  221.72        2958.50           1345          20.00        58.41
  221.75        2958.75           1348          21.00        62.77
  221.77        2959.00           1352          23.00        71.49
  221.80        2959.25           1355          20.00        58.41
  221.83        2959.50           1358          25.00        80.21
  221.85        2959.75           1362          23.00        71.49
  221.88        2960.00           1365          24.00        75.85
  221.91        2960.25           1368          32.00       110.72
  221.94        2960.50           1372          39.00       141.24
  221.96        2960.75           1375          38.00       136.88
  221.99        2961.00           1378         103.00       420.23
  222.02        2961.25           1382         563.00      2425.62
  222.04        2961.50           1385        1403.00      6088.22
  222.07        2961.75           1388        2934.00     12765.68
  222.10        2962.00           1392        5954.00     25944.74
  222.13        2962.25           1395        8729.00     38063.22
  222.15        2962.50           1398       11752.00     51274.09
  222.18        2962.75           1402       15329.00     66918.65
  222.21        2963.00           1405       18236.00     79642.96
  222.24        2963.25           1408       21149.00     92402.68
  222.26        2963.50           1412       24958.00    109100.90
  222.29        2963.75           1415       27826.00    121684.20
  222.32        2964.00           1418       30676.00    134197.30
  222.35        2964.25           1422       34602.00    151449.10
  222.37        2964.50           1425       37566.00    164484.70
  222.40        2964.75           1428       40719.00    178362.00
  222.43        2965.00           1431       43520.00    190699.10
  222.45        2965.25           1435       47547.00    208451.10
  222.48        2965.50           1438       50333.00    220742.90
  222.51        2965.75           1441       53429.00    234412.40
  222.54        2966.00           1445       57378.00    251863.20
  222.56        2966.25           1448       59820.00    262663.10
  222.59        2966.50           1451       61521.00    270189.80
  222.62        2966.75           1455       63174.00    277507.10
  222.65        2967.00           1458       63910.00    280766.20
  222.67        2967.25           1461       63903.00    280735.20
  222.70        2967.50           1465       63826.00    280394.20
  222.73        2967.75           1468       63114.00    277241.50
  222.75        2968.00           1471       61991.00    272270.00
  222.78        2968.25           1475       59554.00    261486.50
  222.81        2968.50           1478       56685.00    248799.60
  222.84        2968.75           1481       53603.00    235180.90
  222.86        2969.00           1485       49876.00    218726.00
  222.89        2969.25           1488       46642.00    204460.10
  222.92        2969.50           1491       43568.00    190910.60
  222.95        2969.75           1495       39579.00    173343.20
  222.97        2970.00           1498       36573.00    160116.40
  223.00        2970.25           1501       33646.00    147246.60
  223.03        2970.50           1505       29537.00    129195.40
  223.05        2970.75           1508       26720.00    116830.60
  223.08        2971.00           1511       23643.00    103334.30
  223.11        2971.25           1515       19701.00     86058.91
  223.14        2971.50           1518       16530.00     72174.49
  223.16        2971.75           1521       13782.00     60150.92
  223.19        2972.00           1525        9931.00     43314.93
  223.22        2972.25           1528        7123.00     31048.78
  223.25        2972.50           1531        4624.00     20139.51
  223.27        2972.75           1535        1934.00      8403.89
  223.30        2973.00           1538         745.00      3219.12
  223.33        2973.25           1541         241.00      1021.83
  223.35        2973.50           1545          46.00       171.75
  223.38        2973.75           1548          34.00       119.44
  223.41        2974.00           1551          34.00       119.44
  223.44        2974.25           1555          29.00        97.65
  223.46        2974.50           1558          18.00        49.69
  223.49        2974.75           1561          25.00        80.21
  223.52        2975.00           1565          23.00        71.49
  223.55        2975.25           1568          19.00        54.05
  223.57        2975.50           1571          25.00        80.21
  223.60        2975.75           1575          19.00        54.05
  223.63        2976.00           1578          22.00        67.13
  223.65        2976.25           1581          23.00        71.49
  223.68        2976.50           1585          22.00        67.13
  223.71        2976.75           1588          23.00        71.49
  223.74        2977.00           1591          16.00        40.98
  223.76        2977.25           1595          19.00        54.05
  223.79        2977.50           1598          25.00        80.21
  223.82        2977.75           1601          28.00        93.29
  223.84        2978.00           1605          25.00        80.21
  223.87        2978.25           1608          17.00        45.34
  223.90        2978.50           1611          18.00        49.69
  223.93        2978.75           1615          20.00        58.41
  223.95        2979.00           1618          21.00        62.77
  223.98        2979.25           1621          24.00        75.85
  224.01        2979.50           1625          19.00        54.05
  224.03        2979.75           1628          18.00        49.69
  224.06        2980.00           1631          21.00        62.77
  224.09        2980.25           1635          16.00        40.98
  224.12        2980.50           1638          22.00        67.13
  224.14        2980.75           1641          23.00        71.49
  224.17        2981.00           1645          17.00        45.34
  224.20        2981.25           1648          22.00        67.13
  224.22        2981.50           1651          19.00        54.05
  224.25        2981.75           1655          19.00        54.05
  224.28        2982.00           1658          20.00        58.41
  224.31        2982.25           1661          20.00        58.41
  224.33        2982.50           1665          20.00        58.41
  224.36        2982.75           1668          24.00        75.85
  224.39        2983.00           1671          26.00        84.57
  224.41        2983.25           1675          21.00        62.77
  224.44        2983.50           1678          19.00        54.05
  224.47        2983.75           1681          22.00        67.13
  224.50        2984.00           1685          19.00        54.05
HS scan finished at 03:44:41
end
