************************************************************
  HS Scan of (1) Internal mercury lamp
************************************************************
Integration time is 0.2294 seconds per sample
dh220917Tamanrasset 22.79-5.529 3.128775pr865
************************************************************
Dead Time -------------------------  2.8E-08 
Number of Cycles Used -------------  4 
Starting Wavelength (Angstroms) ---  2950 
Final Wavelength (Angstoms) -------  2984 
Wavelength Increment (Angstroms) --  .25 
Filter Wheel #1 Position ---------- (1) Ground quartz diffuser (ND=2.32)
Filter Wheel #2 Position ---------- (1) Neutral Density 0.494



************************************************************
HS scan start time = 03:39:49
Dark Count =  4.9 


Time (GMT)  Wavelength (Ang)  Step Number  Raw Counts  Counts/Second

  220.17        2950.00           1233          19.00        61.46
  220.23        2950.25           1236          18.00        57.11
  220.26        2950.50           1239          16.00        48.39
  220.29        2950.75           1242          16.00        48.39
  220.32        2951.00           1246          20.00        65.82
  220.34        2951.25           1249          16.00        48.39
  220.37        2951.50           1252          18.00        57.11
  220.40        2951.75           1256          24.00        83.26
  220.42        2952.00           1259          17.00        52.75
  220.45        2952.25           1262          16.00        48.39
  220.48        2952.50           1266          18.00        57.11
  220.51        2952.75           1269          20.00        65.82
  220.53        2953.00           1272          21.00        70.18
  220.56        2953.25           1276          17.00        52.75
  220.59        2953.50           1279          15.00        44.03
  220.62        2953.75           1282          18.00        57.11
  220.64        2954.00           1286          17.00        52.75
  220.67        2954.25           1289          23.00        78.90
  220.70        2954.50           1292          20.00        65.82
  220.72        2954.75           1295          16.00        48.39
  220.75        2955.00           1299          19.00        61.46
  220.78        2955.25           1302          16.00        48.39
  220.81        2955.50           1305          16.00        48.39
  220.83        2955.75           1309          15.00        44.03
  220.86        2956.00           1312          22.00        74.54
  220.89        2956.25           1315          19.00        61.46
  220.92        2956.50           1319          21.00        70.18
  220.94        2956.75           1322          19.00        61.46
  220.97        2957.00           1325          20.00        65.82
  221.00        2957.25           1329          16.00        48.39
  221.03        2957.50           1332          23.00        78.90
  221.05        2957.75           1335          16.00        48.39
  221.08        2958.00           1339          23.00        78.90
  221.11        2958.25           1342          17.00        52.75
  221.13        2958.50           1345          24.00        83.26
  221.16        2958.75           1348          16.00        48.39
  221.19        2959.00           1352          21.00        70.18
  221.22        2959.25           1355          22.00        74.54
  221.24        2959.50           1358          23.00        78.90
  221.27        2959.75           1362          24.00        83.26
  221.30        2960.00           1365          18.00        57.11
  221.33        2960.25           1368          30.00       109.42
  221.35        2960.50           1372          36.00       135.57
  221.38        2960.75           1375          38.00       144.29
  221.41        2961.00           1378          86.00       353.53
  221.43        2961.25           1382         491.00      2119.13
  221.46        2961.50           1385        1214.00      5271.48
  221.49        2961.75           1388        2645.00     11512.43
  221.52        2962.00           1392        5222.00     22756.87
  221.54        2962.25           1395        7930.00     34580.55
  221.57        2962.50           1398       10737.00     46844.75
  221.60        2962.75           1402       14235.00     62139.85
  221.63        2963.00           1405       17216.00     75184.71
  221.66        2963.25           1408       20043.00     87564.47
  221.68        2963.50           1412       23771.00    103903.00
  221.71        2963.75           1415       26518.00    115951.70
  221.74        2964.00           1418       29511.00    129088.70
  221.76        2964.25           1422       33182.00    145214.80
  221.79        2964.50           1425       36066.00    157894.00
  221.82        2964.75           1428       39271.00    171995.00
  221.85        2965.00           1431       42347.00    185539.00
  221.87        2965.25           1435       46247.00    202726.00
  221.90        2965.50           1438       48921.00    214519.60
  221.93        2965.75           1441       52043.00    228299.10
  221.96        2966.00           1445       55887.00    245279.90
  221.99        2966.25           1448       58036.00    254780.20
  222.01        2966.50           1451       59791.00    262542.40
  222.04        2966.75           1455       62013.00    272375.00
  222.07        2967.00           1458       62515.00    274597.10
  222.10        2967.25           1461       62617.00    275048.70
  222.12        2967.50           1465       62693.00    275385.10
  222.15        2967.75           1468       62201.00    273207.10
  222.18        2968.00           1471       61272.00    269095.40
  222.21        2968.25           1475       58853.00    258393.30
  222.23        2968.50           1478       56538.00    248157.30
  222.26        2968.75           1481       53412.00    234344.80
  222.29        2969.00           1485       49600.00    217515.60
  222.32        2969.25           1488       46763.00    205001.20
  222.34        2969.50           1491       43476.00    190512.70
  222.37        2969.75           1495       39421.00    172655.30
  222.40        2970.00           1498       36504.00    159820.40
  222.42        2970.25           1501       33678.00    147394.80
  222.45        2970.50           1505       29485.00    128974.50
  222.48        2970.75           1508       26681.00    116666.90
  222.51        2971.00           1511       23330.00    101969.50
  222.53        2971.25           1515       19473.00     85067.69
  222.56        2971.50           1518       16580.00     72400.77
  222.59        2971.75           1521       13862.00     60508.27
  222.62        2972.00           1525        9831.00     42885.38
  222.64        2972.25           1528        7181.00     31309.48
  222.67        2972.50           1531        4722.00     20574.62
  222.70        2972.75           1535        2029.00      8825.63
  222.73        2973.00           1538         827.00      3584.06
  222.75        2973.25           1541         237.00      1011.80
  222.78        2973.50           1545          57.00       227.12
  222.81        2973.75           1548          45.00       174.80
  222.83        2974.00           1551          31.00       113.78
  222.86        2974.25           1555          32.00       118.13
  222.89        2974.50           1558          32.00       118.13
  222.92        2974.75           1561          30.00       109.42
  222.94        2975.00           1565          19.00        61.46
  222.97        2975.25           1568          20.00        65.82
  223.00        2975.50           1571          24.00        83.26
  223.03        2975.75           1575          27.00        96.34
  223.05        2976.00           1578          20.00        65.82
  223.08        2976.25           1581          20.00        65.82
  223.11        2976.50           1585          20.00        65.82
  223.14        2976.75           1588          21.00        70.18
  223.16        2977.00           1591          19.00        61.46
  223.19        2977.25           1595          19.00        61.46
  223.22        2977.50           1598          22.00        74.54
  223.25        2977.75           1601          21.00        70.18
  223.27        2978.00           1605          20.00        65.82
  223.30        2978.25           1608          23.00        78.90
  223.33        2978.50           1611          21.00        70.18
  223.35        2978.75           1615          21.00        70.18
  223.38        2979.00           1618          24.00        83.26
  223.41        2979.25           1621          20.00        65.82
  223.44        2979.50           1625          20.00        65.82
  223.46        2979.75           1628          16.00        48.39
  223.49        2980.00           1631          20.00        65.82
  223.52        2980.25           1635          17.00        52.75
  223.55        2980.50           1638          22.00        74.54
  223.57        2980.75           1641          24.00        83.26
  223.60        2981.00           1645          21.00        70.18
  223.63        2981.25           1648          17.00        52.75
  223.66        2981.50           1651          19.00        61.46
  223.68        2981.75           1655          18.00        57.11
  223.71        2982.00           1658          19.00        61.46
  223.74        2982.25           1661          23.00        78.90
  223.76        2982.50           1665          21.00        70.18
  223.79        2982.75           1668          16.00        48.39
  223.82        2983.00           1671          21.00        70.18
  223.85        2983.25           1675          21.00        70.18
  223.87        2983.50           1678          21.00        70.18
  223.90        2983.75           1681          19.00        61.46
  223.93        2984.00           1685          18.00        57.11
HS scan finished at 03:44:07
end
