************************************************************
  HS Scan of (1) Internal mercury lamp
************************************************************
Integration time is 0.2294 seconds per sample
dh210917Tamanrasset 22.79-5.529 3.14407pr865
************************************************************
Dead Time -------------------------  2.8E-08 
Number of Cycles Used -------------  4 
Starting Wavelength (Angstroms) ---  2950 
Final Wavelength (Angstoms) -------  2984 
Wavelength Increment (Angstroms) --  .25 
Filter Wheel #1 Position ---------- (1) Ground quartz diffuser (ND=2.32)
Filter Wheel #2 Position ---------- (1) Neutral Density 0.494



************************************************************
HS scan start time = 03:38:48
Dark Count =  4.9 


Time (GMT)  Wavelength (Ang)  Step Number  Raw Counts  Counts/Second

  219.16        2950.00           1233          19.00        61.46
  219.23        2950.25           1236          23.00        78.90
  219.25        2950.50           1239          21.00        70.18
  219.28        2950.75           1242          18.00        57.11
  219.31        2951.00           1246          21.00        70.18
  219.34        2951.25           1249          23.00        78.90
  219.36        2951.50           1252          18.00        57.11
  219.39        2951.75           1256          20.00        65.82
  219.42        2952.00           1259          22.00        74.54
  219.45        2952.25           1262          23.00        78.90
  219.47        2952.50           1266          13.00        35.31
  219.50        2952.75           1269          22.00        74.54
  219.53        2953.00           1272          20.00        65.82
  219.55        2953.25           1276          16.00        48.39
  219.58        2953.50           1279          17.00        52.75
  219.61        2953.75           1282          17.00        52.75
  219.64        2954.00           1286          22.00        74.54
  219.66        2954.25           1289          17.00        52.75
  219.69        2954.50           1292          17.00        52.75
  219.72        2954.75           1295          20.00        65.82
  219.75        2955.00           1299          15.00        44.03
  219.77        2955.25           1302          23.00        78.90
  219.80        2955.50           1305          17.00        52.75
  219.83        2955.75           1309          21.00        70.18
  219.85        2956.00           1312          24.00        83.26
  219.88        2956.25           1315          21.00        70.18
  219.91        2956.50           1319          19.00        61.46
  219.94        2956.75           1322          20.00        65.82
  219.96        2957.00           1325          23.00        78.90
  219.99        2957.25           1329          19.00        61.46
  220.02        2957.50           1332          19.00        61.46
  220.05        2957.75           1335          21.00        70.18
  220.07        2958.00           1339          21.00        70.18
  220.10        2958.25           1342          19.00        61.46
  220.13        2958.50           1345          21.00        70.18
  220.16        2958.75           1348          20.00        65.82
  220.18        2959.00           1352          19.00        61.46
  220.21        2959.25           1355          20.00        65.82
  220.24        2959.50           1358          22.00        74.54
  220.26        2959.75           1362          25.00        87.62
  220.29        2960.00           1365          27.00        96.34
  220.32        2960.25           1368          35.00       131.21
  220.35        2960.50           1372          29.00       105.06
  220.37        2960.75           1375          35.00       131.21
  220.40        2961.00           1378         122.00       510.47
  220.43        2961.25           1382         555.00      2398.16
  220.46        2961.50           1385        1317.00      5720.62
  220.48        2961.75           1388        2758.00     12005.34
  220.51        2962.00           1392        5657.00     24655.64
  220.54        2962.25           1395        8258.00     36013.19
  220.57        2962.50           1398       11199.00     48864.11
  220.59        2962.75           1402       14860.00     64874.06
  220.62        2963.00           1405       17624.00     76970.85
  220.65        2963.25           1408       20723.00     90543.56
  220.68        2963.50           1412       24481.00    107016.40
  220.70        2963.75           1415       27114.00    118566.90
  220.73        2964.00           1418       30169.00    131978.10
  220.76        2964.25           1422       33735.00    147645.30
  220.79        2964.50           1425       36691.00    160642.90
  220.81        2964.75           1428       39691.00    173843.70
  220.84        2965.00           1431       42667.00    186948.60
  220.87        2965.25           1435       46713.00    204780.70
  220.90        2965.50           1438       49658.00    217771.60
  220.92        2965.75           1441       52462.00    230149.20
  220.95        2966.00           1445       56554.00    248228.00
  220.98        2966.25           1448       58881.00    258517.10
  221.01        2966.50           1451       60656.00    266369.50
  221.03        2966.75           1455       62486.00    274468.80
  221.06        2967.00           1458       63076.00    277080.80
  221.09        2967.25           1461       63202.00    277638.60
  221.12        2967.50           1465       63137.00    277350.90
  221.14        2967.75           1468       62630.00    275106.20
  221.17        2968.00           1471       61302.00    269228.20
  221.20        2968.25           1475       59038.00    259211.50
  221.23        2968.50           1478       56286.00    247043.40
  221.25        2968.75           1481       53618.00    235254.70
  221.28        2969.00           1485       49524.00    217180.20
  221.31        2969.25           1488       46586.00    204220.70
  221.34        2969.50           1491       43531.00    190755.00
  221.36        2969.75           1495       39130.00    171374.40
  221.39        2970.00           1498       36040.00    157779.60
  221.42        2970.25           1501       33207.00    145324.70
  221.45        2970.50           1505       29252.00    127951.50
  221.47        2970.75           1508       26240.00    114732.00
  221.50        2971.00           1511       22985.00    100457.00
  221.53        2971.25           1515       19215.00     83937.68
  221.56        2971.50           1518       16184.00     70667.60
  221.58        2971.75           1521       13395.00     58465.73
  221.61        2972.00           1525        9600.00     41876.01
  221.64        2972.25           1528        6835.00     29798.61
  221.67        2972.50           1531        4266.00     18584.65
  221.69        2972.75           1535        1818.00      7905.41
  221.72        2973.00           1538         676.00      2925.70
  221.75        2973.25           1541         202.00       859.22
  221.78        2973.50           1545          56.00       222.76
  221.80        2973.75           1548          36.00       135.57
  221.83        2974.00           1551          32.00       118.13
  221.86        2974.25           1555          28.00       100.70
  221.89        2974.50           1558          27.00        96.34
  221.91        2974.75           1561          25.00        87.62
  221.94        2975.00           1565          25.00        87.62
  221.97        2975.25           1568          18.00        57.11
  221.99        2975.50           1571          25.00        87.62
  222.02        2975.75           1575          21.00        70.18
  222.05        2976.00           1578          26.00        91.98
  222.08        2976.25           1581          21.00        70.18
  222.10        2976.50           1585          19.00        61.46
  222.13        2976.75           1588          18.00        57.11
  222.16        2977.00           1591          17.00        52.75
  222.19        2977.25           1595          18.00        57.11
  222.21        2977.50           1598          24.00        83.26
  222.24        2977.75           1601          19.00        61.46
  222.27        2978.00           1605          22.00        74.54
  222.29        2978.25           1608          23.00        78.90
  222.32        2978.50           1611          20.00        65.82
  222.35        2978.75           1615          19.00        61.46
  222.38        2979.00           1618          17.00        52.75
  222.40        2979.25           1621          19.00        61.46
  222.43        2979.50           1625          24.00        83.26
  222.46        2979.75           1628          20.00        65.82
  222.49        2980.00           1631          27.00        96.34
  222.51        2980.25           1635          18.00        57.11
  222.54        2980.50           1638          21.00        70.18
  222.57        2980.75           1641          21.00        70.18
  222.59        2981.00           1645          23.00        78.90
  222.62        2981.25           1648          18.00        57.11
  222.65        2981.50           1651          18.00        57.11
  222.68        2981.75           1655          16.00        48.39
  222.70        2982.00           1658          19.00        61.46
  222.73        2982.25           1661          16.00        48.39
  222.76        2982.50           1665          19.00        61.46
  222.79        2982.75           1668          20.00        65.82
  222.81        2983.00           1671          22.00        74.54
  222.84        2983.25           1675          14.00        39.67
  222.87        2983.50           1678          24.00        83.26
  222.90        2983.75           1681          22.00        74.54
  222.92        2984.00           1685          19.00        61.46
HS scan finished at 03:43:07
end
