************************************************************
  HS Scan of (1) Internal mercury lamp
************************************************************
Integration time is 0.2294 seconds per sample
dh220918Tamanrasset 22.79-5.529 4.974364pr865
************************************************************
Dead Time -------------------------  2.8E-08 
Number of Cycles Used -------------  4 
Starting Wavelength (Angstroms) ---  2950 
Final Wavelength (Angstoms) -------  2984 
Wavelength Increment (Angstroms) --  .25 
Filter Wheel #1 Position ---------- (1) Ground quartz diffuser (ND=2.32)
Filter Wheel #2 Position ---------- (1) Neutral Density 0.494



************************************************************
HS scan start time = 03:39:13
Dark Count =  3.9 


Time (GMT)  Wavelength (Ang)  Step Number  Raw Counts  Counts/Second

  219.57        2950.00           1233          22.00        78.90
  219.63        2950.25           1236          20.00        70.18
  219.66        2950.50           1239          20.00        70.18
  219.69        2950.75           1242          19.00        65.82
  219.71        2951.00           1246          18.00        61.46
  219.74        2951.25           1249          18.00        61.46
  219.77        2951.50           1252          22.00        78.90
  219.79        2951.75           1256          19.00        65.82
  219.82        2952.00           1259          16.00        52.75
  219.85        2952.25           1262          22.00        78.90
  219.88        2952.50           1266          22.00        78.90
  219.90        2952.75           1269          20.00        70.18
  219.93        2953.00           1272          20.00        70.18
  219.96        2953.25           1276          19.00        65.82
  219.98        2953.50           1279          24.00        87.62
  220.01        2953.75           1282          17.00        57.11
  220.04        2954.00           1286          22.00        78.90
  220.07        2954.25           1289          21.00        74.54
  220.09        2954.50           1292          17.00        57.11
  220.12        2954.75           1295          18.00        61.46
  220.15        2955.00           1299          17.00        57.11
  220.18        2955.25           1302          23.00        83.26
  220.20        2955.50           1305          21.00        74.54
  220.23        2955.75           1309          17.00        57.11
  220.26        2956.00           1312          21.00        74.54
  220.28        2956.25           1315          21.00        74.54
  220.31        2956.50           1319          19.00        65.82
  220.34        2956.75           1322          20.00        70.18
  220.37        2957.00           1325          15.00        48.39
  220.39        2957.25           1329          21.00        74.54
  220.42        2957.50           1332          18.00        61.46
  220.45        2957.75           1335          20.00        70.18
  220.47        2958.00           1339          16.00        52.75
  220.50        2958.25           1342          20.00        70.18
  220.53        2958.50           1345          21.00        74.54
  220.56        2958.75           1348          20.00        70.18
  220.58        2959.00           1352          22.00        78.90
  220.61        2959.25           1355          18.00        61.46
  220.64        2959.50           1358          19.00        65.82
  220.66        2959.75           1362          22.00        78.90
  220.69        2960.00           1365          24.00        87.62
  220.72        2960.25           1368          28.00       105.06
  220.75        2960.50           1372          35.00       135.57
  220.77        2960.75           1375          31.00       118.13
  220.80        2961.00           1378          86.00       357.89
  220.83        2961.25           1382         431.00      1861.91
  220.85        2961.50           1385        1082.00      4700.27
  220.88        2961.75           1388        2297.00      9998.88
  220.91        2962.00           1392        5017.00     21866.48
  220.94        2962.25           1395        7417.00     32344.45
  220.96        2962.50           1398       10126.00     44178.85
  220.99        2962.75           1402       13717.00     59878.42
  221.02        2963.00           1405       16387.00     71560.41
  221.04        2963.25           1408       19191.00     83836.94
  221.07        2963.50           1412       23062.00    100798.90
  221.10        2963.75           1415       25464.00    111332.10
  221.13        2964.00           1418       28436.00    124373.50
  221.15        2964.25           1422       32013.00    140082.40
  221.18        2964.50           1425       34592.00    151417.00
  221.21        2964.75           1428       37660.00    164910.10
  221.24        2965.00           1431       40425.00    177079.40
  221.26        2965.25           1435       44389.00    194540.30
  221.29        2965.50           1438       46977.00    205949.30
  221.32        2965.75           1441       49724.00    218067.20
  221.34        2966.00           1445       53629.00    235307.70
  221.37        2966.25           1448       55888.00    245288.80
  221.40        2966.50           1451       57839.00    253913.50
  221.43        2966.75           1455       59616.00    261772.60
  221.45        2967.00           1458       60498.00    265674.80
  221.48        2967.25           1461       60724.00    266674.80
  221.51        2967.50           1465       60497.00    265670.40
  221.54        2967.75           1468       60000.00    263471.40
  221.56        2968.00           1471       59025.00    259158.50
  221.59        2968.25           1475       56822.00    249417.10
  221.62        2968.50           1478       54381.00    238629.70
  221.64        2968.75           1481       52005.00    228135.70
  221.67        2969.00           1485       48121.00    210994.80
  221.70        2969.25           1488       44912.00    196845.30
  221.73        2969.50           1491       42042.00    184200.00
  221.75        2969.75           1495       38433.00    168311.40
  221.78        2970.00           1498       35197.00    154077.00
  221.81        2970.25           1501       32440.00    141958.50
  221.84        2970.50           1505       28498.00    124645.70
  221.86        2970.75           1508       25885.00    113178.90
  221.89        2971.00           1511       22925.00    100198.30
  221.92        2971.25           1515       19167.00     83731.82
  221.95        2971.50           1518       16405.00     71639.21
  221.97        2971.75           1521       13724.00     59909.04
  222.00        2972.00           1525        9899.00     43186.89
  222.03        2972.25           1528        7150.00     31178.47
  222.05        2972.50           1531        4747.00     20688.09
  222.08        2972.75           1535        2019.00      8786.38
  222.11        2973.00           1538         835.00      3623.30
  222.14        2973.25           1541         247.00      1059.75
  222.16        2973.50           1545          53.00       214.04
  222.19        2973.75           1548          42.00       166.09
  222.22        2974.00           1551          27.00       100.70
  222.25        2974.25           1555          30.00       113.78
  222.27        2974.50           1558          28.00       105.06
  222.30        2974.75           1561          25.00        91.98
  222.33        2975.00           1565          25.00        91.98
  222.35        2975.25           1568          22.00        78.90
  222.38        2975.50           1571          19.00        65.82
  222.41        2975.75           1575          23.00        83.26
  222.44        2976.00           1578          23.00        83.26
  222.46        2976.25           1581          18.00        61.46
  222.49        2976.50           1585          22.00        78.90
  222.52        2976.75           1588          20.00        70.18
  222.54        2977.00           1591          17.00        57.11
  222.57        2977.25           1595          19.00        65.82
  222.60        2977.50           1598          26.00        96.34
  222.63        2977.75           1601          25.00        91.98
  222.65        2978.00           1605          24.00        87.62
  222.68        2978.25           1608          19.00        65.82
  222.71        2978.50           1611          25.00        91.98
  222.73        2978.75           1615          25.00        91.98
  222.76        2979.00           1618          28.00       105.06
  222.79        2979.25           1621          20.00        70.18
  222.81        2979.50           1625          22.00        78.90
  222.84        2979.75           1628          26.00        96.34
  222.87        2980.00           1631          25.00        91.98
  222.90        2980.25           1635          22.00        78.90
  222.92        2980.50           1638          19.00        65.82
  222.95        2980.75           1641          21.00        74.54
  222.98        2981.00           1645          19.00        65.82
  223.01        2981.25           1648          16.00        52.75
  223.03        2981.50           1651          22.00        78.90
  223.06        2981.75           1655          20.00        70.18
  223.09        2982.00           1658          21.00        74.54
  223.11        2982.25           1661          16.00        52.75
  223.14        2982.50           1665          21.00        74.54
  223.17        2982.75           1668          19.00        65.82
  223.20        2983.00           1671          16.00        52.75
  223.22        2983.25           1675          23.00        83.26
  223.25        2983.50           1678          19.00        65.82
  223.28        2983.75           1681          21.00        74.54
  223.30        2984.00           1685          23.00        83.26
HS scan finished at 03:43:30
end
