************************************************************
  HS Scan of (1) Internal mercury lamp
************************************************************
Integration time is 0.2294 seconds per sample
dh260917Tamanrasset 22.79-5.529 3.08289pr865
************************************************************
Dead Time -------------------------  2.8E-08 
Number of Cycles Used -------------  4 
Starting Wavelength (Angstroms) ---  2950 
Final Wavelength (Angstoms) -------  2984 
Wavelength Increment (Angstroms) --  .25 
Filter Wheel #1 Position ---------- (1) Ground quartz diffuser (ND=2.32)
Filter Wheel #2 Position ---------- (1) Neutral Density 0.494



************************************************************
HS scan start time = 03:40:50
Dark Count =  5.7 


Time (GMT)  Wavelength (Ang)  Step Number  Raw Counts  Counts/Second

  221.19        2950.00           1233          18.00        53.62
  221.25        2950.25           1236          17.00        49.26
  221.28        2950.50           1239          18.00        53.62
  221.31        2950.75           1242          20.00        62.34
  221.33        2951.00           1246          22.00        71.06
  221.36        2951.25           1249          15.00        40.54
  221.39        2951.50           1252          20.00        62.34
  221.42        2951.75           1256          19.00        57.98
  221.44        2952.00           1259          17.00        49.26
  221.47        2952.25           1262          20.00        62.34
  221.50        2952.50           1266          23.00        75.41
  221.52        2952.75           1269          24.00        79.77
  221.55        2953.00           1272          18.00        53.62
  221.58        2953.25           1276          18.00        53.62
  221.61        2953.50           1279          22.00        71.06
  221.63        2953.75           1282          16.00        44.90
  221.66        2954.00           1286          19.00        57.98
  221.69        2954.25           1289          20.00        62.34
  221.71        2954.50           1292          21.00        66.70
  221.74        2954.75           1295          19.00        57.98
  221.77        2955.00           1299          20.00        62.34
  221.80        2955.25           1302          18.00        53.62
  221.82        2955.50           1305          15.00        40.54
  221.85        2955.75           1309          18.00        53.62
  221.88        2956.00           1312          19.00        57.98
  221.91        2956.25           1315          17.00        49.26
  221.93        2956.50           1319          20.00        62.34
  221.96        2956.75           1322          22.00        71.06
  221.99        2957.00           1325          17.00        49.26
  222.01        2957.25           1329          19.00        57.98
  222.04        2957.50           1332          21.00        66.70
  222.07        2957.75           1335          24.00        79.77
  222.10        2958.00           1339          20.00        62.34
  222.12        2958.25           1342          25.00        84.13
  222.15        2958.50           1345          23.00        75.41
  222.18        2958.75           1348          22.00        71.06
  222.21        2959.00           1352          25.00        84.13
  222.23        2959.25           1355          20.00        62.34
  222.26        2959.50           1358          18.00        53.62
  222.29        2959.75           1362          25.00        84.13
  222.32        2960.00           1365          22.00        71.06
  222.34        2960.25           1368          25.00        84.13
  222.37        2960.50           1372          37.00       136.44
  222.40        2960.75           1375          56.00       219.27
  222.42        2961.00           1378         179.00       755.46
  222.45        2961.25           1382         750.00      3244.85
  222.48        2961.50           1385        1689.00      7339.35
  222.51        2961.75           1388        3313.00     14423.00
  222.53        2962.00           1392        6283.00     27384.99
  222.56        2962.25           1395        8863.00     38652.54
  222.59        2962.50           1398       11614.00     50674.73
  222.62        2962.75           1402       15287.00     66738.81
  222.64        2963.00           1405       18053.00     78845.63
  222.67        2963.25           1408       21111.00     92240.11
  222.70        2963.50           1412       24569.00    107398.80
  222.73        2963.75           1415       27245.00    119138.30
  222.75        2964.00           1418       30143.00    131860.40
  222.78        2964.25           1422       33767.00    147782.40
  222.81        2964.50           1425       36419.00    159443.00
  222.84        2964.75           1428       39485.00    172933.40
  222.86        2965.00           1431       42555.00    186451.70
  222.89        2965.25           1435       46232.00    202656.30
  222.92        2965.50           1438       48894.00    214397.00
  222.95        2965.75           1441       51884.00    227593.50
  222.97        2966.00           1445       55525.00    243676.60
  223.00        2966.25           1448       57564.00    252689.60
  223.03        2966.50           1451       59373.00    260689.70
  223.06        2966.75           1455       60710.00    266604.90
  223.08        2967.00           1458       61145.00    268529.80
  223.11        2967.25           1461       61533.00    270246.90
  223.14        2967.50           1465       61025.00    267998.80
  223.17        2967.75           1468       60405.00    265255.30
  223.19        2968.00           1471       59233.00    260070.50
  223.22        2968.25           1475       56646.00    248631.20
  223.25        2968.50           1478       53892.00    236461.50
  223.28        2968.75           1481       51391.00    225417.00
  223.30        2969.00           1485       47295.00    207343.70
  223.33        2969.25           1488       44473.00    194902.50
  223.36        2969.50           1491       41367.00    181219.30
  223.39        2969.75           1495       37648.00    164849.40
  223.41        2970.00           1498       34503.00    151017.80
  223.44        2970.25           1501       31376.00    137276.00
  223.47        2970.50           1505       27922.00    122109.50
  223.50        2970.75           1508       24751.00    108197.00
  223.52        2971.00           1511       21838.00     95425.96
  223.55        2971.25           1515       17934.00     78324.60
  223.58        2971.50           1518       14993.00     65452.46
  223.61        2971.75           1521       12467.00     54404.08
  223.63        2972.00           1525        8819.00     38460.31
  223.66        2972.25           1528        6244.00     27214.72
  223.69        2972.50           1531        3835.00     16700.49
  223.71        2972.75           1535        1487.00      6458.45
  223.74        2973.00           1538         540.00      2329.27
  223.77        2973.25           1541         158.00       663.92
  223.80        2973.50           1545          46.00       175.68
  223.82        2973.75           1548          40.00       149.52
  223.85        2974.00           1551          28.00        97.21
  223.88        2974.25           1555          31.00       110.29
  223.91        2974.50           1558          26.00        88.49
  223.93        2974.75           1561          20.00        62.34
  223.96        2975.00           1565          27.00        92.85
  223.99        2975.25           1568          21.00        66.70
  224.01        2975.50           1571          23.00        75.41
  224.04        2975.75           1575          25.00        84.13
  224.07        2976.00           1578          19.00        57.98
  224.10        2976.25           1581          28.00        97.21
  224.12        2976.50           1585          20.00        62.34
  224.15        2976.75           1588          23.00        75.41
  224.18        2977.00           1591          23.00        75.41
  224.21        2977.25           1595          21.00        66.70
  224.23        2977.50           1598          22.00        71.06
  224.26        2977.75           1601          18.00        53.62
  224.29        2978.00           1605          25.00        84.13
  224.32        2978.25           1608          18.00        53.62
  224.34        2978.50           1611          22.00        71.06
  224.37        2978.75           1615          21.00        66.70
  224.40        2979.00           1618          18.00        53.62
  224.42        2979.25           1621          20.00        62.34
  224.45        2979.50           1625          22.00        71.06
  224.48        2979.75           1628          20.00        62.34
  224.51        2980.00           1631          19.00        57.98
  224.53        2980.25           1635          23.00        75.41
  224.56        2980.50           1638          21.00        66.70
  224.59        2980.75           1641          20.00        62.34
  224.62        2981.00           1645          24.00        79.77
  224.64        2981.25           1648          18.00        53.62
  224.67        2981.50           1651          22.00        71.06
  224.70        2981.75           1655          16.00        44.90
  224.72        2982.00           1658          18.00        53.62
  224.75        2982.25           1661          18.00        53.62
  224.78        2982.50           1665          19.00        57.98
  224.81        2982.75           1668          16.00        44.90
  224.83        2983.00           1671          16.00        44.90
  224.86        2983.25           1675          21.00        66.70
  224.89        2983.50           1678          19.00        57.98
  224.92        2983.75           1681          17.00        49.26
  224.94        2984.00           1685          25.00        84.13
HS scan finished at 03:45:08
end
