************************************************************
  HS Scan of (1) Internal mercury lamp
************************************************************
Integration time is 0.2294 seconds per sample
dh180918Tamanrasset 22.79-5.529 4.974364pr865
************************************************************
Dead Time -------------------------  2.8E-08 
Number of Cycles Used -------------  4 
Starting Wavelength (Angstroms) ---  2950 
Final Wavelength (Angstoms) -------  2984 
Wavelength Increment (Angstroms) --  .25 
Filter Wheel #1 Position ---------- (1) Ground quartz diffuser (ND=2.32)
Filter Wheel #2 Position ---------- (1) Neutral Density 0.494



************************************************************
HS scan start time = 03:37:48
Dark Count =  5.1 


Time (GMT)  Wavelength (Ang)  Step Number  Raw Counts  Counts/Second

  218.16        2950.00           1233          17.00        51.87
  218.22        2950.25           1236          22.00        73.67
  218.25        2950.50           1239          21.00        69.31
  218.28        2950.75           1242          21.00        69.31
  218.30        2951.00           1246          20.00        64.95
  218.33        2951.25           1249          19.00        60.59
  218.36        2951.50           1252          19.00        60.59
  218.38        2951.75           1256          21.00        69.31
  218.41        2952.00           1259          16.00        47.52
  218.44        2952.25           1262          15.00        43.16
  218.47        2952.50           1266          20.00        64.95
  218.49        2952.75           1269          22.00        73.67
  218.52        2953.00           1272          21.00        69.31
  218.55        2953.25           1276          19.00        60.59
  218.58        2953.50           1279          20.00        64.95
  218.60        2953.75           1282          18.00        56.23
  218.63        2954.00           1286          18.00        56.23
  218.66        2954.25           1289          20.00        64.95
  218.68        2954.50           1292          18.00        56.23
  218.71        2954.75           1295          18.00        56.23
  218.74        2955.00           1299          21.00        69.31
  218.77        2955.25           1302          20.00        64.95
  218.79        2955.50           1305          22.00        73.67
  218.82        2955.75           1309          21.00        69.31
  218.85        2956.00           1312          16.00        47.52
  218.88        2956.25           1315          19.00        60.59
  218.90        2956.50           1319          19.00        60.59
  218.93        2956.75           1322          18.00        56.23
  218.96        2957.00           1325          20.00        64.95
  218.98        2957.25           1329          19.00        60.59
  219.01        2957.50           1332          18.00        56.23
  219.04        2957.75           1335          29.00       104.19
  219.07        2958.00           1339          22.00        73.67
  219.09        2958.25           1342          21.00        69.31
  219.12        2958.50           1345          20.00        64.95
  219.15        2958.75           1348          19.00        60.59
  219.18        2959.00           1352          21.00        69.31
  219.20        2959.25           1355          20.00        64.95
  219.23        2959.50           1358          25.00        86.75
  219.26        2959.75           1362          24.00        82.39
  219.28        2960.00           1365          28.00        99.83
  219.31        2960.25           1368          26.00        91.11
  219.34        2960.50           1372          35.00       130.34
  219.37        2960.75           1375          41.00       156.50
  219.39        2961.00           1378          83.00       339.58
  219.42        2961.25           1382         419.00      1804.36
  219.45        2961.50           1385        1114.00      4834.57
  219.48        2961.75           1388        2399.00     10438.53
  219.50        2962.00           1392        5079.00     22131.85
  219.53        2962.25           1395        7692.00     33540.20
  219.56        2962.50           1398       10822.00     47215.39
  219.59        2962.75           1402       14611.00     63783.83
  219.61        2963.00           1405       17835.00     77893.78
  219.64        2963.25           1408       20661.00     90271.04
  219.67        2963.50           1412       24764.00    108256.60
  219.70        2963.75           1415       27654.00    120935.90
  219.72        2964.00           1418       30667.00    134164.40
  219.75        2964.25           1422       34821.00    152418.50
  219.78        2964.50           1425       37841.00    165701.20
  219.81        2964.75           1428       40787.00    178668.00
  219.83        2965.00           1431       43805.00    191961.40
  219.86        2965.25           1435       48119.00    210980.70
  219.89        2965.50           1438       51349.00    225234.20
  219.92        2965.75           1441       54434.00    238858.50
  219.94        2966.00           1445       58343.00    256136.90
  219.97        2966.25           1448       61317.00    269293.60
  220.00        2966.50           1451       63138.00    277354.40
  220.03        2966.75           1455       65651.00    288484.40
  220.05        2967.00           1458       66284.00    291289.00
  220.08        2967.25           1461       66472.00    292122.00
  220.11        2967.50           1465       66263.00    291195.90
  220.14        2967.75           1468       66015.00    290097.10
  220.16        2968.00           1471       65084.00    285972.50
  220.19        2968.25           1475       62923.00    276402.50
  220.22        2968.50           1478       60103.00    263921.80
  220.25        2968.75           1481       57300.00    251525.00
  220.27        2969.00           1485       52822.00    231738.10
  220.30        2969.25           1488       49622.00    217611.80
  220.33        2969.50           1491       46172.00    202394.40
  220.36        2969.75           1495       42030.00    184141.90
  220.38        2970.00           1498       38638.00    169208.20
  220.41        2970.25           1501       35341.00    154704.90
  220.44        2970.50           1505       31262.00    136777.90
  220.46        2970.75           1508       28059.00    122713.40
  220.49        2971.00           1511       25162.00    110002.20
  220.52        2971.25           1515       21057.00     92006.12
  220.55        2971.50           1518       17962.00     78449.83
  220.57        2971.75           1521       14891.00     65008.81
  220.60        2972.00           1525       10850.00     47337.77
  220.63        2972.25           1528        8060.00     35147.48
  220.66        2972.50           1531        5177.00     22559.58
  220.68        2972.75           1535        2264.00      9849.71
  220.71        2973.00           1538         919.00      3984.32
  220.74        2973.25           1541         285.00      1220.18
  220.77        2973.50           1545          66.00       265.48
  220.79        2973.75           1548          47.00       182.65
  220.82        2974.00           1551          37.00       139.06
  220.85        2974.25           1555          35.00       130.34
  220.88        2974.50           1558          24.00        82.39
  220.90        2974.75           1561          28.00        99.83
  220.93        2975.00           1565          22.00        73.67
  220.96        2975.25           1568          26.00        91.11
  220.98        2975.50           1571          25.00        86.75
  221.01        2975.75           1575          22.00        73.67
  221.04        2976.00           1578          20.00        64.95
  221.07        2976.25           1581          27.00        95.47
  221.09        2976.50           1585          23.00        78.03
  221.12        2976.75           1588          19.00        60.59
  221.15        2977.00           1591          26.00        91.11
  221.18        2977.25           1595          19.00        60.59
  221.20        2977.50           1598          28.00        99.83
  221.23        2977.75           1601          21.00        69.31
  221.26        2978.00           1605          22.00        73.67
  221.28        2978.25           1608          22.00        73.67
  221.31        2978.50           1611          20.00        64.95
  221.34        2978.75           1615          22.00        73.67
  221.37        2979.00           1618          22.00        73.67
  221.39        2979.25           1621          23.00        78.03
  221.42        2979.50           1625          21.00        69.31
  221.45        2979.75           1628          16.00        47.52
  221.48        2980.00           1631          24.00        82.39
  221.50        2980.25           1635          21.00        69.31
  221.53        2980.50           1638          23.00        78.03
  221.56        2980.75           1641          28.00        99.83
  221.58        2981.00           1645          20.00        64.95
  221.61        2981.25           1648          20.00        64.95
  221.64        2981.50           1651          22.00        73.67
  221.67        2981.75           1655          19.00        60.59
  221.69        2982.00           1658          22.00        73.67
  221.72        2982.25           1661          24.00        82.39
  221.75        2982.50           1665          23.00        78.03
  221.78        2982.75           1668          18.00        56.23
  221.80        2983.00           1671          21.00        69.31
  221.83        2983.25           1675          20.00        64.95
  221.86        2983.50           1678          23.00        78.03
  221.88        2983.75           1681          17.00        51.87
  221.91        2984.00           1685          22.00        73.67
HS scan finished at 03:42:06
end
