************************************************************
  HS Scan of (1) Internal mercury lamp
************************************************************
Integration time is 0.2294 seconds per sample
dh240918Tamanrasset 22.79-5.529 4.974364pr865
************************************************************
Dead Time -------------------------  2.8E-08 
Number of Cycles Used -------------  4 
Starting Wavelength (Angstroms) ---  2950 
Final Wavelength (Angstoms) -------  2984 
Wavelength Increment (Angstroms) --  .25 
Filter Wheel #1 Position ---------- (1) Ground quartz diffuser (ND=2.32)
Filter Wheel #2 Position ---------- (1) Neutral Density 0.494



************************************************************
HS scan start time = 03:39:47
Dark Count =  4 


Time (GMT)  Wavelength (Ang)  Step Number  Raw Counts  Counts/Second

  220.14        2950.00           1233          21.00        74.11
  220.21        2950.25           1236          20.00        69.75
  220.23        2950.50           1239          21.00        74.11
  220.26        2950.75           1242          20.00        69.75
  220.29        2951.00           1246          23.00        82.82
  220.31        2951.25           1249          17.00        56.67
  220.34        2951.50           1252          18.00        61.03
  220.37        2951.75           1256          24.00        87.18
  220.40        2952.00           1259          18.00        61.03
  220.42        2952.25           1262          21.00        74.11
  220.45        2952.50           1266          21.00        74.11
  220.48        2952.75           1269          18.00        61.03
  220.50        2953.00           1272          22.00        78.47
  220.53        2953.25           1276          17.00        56.67
  220.56        2953.50           1279          17.00        56.67
  220.59        2953.75           1282          21.00        74.11
  220.61        2954.00           1286          26.00        95.90
  220.64        2954.25           1289          19.00        65.39
  220.67        2954.50           1292          19.00        65.39
  220.69        2954.75           1295          18.00        61.03
  220.72        2955.00           1299          22.00        78.47
  220.75        2955.25           1302          21.00        74.11
  220.78        2955.50           1305          20.00        69.75
  220.80        2955.75           1309          18.00        61.03
  220.83        2956.00           1312          19.00        65.39
  220.86        2956.25           1315          17.00        56.67
  220.88        2956.50           1319          18.00        61.03
  220.91        2956.75           1322          17.00        56.67
  220.94        2957.00           1325          24.00        87.18
  220.96        2957.25           1329          19.00        65.39
  220.99        2957.50           1332          23.00        82.82
  221.02        2957.75           1335          16.00        52.31
  221.05        2958.00           1339          22.00        78.47
  221.07        2958.25           1342          18.00        61.03
  221.10        2958.50           1345          18.00        61.03
  221.13        2958.75           1348          19.00        65.39
  221.16        2959.00           1352          23.00        82.82
  221.18        2959.25           1355          20.00        69.75
  221.21        2959.50           1358          24.00        87.18
  221.24        2959.75           1362          23.00        82.82
  221.26        2960.00           1365          26.00        95.90
  221.29        2960.25           1368          24.00        87.18
  221.32        2960.50           1372          39.00       152.57
  221.35        2960.75           1375          44.00       174.37
  221.37        2961.00           1378         134.00       566.70
  221.40        2961.25           1382         619.00      2681.11
  221.43        2961.50           1385        1473.00      6404.81
  221.45        2961.75           1388        3042.00     13248.16
  221.48        2962.00           1392        6060.00     26418.84
  221.51        2962.25           1395        8713.00     38004.67
  221.54        2962.50           1398       11778.00     51399.12
  221.56        2962.75           1402       15337.00     66965.03
  221.59        2963.00           1405       18412.00     80425.03
  221.62        2963.25           1408       21347.00     93281.69
  221.64        2963.50           1412       24913.00    108914.90
  221.67        2963.75           1415       27880.00    121932.60
  221.70        2964.00           1418       30508.00    133470.90
  221.73        2964.25           1422       34307.00    150163.60
  221.75        2964.50           1425       37160.00    162710.00
  221.78        2964.75           1428       40353.00    176762.00
  221.81        2965.00           1431       43285.00    189675.10
  221.84        2965.25           1435       46939.00    205781.20
  221.86        2965.50           1438       49954.00    219081.70
  221.89        2965.75           1441       52644.00    230956.90
  221.92        2966.00           1445       56970.00    250071.00
  221.95        2966.25           1448       59188.00    259879.00
  221.97        2966.50           1451       60934.00    267603.60
  222.00        2966.75           1455       62163.00    273042.90
  222.03        2967.00           1458       63251.00    277859.60
  222.05        2967.25           1461       63032.00    276890.00
  222.08        2967.50           1465       62846.00    276066.50
  222.11        2967.75           1468       62448.00    274304.50
  222.14        2968.00           1471       60973.00    267776.20
  222.16        2968.25           1475       58368.00    256252.30
  222.19        2968.50           1478       56093.00    246194.40
  222.22        2968.75           1481       53166.00    233262.20
  222.25        2969.00           1485       49045.00    215070.70
  222.27        2969.25           1488       45880.00    201111.90
  222.30        2969.50           1491       42500.00    186216.90
  222.33        2969.75           1495       38788.00    169873.20
  222.36        2970.00           1498       35509.00    155448.50
  222.38        2970.25           1501       32733.00    143245.60
  222.41        2970.50           1505       28832.00    126111.50
  222.44        2970.75           1508       26010.00    113726.90
  222.46        2971.00           1511       22868.00     99948.02
  222.49        2971.25           1515       19122.00     83534.31
  222.52        2971.50           1518       16202.00     70750.31
  222.55        2971.75           1521       13443.00     58679.60
  222.57        2972.00           1525        9666.00     42168.33
  222.60        2972.25           1528        6859.00     29907.34
  222.63        2972.50           1531        4384.00     19103.50
  222.66        2972.75           1535        1838.00      7996.56
  222.68        2973.00           1538         674.00      2920.90
  222.71        2973.25           1541         199.00       850.06
  222.74        2973.50           1545          48.00       191.81
  222.76        2973.75           1548          36.00       139.49
  222.79        2974.00           1551          40.00       156.93
  222.82        2974.25           1555          28.00       104.62
  222.85        2974.50           1558          24.00        87.18
  222.87        2974.75           1561          27.00       100.26
  222.90        2975.00           1565          29.00       108.98
  222.93        2975.25           1568          27.00       100.26
  222.95        2975.50           1571          25.00        91.54
  222.98        2975.75           1575          26.00        95.90
  223.01        2976.00           1578          20.00        69.75
  223.04        2976.25           1581          23.00        82.82
  223.06        2976.50           1585          22.00        78.47
  223.09        2976.75           1588          24.00        87.18
  223.12        2977.00           1591          20.00        69.75
  223.14        2977.25           1595          20.00        69.75
  223.17        2977.50           1598          24.00        87.18
  223.20        2977.75           1601          21.00        74.11
  223.23        2978.00           1605          21.00        74.11
  223.25        2978.25           1608          22.00        78.47
  223.28        2978.50           1611          24.00        87.18
  223.31        2978.75           1615          22.00        78.47
  223.33        2979.00           1618          25.00        91.54
  223.36        2979.25           1621          20.00        69.75
  223.39        2979.50           1625          20.00        69.75
  223.42        2979.75           1628          22.00        78.47
  223.44        2980.00           1631          22.00        78.47
  223.47        2980.25           1635          22.00        78.47
  223.50        2980.50           1638          24.00        87.18
  223.52        2980.75           1641          21.00        74.11
  223.55        2981.00           1645          23.00        82.82
  223.58        2981.25           1648          23.00        82.82
  223.61        2981.50           1651          17.00        56.67
  223.63        2981.75           1655          19.00        65.39
  223.66        2982.00           1658          19.00        65.39
  223.69        2982.25           1661          24.00        87.18
  223.71        2982.50           1665          22.00        78.47
  223.74        2982.75           1668          16.00        52.31
  223.77        2983.00           1671          19.00        65.39
  223.80        2983.25           1675          27.00       100.26
  223.82        2983.50           1678          20.00        69.75
  223.85        2983.75           1681          19.00        65.39
  223.88        2984.00           1685          20.00        69.75
HS scan finished at 03:44:04
end
