************************************************************
  HS Scan of (1) Internal mercury lamp
************************************************************
Integration time is 0.2294 seconds per sample
dh200917Tamanrasset 22.79-5.529 3.057399pr865
************************************************************
Dead Time -------------------------  2.8E-08 
Number of Cycles Used -------------  4 
Starting Wavelength (Angstroms) ---  2950 
Final Wavelength (Angstoms) -------  2984 
Wavelength Increment (Angstroms) --  .25 
Filter Wheel #1 Position ---------- (1) Ground quartz diffuser (ND=2.32)
Filter Wheel #2 Position ---------- (1) Neutral Density 0.494



************************************************************
HS scan start time = 03:38:48
Dark Count =  3.5 


Time (GMT)  Wavelength (Ang)  Step Number  Raw Counts  Counts/Second

  219.16        2950.00           1233          24.00        89.36
  219.22        2950.25           1236          17.00        58.85
  219.25        2950.50           1239          21.00        76.29
  219.27        2950.75           1242          21.00        76.29
  219.30        2951.00           1246          19.00        67.57
  219.33        2951.25           1249          21.00        76.29
  219.36        2951.50           1252          20.00        71.93
  219.38        2951.75           1256          17.00        58.85
  219.41        2952.00           1259          18.00        63.21
  219.44        2952.25           1262          18.00        63.21
  219.46        2952.50           1266          19.00        67.57
  219.49        2952.75           1269          16.00        54.49
  219.52        2953.00           1272          22.00        80.65
  219.55        2953.25           1276          19.00        67.57
  219.57        2953.50           1279          23.00        85.00
  219.60        2953.75           1282          20.00        71.93
  219.63        2954.00           1286          17.00        58.85
  219.65        2954.25           1289          21.00        76.29
  219.68        2954.50           1292          19.00        67.57
  219.71        2954.75           1295          18.00        63.21
  219.74        2955.00           1299          16.00        54.49
  219.76        2955.25           1302          22.00        80.65
  219.79        2955.50           1305          17.00        58.85
  219.82        2955.75           1309          19.00        67.57
  219.84        2956.00           1312          18.00        63.21
  219.87        2956.25           1315          21.00        76.29
  219.90        2956.50           1319          21.00        76.29
  219.93        2956.75           1322          15.00        50.13
  219.95        2957.00           1325          19.00        67.57
  219.98        2957.25           1329          20.00        71.93
  220.01        2957.50           1332          18.00        63.21
  220.03        2957.75           1335          17.00        58.85
  220.06        2958.00           1339          20.00        71.93
  220.09        2958.25           1342          18.00        63.21
  220.12        2958.50           1345          22.00        80.65
  220.14        2958.75           1348          23.00        85.00
  220.17        2959.00           1352          17.00        58.85
  220.20        2959.25           1355          16.00        54.49
  220.22        2959.50           1358          19.00        67.57
  220.25        2959.75           1362          19.00        67.57
  220.28        2960.00           1365          25.00        93.72
  220.31        2960.25           1368          34.00       132.96
  220.33        2960.50           1372          31.00       119.88
  220.36        2960.75           1375          36.00       141.67
  220.39        2961.00           1378          76.00       316.04
  220.42        2961.25           1382         408.00      1763.38
  220.44        2961.50           1385        1073.00      4662.77
  220.47        2961.75           1388        2237.00      9738.92
  220.50        2962.00           1392        4871.00     21231.01
  220.52        2962.25           1395        7304.00     31852.72
  220.55        2962.50           1398       10089.00     44018.92
  220.58        2962.75           1402       13415.00     58559.33
  220.61        2963.00           1405       16271.00     71054.48
  220.63        2963.25           1408       18961.00     82831.38
  220.66        2963.50           1412       22592.00     98740.35
  220.69        2963.75           1415       25375.00    110943.50
  220.72        2964.00           1418       28281.00    123694.90
  220.74        2964.25           1422       31907.00    139618.40
  220.77        2964.50           1425       34727.00    152012.30
  220.80        2964.75           1428       37644.00    164841.50
  220.82        2965.00           1431       40585.00    177785.60
  220.85        2965.25           1435       44161.00    193537.20
  220.88        2965.50           1438       47147.00    206700.70
  220.91        2965.75           1441       49928.00    218969.20
  220.93        2966.00           1445       53620.00    235269.70
  220.96        2966.25           1448       56032.00    245927.00
  220.99        2966.50           1451       58204.00    255529.20
  221.02        2966.75           1455       60046.00    263676.70
  221.04        2967.00           1458       61057.00    268150.10
  221.07        2967.25           1461       61093.00    268309.40
  221.10        2967.50           1465       60821.00    267105.80
  221.13        2967.75           1468       60544.00    265880.10
  221.15        2968.00           1471       59449.00    261035.70
  221.18        2968.25           1475       57317.00    251607.20
  221.21        2968.50           1478       54961.00    241194.00
  221.23        2968.75           1481       52010.00    228159.60
  221.26        2969.00           1485       48722.00    213647.90
  221.29        2969.25           1488       45377.00    198896.70
  221.32        2969.50           1491       42500.00    186219.10
  221.34        2969.75           1495       38348.00    167939.10
  221.37        2970.00           1498       35766.00    156580.80
  221.40        2970.25           1501       32836.00    143700.40
  221.43        2970.50           1505       28643.00    125284.00
  221.45        2970.75           1508       25904.00    113264.10
  221.48        2971.00           1511       23025.00    100638.50
  221.51        2971.25           1515       18984.00     82932.11
  221.54        2971.50           1518       16213.00     70800.65
  221.56        2971.75           1521       13389.00     58445.62
  221.59        2972.00           1525        9836.00     42913.35
  221.62        2972.25           1528        7181.00     31315.59
  221.64        2972.50           1531        4763.00     20759.67
  221.67        2972.75           1535        2064.00      8984.39
  221.70        2973.00           1538         833.00      3616.32
  221.73        2973.25           1541         261.00      1122.53
  221.75        2973.50           1545          54.00       220.14
  221.78        2973.75           1548          35.00       137.32
  221.81        2974.00           1551          38.00       150.39
  221.84        2974.25           1555          30.00       115.52
  221.86        2974.50           1558          23.00        85.00
  221.89        2974.75           1561          22.00        80.65
  221.92        2975.00           1565          25.00        93.72
  221.95        2975.25           1568          18.00        63.21
  221.97        2975.50           1571          22.00        80.65
  222.00        2975.75           1575          22.00        80.65
  222.03        2976.00           1578          21.00        76.29
  222.05        2976.25           1581          21.00        76.29
  222.08        2976.50           1585          19.00        67.57
  222.11        2976.75           1588          25.00        93.72
  222.14        2977.00           1591          19.00        67.57
  222.16        2977.25           1595          18.00        63.21
  222.19        2977.50           1598          21.00        76.29
  222.22        2977.75           1601          20.00        71.93
  222.25        2978.00           1605          19.00        67.57
  222.27        2978.25           1608          17.00        58.85
  222.30        2978.50           1611          18.00        63.21
  222.33        2978.75           1615          19.00        67.57
  222.35        2979.00           1618          24.00        89.36
  222.38        2979.25           1621          19.00        67.57
  222.41        2979.50           1625          24.00        89.36
  222.44        2979.75           1628          21.00        76.29
  222.46        2980.00           1631          23.00        85.00
  222.49        2980.25           1635          18.00        63.21
  222.52        2980.50           1638          22.00        80.65
  222.54        2980.75           1641          16.00        54.49
  222.57        2981.00           1645          19.00        67.57
  222.60        2981.25           1648          19.00        67.57
  222.63        2981.50           1651          20.00        71.93
  222.65        2981.75           1655          22.00        80.65
  222.68        2982.00           1658          21.00        76.29
  222.71        2982.25           1661          19.00        67.57
  222.73        2982.50           1665          17.00        58.85
  222.76        2982.75           1668          21.00        76.29
  222.79        2983.00           1671          21.00        76.29
  222.82        2983.25           1675          18.00        63.21
  222.84        2983.50           1678          23.00        85.00
  222.87        2983.75           1681          16.00        54.49
  222.90        2984.00           1685          23.00        85.00
HS scan finished at 03:43:05
end
