************************************************************
  HS Scan of (1) Internal mercury lamp
************************************************************
Integration time is 0.2294 seconds per sample
dh210918Tamanrasset 22.79-5.529 4.974364pr865
************************************************************
Dead Time -------------------------  2.8E-08 
Number of Cycles Used -------------  4 
Starting Wavelength (Angstroms) ---  2950 
Final Wavelength (Angstoms) -------  2984 
Wavelength Increment (Angstroms) --  .25 
Filter Wheel #1 Position ---------- (1) Ground quartz diffuser (ND=2.32)
Filter Wheel #2 Position ---------- (1) Neutral Density 0.494



************************************************************
HS scan start time = 03:38:25
Dark Count =  4 


Time (GMT)  Wavelength (Ang)  Step Number  Raw Counts  Counts/Second

  218.77        2950.00           1233          16.00        52.31
  218.83        2950.25           1236          19.00        65.39
  218.86        2950.50           1239          21.00        74.11
  218.89        2950.75           1242          20.00        69.75
  218.92        2951.00           1246          23.00        82.82
  218.94        2951.25           1249          17.00        56.67
  218.97        2951.50           1252          21.00        74.11
  219.00        2951.75           1256          21.00        74.11
  219.02        2952.00           1259          21.00        74.11
  219.05        2952.25           1262          23.00        82.82
  219.08        2952.50           1266          20.00        69.75
  219.11        2952.75           1269          18.00        61.03
  219.13        2953.00           1272          19.00        65.39
  219.16        2953.25           1276          19.00        65.39
  219.19        2953.50           1279          19.00        65.39
  219.21        2953.75           1282          15.00        47.95
  219.24        2954.00           1286          21.00        74.11
  219.27        2954.25           1289          19.00        65.39
  219.29        2954.50           1292          23.00        82.82
  219.32        2954.75           1295          19.00        65.39
  219.35        2955.00           1299          26.00        95.90
  219.38        2955.25           1302          24.00        87.18
  219.40        2955.50           1305          17.00        56.67
  219.43        2955.75           1309          18.00        61.03
  219.46        2956.00           1312          19.00        65.39
  219.49        2956.25           1315          22.00        78.47
  219.51        2956.50           1319          20.00        69.75
  219.54        2956.75           1322          18.00        61.03
  219.57        2957.00           1325          23.00        82.82
  219.59        2957.25           1329          21.00        74.11
  219.62        2957.50           1332          26.00        95.90
  219.65        2957.75           1335          20.00        69.75
  219.68        2958.00           1339          19.00        65.39
  219.70        2958.25           1342          21.00        74.11
  219.73        2958.50           1345          23.00        82.82
  219.76        2958.75           1348          19.00        65.39
  219.79        2959.00           1352          20.00        69.75
  219.81        2959.25           1355          24.00        87.18
  219.84        2959.50           1358          16.00        52.31
  219.87        2959.75           1362          24.00        87.18
  219.89        2960.00           1365          24.00        87.18
  219.92        2960.25           1368          31.00       117.70
  219.95        2960.50           1372          37.00       143.85
  219.98        2960.75           1375          44.00       174.37
  220.00        2961.00           1378         129.00       544.91
  220.03        2961.25           1382         584.00      2528.51
  220.06        2961.50           1385        1407.00      6117.00
  220.08        2961.75           1388        3007.00     13095.47
  220.11        2962.00           1392        6022.00     26252.95
  220.14        2962.25           1395        8712.00     38000.31
  220.17        2962.50           1398       11768.00     51355.40
  220.19        2962.75           1402       15484.00     67608.25
  220.22        2963.00           1405       18347.00     80140.40
  220.25        2963.25           1408       21125.00     92308.91
  220.28        2963.50           1412       25109.00    109774.60
  220.30        2963.75           1415       27992.00    122424.20
  220.33        2964.00           1418       30639.00    134046.20
  220.36        2964.25           1422       34872.00    152647.60
  220.39        2964.50           1425       37530.00    164337.70
  220.41        2964.75           1428       40829.00    178857.80
  220.44        2965.00           1431       43513.00    190679.70
  220.47        2965.25           1435       47548.00    208467.00
  220.49        2965.50           1438       50820.00    222903.90
  220.52        2965.75           1441       53750.00    235841.70
  220.55        2966.00           1445       57552.00    252644.00
  220.58        2966.25           1448       59991.00    263431.20
  220.60        2966.50           1451       61712.00    271046.70
  220.63        2966.75           1455       63509.00    279002.00
  220.66        2967.00           1458       64120.00    281707.70
  220.69        2967.25           1461       64287.00    282447.30
  220.71        2967.50           1465       64134.00    281769.70
  220.74        2967.75           1468       63442.00    278705.30
  220.77        2968.00           1471       62337.00    273813.10
  220.79        2968.25           1475       59782.00    262506.50
  220.82        2968.50           1478       57185.00    251021.50
  220.85        2968.75           1481       54119.00    237471.80
  220.88        2969.00           1485       50142.00    219911.40
  220.90        2969.25           1488       47022.00    206147.30
  220.93        2969.50           1491       43791.00    191904.60
  220.96        2969.75           1495       39526.00    173121.40
  220.99        2970.00           1498       36547.00    160013.50
  221.01        2970.25           1501       33609.00    147095.40
  221.04        2970.50           1505       29554.00    129281.50
  221.07        2970.75           1508       26424.00    115543.20
  221.10        2971.00           1511       23376.00    102175.10
  221.12        2971.25           1515       19630.00     85759.30
  221.15        2971.50           1518       16487.00     71997.66
  221.18        2971.75           1521       13795.00     60219.15
  221.20        2972.00           1525        9765.00     42600.92
  221.23        2972.25           1528        6842.00     29833.11
  221.26        2972.50           1531        4493.00     19579.17
  221.29        2972.75           1535        1934.00      8415.23
  221.31        2973.00           1538         742.00      3217.38
  221.34        2973.25           1541         219.00       937.25
  221.37        2973.50           1545          54.00       217.96
  221.40        2973.75           1548          43.00       170.01
  221.42        2974.00           1551          36.00       139.49
  221.45        2974.25           1555          26.00        95.90
  221.48        2974.50           1558          28.00       104.62
  221.50        2974.75           1561          24.00        87.18
  221.53        2975.00           1565          22.00        78.47
  221.56        2975.25           1568          20.00        69.75
  221.59        2975.50           1571          21.00        74.11
  221.61        2975.75           1575          25.00        91.54
  221.64        2976.00           1578          23.00        82.82
  221.67        2976.25           1581          24.00        87.18
  221.69        2976.50           1585          19.00        65.39
  221.72        2976.75           1588          22.00        78.47
  221.75        2977.00           1591          21.00        74.11
  221.78        2977.25           1595          21.00        74.11
  221.80        2977.50           1598          23.00        82.82
  221.83        2977.75           1601          21.00        74.11
  221.86        2978.00           1605          21.00        74.11
  221.88        2978.25           1608          19.00        65.39
  221.91        2978.50           1611          21.00        74.11
  221.94        2978.75           1615          22.00        78.47
  221.97        2979.00           1618          26.00        95.90
  221.99        2979.25           1621          26.00        95.90
  222.02        2979.50           1625          26.00        95.90
  222.05        2979.75           1628          20.00        69.75
  222.07        2980.00           1631          22.00        78.47
  222.10        2980.25           1635          21.00        74.11
  222.13        2980.50           1638          24.00        87.18
  222.16        2980.75           1641          22.00        78.47
  222.18        2981.00           1645          23.00        82.82
  222.21        2981.25           1648          19.00        65.39
  222.24        2981.50           1651          23.00        82.82
  222.26        2981.75           1655          18.00        61.03
  222.29        2982.00           1658          20.00        69.75
  222.32        2982.25           1661          19.00        65.39
  222.35        2982.50           1665          21.00        74.11
  222.37        2982.75           1668          22.00        78.47
  222.40        2983.00           1671          22.00        78.47
  222.43        2983.25           1675          16.00        52.31
  222.45        2983.50           1678          18.00        61.03
  222.48        2983.75           1681          18.00        61.03
  222.51        2984.00           1685          20.00        69.75
HS scan finished at 03:42:42
end
