************************************************************
  HS Scan of (1) Internal mercury lamp
************************************************************
Integration time is 0.2294 seconds per sample
dh180917Tamanrasset 22.79-5.529 3.332708pr865
************************************************************
Dead Time -------------------------  2.8E-08 
Number of Cycles Used -------------  4 
Starting Wavelength (Angstroms) ---  2950 
Final Wavelength (Angstoms) -------  2984 
Wavelength Increment (Angstroms) --  .25 
Filter Wheel #1 Position ---------- (1) Ground quartz diffuser (ND=2.32)
Filter Wheel #2 Position ---------- (1) Neutral Density 0.494



************************************************************
HS scan start time = 03:37:49
Dark Count =  6.4 


Time (GMT)  Wavelength (Ang)  Step Number  Raw Counts  Counts/Second

  218.17        2950.00           1233          21.00        63.64
  218.24        2950.25           1236          21.00        63.64
  218.26        2950.50           1239          24.00        76.72
  218.29        2950.75           1242          21.00        63.64
  218.32        2951.00           1246          21.00        63.64
  218.34        2951.25           1249          18.00        50.57
  218.37        2951.50           1252          18.00        50.57
  218.40        2951.75           1256          21.00        63.64
  218.43        2952.00           1259          21.00        63.64
  218.45        2952.25           1262          17.00        46.21
  218.48        2952.50           1266          21.00        63.64
  218.51        2952.75           1269          19.00        54.93
  218.54        2953.00           1272          21.00        63.64
  218.56        2953.25           1276          16.00        41.85
  218.59        2953.50           1279          18.00        50.57
  218.62        2953.75           1282          18.00        50.57
  218.64        2954.00           1286          18.00        50.57
  218.67        2954.25           1289          18.00        50.57
  218.70        2954.50           1292          21.00        63.64
  218.73        2954.75           1295          21.00        63.64
  218.75        2955.00           1299          24.00        76.72
  218.78        2955.25           1302          23.00        72.36
  218.81        2955.50           1305          19.00        54.93
  218.83        2955.75           1309          23.00        72.36
  218.86        2956.00           1312          17.00        46.21
  218.89        2956.25           1315          21.00        63.64
  218.92        2956.50           1319          19.00        54.93
  218.94        2956.75           1322          21.00        63.64
  218.97        2957.00           1325          22.00        68.00
  219.00        2957.25           1329          22.00        68.00
  219.02        2957.50           1332          18.00        50.57
  219.05        2957.75           1335          18.00        50.57
  219.08        2958.00           1339          19.00        54.93
  219.11        2958.25           1342          22.00        68.00
  219.13        2958.50           1345          19.00        54.93
  219.16        2958.75           1348          18.00        50.57
  219.19        2959.00           1352          21.00        63.64
  219.21        2959.25           1355          20.00        59.29
  219.24        2959.50           1358          21.00        63.64
  219.27        2959.75           1362          24.00        76.72
  219.30        2960.00           1365          32.00       111.60
  219.32        2960.25           1368          25.00        81.08
  219.35        2960.50           1372          30.00       102.88
  219.38        2960.75           1375          48.00       181.34
  219.40        2961.00           1378         146.00       608.55
  219.43        2961.25           1382         704.00      3041.24
  219.46        2961.50           1385        1611.00      6996.14
  219.49        2961.75           1388        3263.00     14201.81
  219.51        2962.00           1392        6422.00     27988.80
  219.54        2962.25           1395        9116.00     39754.77
  219.57        2962.50           1398       12272.00     53548.40
  219.60        2962.75           1402       16221.00     70822.96
  219.62        2963.00           1405       19219.00     83948.62
  219.65        2963.25           1408       22396.00     97868.52
  219.68        2963.50           1412       26129.00    114238.40
  219.71        2963.75           1415       28936.00    126557.50
  219.73        2964.00           1418       32405.00    141793.80
  219.76        2964.25           1422       36105.00    158058.90
  219.79        2964.50           1425       39239.00    171847.60
  219.81        2964.75           1428       42450.00    185986.10
  219.84        2965.00           1431       45775.00    200638.40
  219.87        2965.25           1435       50071.00    219587.50
  219.90        2965.50           1438       52919.00    232160.80
  219.92        2965.75           1441       56183.00    246581.60
  219.95        2966.00           1445       60222.00    264442.50
  219.98        2966.25           1448       62640.00    275143.90
  220.01        2966.50           1451       64586.00    283761.00
  220.03        2966.75           1455       66268.00    291212.30
  220.06        2967.00           1458       66531.00    292377.70
  220.09        2967.25           1461       67164.00    295183.00
  220.11        2967.50           1465       66890.00    293968.70
  220.14        2967.75           1468       66374.00    291682.00
  220.17        2968.00           1471       65385.00    287300.20
  220.20        2968.25           1475       62561.00    274794.10
  220.22        2968.50           1478       59728.00    262257.00
  220.25        2968.75           1481       56957.00    250002.90
  220.28        2969.00           1485       52774.00    231520.40
  220.31        2969.25           1488       49075.00    215192.50
  220.33        2969.50           1491       45794.00    200722.20
  220.36        2969.75           1495       41562.00    182075.00
  220.39        2970.00           1498       38140.00    167011.10
  220.42        2970.25           1501       35089.00    153591.10
  220.44        2970.50           1505       30864.00    135023.90
  220.47        2970.75           1508       27742.00    121316.40
  220.50        2971.00           1511       24496.00    107075.60
  220.52        2971.25           1515       20285.00     88618.05
  220.55        2971.50           1518       17126.00     74784.16
  220.58        2971.75           1521       14373.00     62736.96
  220.61        2972.00           1525       10156.00     44299.03
  220.63        2972.25           1528        7162.00     31219.96
  220.66        2972.50           1531        4384.00     19093.03
  220.69        2972.75           1535        1778.00      7724.43
  220.72        2973.00           1538         652.00      2814.52
  220.74        2973.25           1541         191.00       804.73
  220.77        2973.50           1545          52.00       198.78
  220.80        2973.75           1548          43.00       159.55
  220.82        2974.00           1551          36.00       129.03
  220.85        2974.25           1555          32.00       111.60
  220.88        2974.50           1558          24.00        76.72
  220.91        2974.75           1561          28.00        94.16
  220.93        2975.00           1565          25.00        81.08
  220.96        2975.25           1568          23.00        72.36
  220.99        2975.50           1571          22.00        68.00
  221.01        2975.75           1575          25.00        81.08
  221.04        2976.00           1578          21.00        63.64
  221.07        2976.25           1581          21.00        63.64
  221.10        2976.50           1585          16.00        41.85
  221.12        2976.75           1588          18.00        50.57
  221.15        2977.00           1591          17.00        46.21
  221.18        2977.25           1595          25.00        81.08
  221.21        2977.50           1598          20.00        59.29
  221.23        2977.75           1601          25.00        81.08
  221.26        2978.00           1605          24.00        76.72
  221.29        2978.25           1608          22.00        68.00
  221.31        2978.50           1611          22.00        68.00
  221.34        2978.75           1615          24.00        76.72
  221.37        2979.00           1618          21.00        63.64
  221.40        2979.25           1621          21.00        63.64
  221.42        2979.50           1625          17.00        46.21
  221.45        2979.75           1628          22.00        68.00
  221.48        2980.00           1631          20.00        59.29
  221.50        2980.25           1635          22.00        68.00
  221.53        2980.50           1638          18.00        50.57
  221.56        2980.75           1641          18.00        50.57
  221.59        2981.00           1645          19.00        54.93
  221.61        2981.25           1648          25.00        81.08
  221.64        2981.50           1651          24.00        76.72
  221.67        2981.75           1655          22.00        68.00
  221.70        2982.00           1658          23.00        72.36
  221.72        2982.25           1661          16.00        41.85
  221.75        2982.50           1665          24.00        76.72
  221.78        2982.75           1668          21.00        63.64
  221.80        2983.00           1671          20.00        59.29
  221.83        2983.25           1675          23.00        72.36
  221.86        2983.50           1678          19.00        54.93
  221.89        2983.75           1681          22.00        68.00
  221.91        2984.00           1685          19.00        54.93
HS scan finished at 03:42:06
end
