************************************************************
  HS Scan of (1) Internal mercury lamp
************************************************************
Integration time is 0.2294 seconds per sample
dh200918Tamanrasset 22.79-5.529 4.974364pr865
************************************************************
Dead Time -------------------------  2.8E-08 
Number of Cycles Used -------------  4 
Starting Wavelength (Angstroms) ---  2950 
Final Wavelength (Angstoms) -------  2984 
Wavelength Increment (Angstroms) --  .25 
Filter Wheel #1 Position ---------- (1) Ground quartz diffuser (ND=2.32)
Filter Wheel #2 Position ---------- (1) Neutral Density 0.494



************************************************************
HS scan start time = 03:38:12
Dark Count =  5.4 


Time (GMT)  Wavelength (Ang)  Step Number  Raw Counts  Counts/Second

  218.56        2950.00           1233          19.00        59.29
  218.62        2950.25           1236          16.00        46.21
  218.65        2950.50           1239          19.00        59.29
  218.68        2950.75           1242          20.00        63.64
  218.70        2951.00           1246          20.00        63.64
  218.73        2951.25           1249          18.00        54.93
  218.76        2951.50           1252          23.00        76.72
  218.79        2951.75           1256          18.00        54.93
  218.81        2952.00           1259          26.00        89.80
  218.84        2952.25           1262          20.00        63.64
  218.87        2952.50           1266          19.00        59.29
  218.89        2952.75           1269          22.00        72.36
  218.92        2953.00           1272          13.00        33.13
  218.95        2953.25           1276          20.00        63.64
  218.98        2953.50           1279          19.00        59.29
  219.00        2953.75           1282          21.00        68.00
  219.03        2954.00           1286          20.00        63.64
  219.06        2954.25           1289          22.00        72.36
  219.08        2954.50           1292          18.00        54.93
  219.11        2954.75           1295          24.00        81.08
  219.14        2955.00           1299          19.00        59.29
  219.17        2955.25           1302          20.00        63.64
  219.19        2955.50           1305          17.00        50.57
  219.22        2955.75           1309          24.00        81.08
  219.25        2956.00           1312          18.00        54.93
  219.27        2956.25           1315          20.00        63.64
  219.30        2956.50           1319          20.00        63.64
  219.33        2956.75           1322          22.00        72.36
  219.36        2957.00           1325          17.00        50.57
  219.38        2957.25           1329          21.00        68.00
  219.41        2957.50           1332          20.00        63.64
  219.44        2957.75           1335          22.00        72.36
  219.47        2958.00           1339          20.00        63.64
  219.49        2958.25           1342          20.00        63.64
  219.52        2958.50           1345          18.00        54.93
  219.55        2958.75           1348          18.00        54.93
  219.57        2959.00           1352          23.00        76.72
  219.60        2959.25           1355          18.00        54.93
  219.63        2959.50           1358          22.00        72.36
  219.66        2959.75           1362          20.00        63.64
  219.68        2960.00           1365          22.00        72.36
  219.71        2960.25           1368          31.00       111.60
  219.74        2960.50           1372          31.00       111.60
  219.76        2960.75           1375          44.00       168.27
  219.79        2961.00           1378         123.00       512.65
  219.82        2961.25           1382         609.00      2631.41
  219.85        2961.50           1385        1443.00      6267.88
  219.87        2961.75           1388        2835.00     12339.05
  219.90        2962.00           1392        5787.00     25220.95
  219.93        2962.25           1395        8541.00     37247.19
  219.95        2962.50           1398       11660.00     50877.14
  219.98        2962.75           1402       15449.00     67448.97
  220.01        2963.00           1405       18390.00     80322.55
  220.04        2963.25           1408       21642.00     94568.30
  220.06        2963.50           1412       25825.00    112909.10
  220.09        2963.75           1415       28566.00    124937.60
  220.12        2964.00           1418       31870.00    139447.50
  220.15        2964.25           1422       35867.00    157016.60
  220.17        2964.50           1425       38700.00    169479.80
  220.20        2964.75           1428       41910.00    183612.00
  220.23        2965.00           1431       44910.00    196829.80
  220.25        2965.25           1435       48913.00    214482.10
  220.28        2965.50           1438       52202.00    228999.00
  220.31        2965.75           1441       55395.00    243103.40
  220.34        2966.00           1445       59256.00    260173.60
  220.36        2966.25           1448       62131.00    272895.10
  220.39        2966.50           1451       64101.00    281617.30
  220.42        2966.75           1455       65939.00    289759.00
  220.45        2967.00           1458       66105.00    290494.50
  220.47        2967.25           1461       66588.00    292634.80
  220.50        2967.50           1465       66311.00    291407.30
  220.53        2967.75           1468       65670.00    288567.20
  220.56        2968.00           1471       64002.00    281178.90
  220.58        2968.25           1475       61359.00    269478.20
  220.61        2968.50           1478       58620.00    257360.60
  220.64        2968.75           1481       55518.00    243647.00
  220.67        2969.00           1485       51302.00    225025.40
  220.69        2969.25           1488       47931.00    210150.10
  220.72        2969.50           1491       44744.00    196098.20
  220.75        2969.75           1495       40540.00    177579.10
  220.77        2970.00           1498       37396.00    163742.00
  220.80        2970.25           1501       34316.00    150197.00
  220.83        2970.50           1505       30134.00    131822.20
  220.86        2970.75           1508       27246.00    119144.00
  220.88        2971.00           1511       24277.00    106119.60
  220.91        2971.25           1515       19823.00     86598.57
  220.94        2971.50           1518       16769.00     73225.84
  220.97        2971.75           1521       13909.00     60711.66
  220.99        2972.00           1525        9952.00     43411.94
  221.02        2972.25           1528        6930.00     30211.25
  221.05        2972.50           1531        4471.00     19477.06
  221.08        2972.75           1535        1752.00      7615.40
  221.10        2973.00           1538         671.00      2901.72
  221.13        2973.25           1541         198.00       839.60
  221.16        2973.50           1545          61.00       242.37
  221.18        2973.75           1548          41.00       155.19
  221.21        2974.00           1551          39.00       146.47
  221.24        2974.25           1555          25.00        85.44
  221.27        2974.50           1558          34.00       124.67
  221.29        2974.75           1561          22.00        72.36
  221.32        2975.00           1565          25.00        85.44
  221.35        2975.25           1568          23.00        76.72
  221.37        2975.50           1571          22.00        72.36
  221.40        2975.75           1575          29.00       102.88
  221.43        2976.00           1578          25.00        85.44
  221.46        2976.25           1581          26.00        89.80
  221.48        2976.50           1585          29.00       102.88
  221.51        2976.75           1588          24.00        81.08
  221.54        2977.00           1591          21.00        68.00
  221.57        2977.25           1595          22.00        72.36
  221.59        2977.50           1598          25.00        85.44
  221.62        2977.75           1601          21.00        68.00
  221.65        2978.00           1605          23.00        76.72
  221.67        2978.25           1608          23.00        76.72
  221.70        2978.50           1611          20.00        63.64
  221.73        2978.75           1615          22.00        72.36
  221.75        2979.00           1618          21.00        68.00
  221.78        2979.25           1621          25.00        85.44
  221.81        2979.50           1625          20.00        63.64
  221.84        2979.75           1628          23.00        76.72
  221.86        2980.00           1631          19.00        59.29
  221.89        2980.25           1635          20.00        63.64
  221.92        2980.50           1638          22.00        72.36
  221.95        2980.75           1641          22.00        72.36
  221.97        2981.00           1645          19.00        59.29
  222.00        2981.25           1648          18.00        54.93
  222.03        2981.50           1651          18.00        54.93
  222.05        2981.75           1655          24.00        81.08
  222.08        2982.00           1658          21.00        68.00
  222.11        2982.25           1661          23.00        76.72
  222.14        2982.50           1665          21.00        68.00
  222.16        2982.75           1668          22.00        72.36
  222.19        2983.00           1671          17.00        50.57
  222.22        2983.25           1675          22.00        72.36
  222.24        2983.50           1678          23.00        76.72
  222.27        2983.75           1681          18.00        54.93
  222.30        2984.00           1685          17.00        50.57
HS scan finished at 03:42:29
end
