************************************************************
  HS Scan of (1) Internal mercury lamp
************************************************************
Integration time is 0.2294 seconds per sample
dh230918Tamanrasset 22.79-5.529 4.974364pr865
************************************************************
Dead Time -------------------------  2.8E-08 
Number of Cycles Used -------------  4 
Starting Wavelength (Angstroms) ---  2950 
Final Wavelength (Angstoms) -------  2984 
Wavelength Increment (Angstroms) --  .25 
Filter Wheel #1 Position ---------- (1) Ground quartz diffuser (ND=2.32)
Filter Wheel #2 Position ---------- (1) Neutral Density 0.494



************************************************************
HS scan start time = 03:38:44
Dark Count =  3.9 


Time (GMT)  Wavelength (Ang)  Step Number  Raw Counts  Counts/Second

  219.09        2950.00           1233          19.00        65.82
  219.15        2950.25           1236          20.00        70.18
  219.18        2950.50           1239          18.00        61.46
  219.20        2950.75           1242          22.00        78.90
  219.23        2951.00           1246          20.00        70.18
  219.26        2951.25           1249          23.00        83.26
  219.28        2951.50           1252          21.00        74.54
  219.31        2951.75           1256          18.00        61.46
  219.34        2952.00           1259          19.00        65.82
  219.37        2952.25           1262          17.00        57.11
  219.39        2952.50           1266          17.00        57.11
  219.42        2952.75           1269          19.00        65.82
  219.45        2953.00           1272          20.00        70.18
  219.47        2953.25           1276          21.00        74.54
  219.50        2953.50           1279          16.00        52.75
  219.53        2953.75           1282          19.00        65.82
  219.56        2954.00           1286          18.00        61.46
  219.58        2954.25           1289          20.00        70.18
  219.61        2954.50           1292          23.00        83.26
  219.64        2954.75           1295          18.00        61.46
  219.67        2955.00           1299          21.00        74.54
  219.69        2955.25           1302          25.00        91.98
  219.72        2955.50           1305          15.00        48.39
  219.75        2955.75           1309          21.00        74.54
  219.77        2956.00           1312          24.00        87.62
  219.80        2956.25           1315          19.00        65.82
  219.83        2956.50           1319          23.00        83.26
  219.86        2956.75           1322          20.00        70.18
  219.88        2957.00           1325          19.00        65.82
  219.91        2957.25           1329          22.00        78.90
  219.94        2957.50           1332          25.00        91.98
  219.96        2957.75           1335          20.00        70.18
  219.99        2958.00           1339          20.00        70.18
  220.02        2958.25           1342          21.00        74.54
  220.05        2958.50           1345          15.00        48.39
  220.07        2958.75           1348          19.00        65.82
  220.10        2959.00           1352          23.00        83.26
  220.13        2959.25           1355          21.00        74.54
  220.16        2959.50           1358          21.00        74.54
  220.18        2959.75           1362          26.00        96.34
  220.21        2960.00           1365          23.00        83.26
  220.24        2960.25           1368          29.00       109.42
  220.26        2960.50           1372          38.00       148.65
  220.29        2960.75           1375          45.00       179.16
  220.32        2961.00           1378          76.00       314.30
  220.34        2961.25           1382         421.00      1818.31
  220.37        2961.50           1385        1090.00      4735.15
  220.40        2961.75           1388        2359.00     10269.30
  220.43        2962.00           1392        4903.00     21368.93
  220.45        2962.25           1395        7320.00     31920.85
  220.48        2962.50           1398       10096.00     44047.75
  220.51        2962.75           1402       13607.00     59397.31
  220.54        2963.00           1405       16355.00     71420.36
  220.56        2963.25           1408       19155.00     83679.28
  220.59        2963.50           1412       22538.00     98501.90
  220.62        2963.75           1415       25216.00    110244.30
  220.65        2964.00           1418       28153.00    123131.30
  220.67        2964.25           1422       31784.00    139076.30
  220.70        2964.50           1425       34480.00    150924.60
  220.73        2964.75           1428       37540.00    164382.20
  220.76        2965.00           1431       40114.00    175710.20
  220.78        2965.25           1435       44122.00    193363.60
  220.81        2965.50           1438       47183.00    206857.70
  220.84        2965.75           1441       49789.00    218354.00
  220.86        2966.00           1445       53359.00    234115.10
  220.89        2966.25           1448       55907.00    245372.70
  220.92        2966.50           1451       57769.00    253604.00
  220.95        2966.75           1455       59610.00    261746.10
  220.97        2967.00           1458       60341.00    264980.10
  221.00        2967.25           1461       60327.00    264918.20
  221.03        2967.50           1465       60329.00    264927.00
  221.06        2967.75           1468       59674.00    262029.20
  221.08        2968.00           1471       58519.00    256920.50
  221.11        2968.25           1475       56375.00    247441.20
  221.14        2968.50           1478       54010.00    236990.70
  221.17        2968.75           1481       50974.00    223584.10
  221.19        2969.00           1485       47493.00    208224.90
  221.22        2969.25           1488       44394.00    194562.30
  221.25        2969.50           1491       41294.00    180905.80
  221.27        2969.75           1495       37425.00    163876.20
  221.30        2970.00           1498       34505.00    151034.50
  221.33        2970.25           1501       31659.00    138527.10
  221.36        2970.50           1505       27932.00    122161.30
  221.38        2970.75           1508       24826.00    108533.80
  221.41        2971.00           1511       22123.00     96682.92
  221.44        2971.25           1515       18744.00     81879.31
  221.47        2971.50           1518       15665.00     68400.71
  221.49        2971.75           1521       13125.00     57289.30
  221.52        2972.00           1525        9379.00     40914.76
  221.55        2972.25           1528        6665.00     29060.69
  221.57        2972.50           1531        4337.00     18898.84
  221.60        2972.75           1535        1837.00      7992.64
  221.63        2973.00           1538         710.00      3078.30
  221.66        2973.25           1541         210.00       898.45
  221.68        2973.50           1545          57.00       231.47
  221.71        2973.75           1548          37.00       144.29
  221.74        2974.00           1551          32.00       122.49
  221.76        2974.25           1555          25.00        91.98
  221.79        2974.50           1558          23.00        83.26
  221.82        2974.75           1561          24.00        87.62
  221.85        2975.00           1565          31.00       118.13
  221.87        2975.25           1568          22.00        78.90
  221.90        2975.50           1571          20.00        70.18
  221.93        2975.75           1575          27.00       100.70
  221.96        2976.00           1578          21.00        74.54
  221.98        2976.25           1581          20.00        70.18
  222.01        2976.50           1585          22.00        78.90
  222.04        2976.75           1588          18.00        61.46
  222.06        2977.00           1591          21.00        74.54
  222.09        2977.25           1595          26.00        96.34
  222.12        2977.50           1598          20.00        70.18
  222.15        2977.75           1601          20.00        70.18
  222.17        2978.00           1605          23.00        83.26
  222.20        2978.25           1608          21.00        74.54
  222.23        2978.50           1611          21.00        74.54
  222.25        2978.75           1615          20.00        70.18
  222.28        2979.00           1618          20.00        70.18
  222.31        2979.25           1621          18.00        61.46
  222.34        2979.50           1625          18.00        61.46
  222.36        2979.75           1628          23.00        83.26
  222.39        2980.00           1631          20.00        70.18
  222.42        2980.25           1635          19.00        65.82
  222.44        2980.50           1638          21.00        74.54
  222.47        2980.75           1641          17.00        57.11
  222.50        2981.00           1645          23.00        83.26
  222.53        2981.25           1648          23.00        83.26
  222.55        2981.50           1651          23.00        83.26
  222.58        2981.75           1655          19.00        65.82
  222.61        2982.00           1658          16.00        52.75
  222.63        2982.25           1661          21.00        74.54
  222.66        2982.50           1665          17.00        57.11
  222.69        2982.75           1668          19.00        65.82
  222.72        2983.00           1671          19.00        65.82
  222.74        2983.25           1675          18.00        61.46
  222.77        2983.50           1678          18.00        61.46
  222.80        2983.75           1681          21.00        74.54
  222.82        2984.00           1685          18.00        61.46
HS scan finished at 03:43:01
end
