************************************************************
  HS Scan of (1) Internal mercury lamp
************************************************************
Integration time is 0.2294 seconds per sample
dh190918Tamanrasset 22.79-5.529 4.974364pr865
************************************************************
Dead Time -------------------------  2.8E-08 
Number of Cycles Used -------------  4 
Starting Wavelength (Angstroms) ---  2950 
Final Wavelength (Angstoms) -------  2984 
Wavelength Increment (Angstroms) --  .25 
Filter Wheel #1 Position ---------- (1) Ground quartz diffuser (ND=2.32)
Filter Wheel #2 Position ---------- (1) Neutral Density 0.494



************************************************************
HS scan start time = 03:38:12
Dark Count =  5.5 


Time (GMT)  Wavelength (Ang)  Step Number  Raw Counts  Counts/Second

  218.55        2950.00           1233          22.00        71.93
  218.61        2950.25           1236          14.00        37.05
  218.64        2950.50           1239          24.00        80.65
  218.67        2950.75           1242          17.00        50.13
  218.70        2951.00           1246          21.00        67.57
  218.72        2951.25           1249          18.00        54.49
  218.75        2951.50           1252          21.00        67.57
  218.78        2951.75           1256          20.00        63.21
  218.80        2952.00           1259          20.00        63.21
  218.83        2952.25           1262          16.00        45.77
  218.86        2952.50           1266          22.00        71.93
  218.89        2952.75           1269          20.00        63.21
  218.91        2953.00           1272          22.00        71.93
  218.94        2953.25           1276          16.00        45.77
  218.97        2953.50           1279          19.00        58.85
  218.99        2953.75           1282          22.00        71.93
  219.02        2954.00           1286          22.00        71.93
  219.05        2954.25           1289          22.00        71.93
  219.08        2954.50           1292          19.00        58.85
  219.10        2954.75           1295          21.00        67.57
  219.13        2955.00           1299          20.00        63.21
  219.16        2955.25           1302          19.00        58.85
  219.18        2955.50           1305          20.00        63.21
  219.21        2955.75           1309          17.00        50.13
  219.24        2956.00           1312          20.00        63.21
  219.27        2956.25           1315          18.00        54.49
  219.29        2956.50           1319          21.00        67.57
  219.32        2956.75           1322          19.00        58.85
  219.35        2957.00           1325          21.00        67.57
  219.37        2957.25           1329          21.00        67.57
  219.40        2957.50           1332          22.00        71.93
  219.43        2957.75           1335          23.00        76.29
  219.46        2958.00           1339          18.00        54.49
  219.48        2958.25           1342          19.00        58.85
  219.51        2958.50           1345          20.00        63.21
  219.54        2958.75           1348          19.00        58.85
  219.56        2959.00           1352          16.00        45.77
  219.59        2959.25           1355          19.00        58.85
  219.62        2959.50           1358          21.00        67.57
  219.65        2959.75           1362          22.00        71.93
  219.67        2960.00           1365          26.00        89.36
  219.70        2960.25           1368          28.00        98.08
  219.73        2960.50           1372          38.00       141.67
  219.75        2960.75           1375          44.00       167.83
  219.78        2961.00           1378         117.00       486.06
  219.81        2961.25           1382         583.00      2517.61
  219.84        2961.50           1385        1477.00      6415.71
  219.86        2961.75           1388        2973.00     12940.61
  219.89        2962.00           1392        5953.00     25945.17
  219.92        2962.25           1395        8636.00     37661.76
  219.95        2962.50           1398       11661.00     50881.08
  219.97        2962.75           1402       15360.00     67059.10
  220.00        2963.00           1405       18417.00     80440.35
  220.03        2963.25           1408       21240.00     92806.24
  220.05        2963.50           1412       25143.00    109917.10
  220.08        2963.75           1415       28194.00    123304.20
  220.11        2964.00           1418       31378.00    137285.70
  220.14        2964.25           1422       35002.00    153212.50
  220.16        2964.50           1425       37692.00    165043.90
  220.19        2964.75           1428       41054.00    179841.90
  220.22        2965.00           1431       43952.00    192607.40
  220.25        2965.25           1435       48061.00    210723.10
  220.27        2965.50           1438       51222.00    224671.80
  220.30        2965.75           1441       54234.00    237973.20
  220.33        2966.00           1445       58167.00    255356.80
  220.36        2966.25           1448       60886.00    267384.50
  220.38        2966.50           1451       62855.00    276099.70
  220.41        2966.75           1455       64431.00    283078.40
  220.44        2967.00           1458       64928.00    285279.70
  220.46        2967.25           1461       65219.00    286568.80
  220.49        2967.50           1465       64887.00    285098.10
  220.52        2967.75           1468       64505.00    283406.10
  220.55        2968.00           1471       63356.00    278317.90
  220.57        2968.25           1475       60768.00    266862.40
  220.60        2968.50           1478       58047.00    254826.20
  220.63        2968.75           1481       55427.00    243244.40
  220.66        2969.00           1485       51492.00    225863.70
  220.68        2969.25           1488       47883.00    209938.00
  220.71        2969.50           1491       44848.00    196556.10
  220.74        2969.75           1495       40421.00    177054.80
  220.77        2970.00           1498       37413.00    163816.40
  220.79        2970.25           1501       34599.00    151440.70
  220.82        2970.50           1505       30194.00    132085.30
  220.85        2970.75           1508       27197.00    118928.50
  220.87        2971.00           1511       24239.00    105952.50
  220.90        2971.25           1515       20182.00     88170.77
  220.93        2971.50           1518       17139.00     74845.00
  220.96        2971.75           1521       14102.00     61555.44
  220.98        2972.00           1525       10157.00     44307.33
  221.01        2972.25           1528        7189.00     31341.79
  221.04        2972.50           1531        4771.00     20785.85
  221.07        2972.75           1535        2043.00      8884.08
  221.09        2973.00           1538         797.00      3450.64
  221.12        2973.25           1541         251.00      1070.22
  221.15        2973.50           1545          57.00       224.50
  221.17        2973.75           1548          44.00       167.83
  221.20        2974.00           1551          36.00       132.96
  221.23        2974.25           1555          29.00       102.44
  221.26        2974.50           1558          29.00       102.44
  221.28        2974.75           1561          24.00        80.65
  221.31        2975.00           1565          23.00        76.29
  221.34        2975.25           1568          18.00        54.49
  221.36        2975.50           1571          22.00        71.93
  221.39        2975.75           1575          26.00        89.36
  221.42        2976.00           1578          24.00        80.65
  221.45        2976.25           1581          24.00        80.65
  221.47        2976.50           1585          22.00        71.93
  221.50        2976.75           1588          25.00        85.00
  221.53        2977.00           1591          20.00        63.21
  221.56        2977.25           1595          23.00        76.29
  221.58        2977.50           1598          26.00        89.36
  221.61        2977.75           1601          21.00        67.57
  221.64        2978.00           1605          26.00        89.36
  221.66        2978.25           1608          20.00        63.21
  221.69        2978.50           1611          23.00        76.29
  221.72        2978.75           1615          21.00        67.57
  221.75        2979.00           1618          21.00        67.57
  221.77        2979.25           1621          22.00        71.93
  221.80        2979.50           1625          23.00        76.29
  221.83        2979.75           1628          24.00        80.65
  221.85        2980.00           1631          23.00        76.29
  221.88        2980.25           1635          21.00        67.57
  221.91        2980.50           1638          22.00        71.93
  221.94        2980.75           1641          22.00        71.93
  221.96        2981.00           1645          17.00        50.13
  221.99        2981.25           1648          23.00        76.29
  222.02        2981.50           1651          18.00        54.49
  222.04        2981.75           1655          19.00        58.85
  222.07        2982.00           1658          26.00        89.36
  222.10        2982.25           1661          20.00        63.21
  222.13        2982.50           1665          25.00        85.00
  222.15        2982.75           1668          20.00        63.21
  222.18        2983.00           1671          17.00        50.13
  222.21        2983.25           1675          21.00        67.57
  222.23        2983.50           1678          21.00        67.57
  222.26        2983.75           1681          22.00        71.93
  222.29        2984.00           1685          16.00        45.77
HS scan finished at 03:42:28
end
