************************************************************
  HS Scan of (1) Internal mercury lamp
************************************************************
Integration time is 0.2294 seconds per sample
dh230917Tamanrasset 22.79-5.529 3.14407pr865
************************************************************
Dead Time -------------------------  2.8E-08 
Number of Cycles Used -------------  4 
Starting Wavelength (Angstroms) ---  2950 
Final Wavelength (Angstoms) -------  2984 
Wavelength Increment (Angstroms) --  .25 
Filter Wheel #1 Position ---------- (1) Ground quartz diffuser (ND=2.32)
Filter Wheel #2 Position ---------- (1) Neutral Density 0.494



************************************************************
HS scan start time = 03:39:21
Dark Count =  6.2 


Time (GMT)  Wavelength (Ang)  Step Number  Raw Counts  Counts/Second

  219.71        2950.00           1233          18.00        51.44
  219.77        2950.25           1236          19.00        55.80
  219.80        2950.50           1239          14.00        34.00
  219.83        2950.75           1242          19.00        55.80
  219.86        2951.00           1246          20.00        60.16
  219.88        2951.25           1249          18.00        51.44
  219.91        2951.50           1252          15.00        38.36
  219.94        2951.75           1256          20.00        60.16
  219.97        2952.00           1259          20.00        60.16
  219.99        2952.25           1262          21.00        64.52
  220.02        2952.50           1266          20.00        60.16
  220.05        2952.75           1269          19.00        55.80
  220.07        2953.00           1272          22.00        68.88
  220.10        2953.25           1276          20.00        60.16
  220.13        2953.50           1279          16.00        42.72
  220.16        2953.75           1282          20.00        60.16
  220.18        2954.00           1286          23.00        73.23
  220.21        2954.25           1289          20.00        60.16
  220.24        2954.50           1292          21.00        64.52
  220.27        2954.75           1295          21.00        64.52
  220.29        2955.00           1299          17.00        47.08
  220.32        2955.25           1302          21.00        64.52
  220.35        2955.50           1305          17.00        47.08
  220.38        2955.75           1309          22.00        68.88
  220.40        2956.00           1312          19.00        55.80
  220.43        2956.25           1315          14.00        34.00
  220.46        2956.50           1319          19.00        55.80
  220.48        2956.75           1322          22.00        68.88
  220.51        2957.00           1325          21.00        64.52
  220.54        2957.25           1329          21.00        64.52
  220.57        2957.50           1332          21.00        64.52
  220.59        2957.75           1335          21.00        64.52
  220.62        2958.00           1339          21.00        64.52
  220.65        2958.25           1342          21.00        64.52
  220.68        2958.50           1345          19.00        55.80
  220.70        2958.75           1348          18.00        51.44
  220.73        2959.00           1352          20.00        60.16
  220.76        2959.25           1355          19.00        55.80
  220.78        2959.50           1358          20.00        60.16
  220.81        2959.75           1362          26.00        86.31
  220.84        2960.00           1365          28.00        95.03
  220.87        2960.25           1368          30.00       103.75
  220.89        2960.50           1372          35.00       125.55
  220.92        2960.75           1375          49.00       186.57
  220.95        2961.00           1378         158.00       661.74
  220.98        2961.25           1382         732.00      3164.19
  221.00        2961.50           1385        1622.00      7044.98
  221.03        2961.75           1388        3293.00     14333.56
  221.06        2962.00           1392        6400.00     27893.62
  221.09        2962.25           1395        9182.00     40044.01
  221.11        2962.50           1398       12114.00     52858.48
  221.14        2962.75           1402       15785.00     68915.78
  221.17        2963.00           1405       18584.00     81168.58
  221.20        2963.25           1408       21612.00     94433.33
  221.22        2963.50           1412       25334.00    110751.80
  221.25        2963.75           1415       28011.00    122497.90
  221.28        2964.00           1418       31175.00    136390.90
  221.30        2964.25           1422       34961.00    153029.20
  221.33        2964.50           1425       37852.00    165744.80
  221.36        2964.75           1428       40876.00    179055.00
  221.39        2965.00           1431       43856.00    192181.30
  221.41        2965.25           1435       48194.00    211306.70
  221.44        2965.50           1438       50973.00    223569.50
  221.47        2965.75           1441       53855.00    236295.80
  221.50        2966.00           1445       57389.00    251913.60
  221.52        2966.25           1448       59647.00    261899.60
  221.55        2966.50           1451       61245.00    268970.10
  221.58        2966.75           1455       62661.00    275237.70
  221.61        2967.00           1458       62817.00    275928.30
  221.63        2967.25           1461       62884.00    276225.00
  221.66        2967.50           1465       62664.00    275251.00
  221.69        2967.75           1468       62121.00    272847.30
  221.72        2968.00           1471       60817.00    267076.10
  221.74        2968.25           1475       57722.00    253386.00
  221.77        2968.50           1478       54887.00    240855.10
  221.80        2968.75           1481       51988.00    228050.50
  221.83        2969.00           1485       47780.00    209480.60
  221.85        2969.25           1488       44772.00    196218.10
  221.88        2969.50           1491       41948.00    183775.90
  221.91        2969.75           1495       38001.00    166400.40
  221.94        2970.00           1498       35080.00    153552.40
  221.96        2970.25           1501       32187.00    140836.80
  221.99        2970.50           1505       27983.00    122375.00
  222.02        2970.75           1508       25304.00    110620.20
  222.05        2971.00           1511       22280.00     97360.96
  222.07        2971.25           1515       18322.00     80021.31
  222.10        2971.50           1518       15412.00     67283.57
  222.13        2971.75           1521       12641.00     55162.73
  222.16        2972.00           1525        8710.00     37981.96
  222.18        2972.25           1528        6065.00     26431.06
  222.21        2972.50           1531        3709.00     16148.54
  222.24        2972.75           1535        1435.00      6229.51
  222.27        2973.00           1538         522.00      2248.62
  222.29        2973.25           1541         149.00       622.50
  222.32        2973.50           1545          45.00       169.14
  222.35        2973.75           1548          37.00       134.26
  222.38        2974.00           1551          31.00       108.11
  222.40        2974.25           1555          29.00        99.39
  222.43        2974.50           1558          23.00        73.23
  222.46        2974.75           1561          24.00        77.59
  222.48        2975.00           1565          24.00        77.59
  222.51        2975.25           1568          22.00        68.88
  222.54        2975.50           1571          30.00       103.75
  222.57        2975.75           1575          21.00        64.52
  222.59        2976.00           1578          23.00        73.23
  222.62        2976.25           1581          25.00        81.95
  222.65        2976.50           1585          22.00        68.88
  222.68        2976.75           1588          26.00        86.31
  222.70        2977.00           1591          22.00        68.88
  222.73        2977.25           1595          23.00        73.23
  222.76        2977.50           1598          21.00        64.52
  222.78        2977.75           1601          24.00        77.59
  222.81        2978.00           1605          25.00        81.95
  222.84        2978.25           1608          20.00        60.16
  222.87        2978.50           1611          15.00        38.36
  222.89        2978.75           1615          25.00        81.95
  222.92        2979.00           1618          20.00        60.16
  222.95        2979.25           1621          21.00        64.52
  222.98        2979.50           1625          19.00        55.80
  223.00        2979.75           1628          20.00        60.16
  223.03        2980.00           1631          22.00        68.88
  223.06        2980.25           1635          19.00        55.80
  223.08        2980.50           1638          25.00        81.95
  223.11        2980.75           1641          19.00        55.80
  223.14        2981.00           1645          17.00        47.08
  223.17        2981.25           1648          19.00        55.80
  223.19        2981.50           1651          16.00        42.72
  223.22        2981.75           1655          22.00        68.88
  223.25        2982.00           1658          21.00        64.52
  223.28        2982.25           1661          18.00        51.44
  223.30        2982.50           1665          15.00        38.36
  223.33        2982.75           1668          16.00        42.72
  223.36        2983.00           1671          21.00        64.52
  223.38        2983.25           1675          20.00        60.16
  223.41        2983.50           1678          20.00        60.16
  223.44        2983.75           1681          18.00        51.44
  223.47        2984.00           1685          15.00        38.36
HS scan finished at 03:43:39
end
