************************************************************
  HS Scan of (1) Internal mercury lamp
************************************************************
Integration time is 0.2294 seconds per sample
dh021017Tamanrasset 22.79-5.529 2.945236pr865
************************************************************
Dead Time -------------------------  2.8E-08 
Number of Cycles Used -------------  4 
Starting Wavelength (Angstroms) ---  2950 
Final Wavelength (Angstoms) -------  2984 
Wavelength Increment (Angstroms) --  .25 
Filter Wheel #1 Position ---------- (1) Ground quartz diffuser (ND=2.32)
Filter Wheel #2 Position ---------- (1) Neutral Density 0.494



************************************************************
HS scan start time = 03:42:47
Dark Count =  3.4 


Time (GMT)  Wavelength (Ang)  Step Number  Raw Counts  Counts/Second

  223.15        2950.00           1233          22.00        81.08
  223.21        2950.25           1236          17.00        59.29
  223.24        2950.50           1239          19.00        68.00
  223.27        2950.75           1242          19.00        68.00
  223.29        2951.00           1246          20.00        72.36
  223.32        2951.25           1249          16.00        54.93
  223.35        2951.50           1252          19.00        68.00
  223.38        2951.75           1256          17.00        59.29
  223.40        2952.00           1259          18.00        63.64
  223.43        2952.25           1262          21.00        76.72
  223.46        2952.50           1266          20.00        72.36
  223.49        2952.75           1269          26.00        98.52
  223.51        2953.00           1272          18.00        63.64
  223.54        2953.25           1276          22.00        81.08
  223.57        2953.50           1279          21.00        76.72
  223.60        2953.75           1282          18.00        63.64
  223.62        2954.00           1286          19.00        68.00
  223.65        2954.25           1289          20.00        72.36
  223.68        2954.50           1292          15.00        50.57
  223.70        2954.75           1295          19.00        68.00
  223.73        2955.00           1299          13.00        41.85
  223.76        2955.25           1302          17.00        59.29
  223.79        2955.50           1305          18.00        63.64
  223.81        2955.75           1309          20.00        72.36
  223.84        2956.00           1312          20.00        72.36
  223.87        2956.25           1315          19.00        68.00
  223.90        2956.50           1319          17.00        59.29
  223.92        2956.75           1322          20.00        72.36
  223.95        2957.00           1325          20.00        72.36
  223.98        2957.25           1329          20.00        72.36
  224.00        2957.50           1332          17.00        59.29
  224.03        2957.75           1335          20.00        72.36
  224.06        2958.00           1339          19.00        68.00
  224.09        2958.25           1342          23.00        85.44
  224.11        2958.50           1345          15.00        50.57
  224.14        2958.75           1348          18.00        63.64
  224.17        2959.00           1352          14.00        46.21
  224.20        2959.25           1355          21.00        76.72
  224.22        2959.50           1358          21.00        76.72
  224.25        2959.75           1362          21.00        76.72
  224.28        2960.00           1365          19.00        68.00
  224.31        2960.25           1368          22.00        81.08
  224.33        2960.50           1372          33.00       129.03
  224.36        2960.75           1375          40.00       159.55
  224.39        2961.00           1378          66.00       272.89
  224.41        2961.25           1382         410.00      1772.54
  224.44        2961.50           1385        1054.00      4580.36
  224.47        2961.75           1388        2158.00      9394.80
  224.50        2962.00           1392        4526.00     19725.80
  224.52        2962.25           1395        6859.00     29909.96
  224.55        2962.50           1398        9390.00     40965.01
  224.58        2962.75           1402       12760.00     55695.33
  224.61        2963.00           1405       15176.00     66263.20
  224.63        2963.25           1408       18044.00     78816.29
  224.66        2963.50           1412       21446.00     93718.15
  224.69        2963.75           1415       23781.00    103953.40
  224.72        2964.00           1418       26379.00    115348.40
  224.74        2964.25           1422       29865.00    130649.70
  224.77        2964.50           1425       32442.00    141969.50
  224.80        2964.75           1428       35355.00    154773.90
  224.83        2965.00           1431       37725.00    165198.30
  224.85        2965.25           1435       41605.00    182277.60
  224.88        2965.50           1438       44511.00    195080.10
  224.91        2965.75           1441       46901.00    205616.30
  224.94        2966.00           1445       50264.00    220452.50
  224.96        2966.25           1448       52750.00    231427.70
  224.99        2966.50           1451       54504.00    239175.30
  225.02        2966.75           1455       56214.00    246731.80
  225.05        2967.00           1458       56743.00    249070.10
  225.07        2967.25           1461       57161.00    250918.00
  225.10        2967.50           1465       56673.00    248760.70
  225.13        2967.75           1468       56630.00    248570.60
  225.16        2968.00           1471       55879.00    245251.20
  225.18        2968.25           1475       53801.00    236069.70
  225.21        2968.50           1478       51565.00    226195.30
  225.24        2968.75           1481       49006.00    214901.30
  225.27        2969.00           1485       45467.00    199293.90
  225.29        2969.25           1488       42600.00    186660.10
  225.32        2969.50           1491       39902.00    174779.20
  225.35        2969.75           1495       36457.00    159620.30
  225.38        2970.00           1498       33680.00    147410.10
  225.40        2970.25           1501       30789.00    134707.70
  225.43        2970.50           1505       27123.00    118613.00
  225.46        2970.75           1508       24555.00    107347.50
  225.49        2971.00           1511       22028.00     96268.74
  225.51        2971.25           1515       18486.00     80751.69
  225.54        2971.50           1518       15551.00     67904.05
  225.57        2971.75           1521       13134.00     57330.85
  225.59        2972.00           1525        9671.00     42192.80
  225.62        2972.25           1528        7087.00     30905.55
  225.65        2972.50           1531        4720.00     20572.44
  225.68        2972.75           1535        2212.00      9630.32
  225.70        2973.00           1538         935.00      4061.49
  225.73        2973.25           1541         318.00      1371.46
  225.76        2973.50           1545          72.00       299.04
  225.79        2973.75           1548          42.00       168.27
  225.81        2974.00           1551          28.00       107.24
  225.84        2974.25           1555          31.00       120.31
  225.87        2974.50           1558          23.00        85.44
  225.90        2974.75           1561          20.00        72.36
  225.92        2975.00           1565          22.00        81.08
  225.95        2975.25           1568          24.00        89.80
  225.98        2975.50           1571          25.00        94.16
  226.00        2975.75           1575          24.00        89.80
  226.03        2976.00           1578          20.00        72.36
  226.06        2976.25           1581          21.00        76.72
  226.09        2976.50           1585          25.00        94.16
  226.11        2976.75           1588          20.00        72.36
  226.14        2977.00           1591          20.00        72.36
  226.17        2977.25           1595          21.00        76.72
  226.20        2977.50           1598          22.00        81.08
  226.22        2977.75           1601          20.00        72.36
  226.25        2978.00           1605          24.00        89.80
  226.28        2978.25           1608          18.00        63.64
  226.31        2978.50           1611          17.00        59.29
  226.33        2978.75           1615          22.00        81.08
  226.36        2979.00           1618          19.00        68.00
  226.39        2979.25           1621          16.00        54.93
  226.42        2979.50           1625          18.00        63.64
  226.44        2979.75           1628          21.00        76.72
  226.47        2980.00           1631          19.00        68.00
  226.50        2980.25           1635          20.00        72.36
  226.53        2980.50           1638          28.00       107.24
  226.55        2980.75           1641          19.00        68.00
  226.58        2981.00           1645          26.00        98.52
  226.61        2981.25           1648          20.00        72.36
  226.63        2981.50           1651          23.00        85.44
  226.66        2981.75           1655          17.00        59.29
  226.69        2982.00           1658          15.00        50.57
  226.72        2982.25           1661          19.00        68.00
  226.74        2982.50           1665          15.00        50.57
  226.77        2982.75           1668          22.00        81.08
  226.80        2983.00           1671          23.00        85.44
  226.83        2983.25           1675          20.00        72.36
  226.85        2983.50           1678          19.00        68.00
  226.88        2983.75           1681          19.00        68.00
  226.91        2984.00           1685          21.00        76.72
HS scan finished at 03:47:06
end
