************************************************************
  HS Scan of (1) Internal mercury lamp
************************************************************
Integration time is 0.2294 seconds per sample
dh280918Tamanrasset 22.79-5.529 4.974364pr865
************************************************************
Dead Time -------------------------  2.8E-08 
Number of Cycles Used -------------  4 
Starting Wavelength (Angstroms) ---  2950 
Final Wavelength (Angstoms) -------  2984 
Wavelength Increment (Angstroms) --  .25 
Filter Wheel #1 Position ---------- (1) Ground quartz diffuser (ND=2.32)
Filter Wheel #2 Position ---------- (1) Neutral Density 0.494



************************************************************
HS scan start time = 03:40:48
Dark Count =  4.4 


Time (GMT)  Wavelength (Ang)  Step Number  Raw Counts  Counts/Second

  221.16        2950.00           1233          20.00        68.00
  221.22        2950.25           1236          25.00        89.80
  221.25        2950.50           1239          22.00        76.72
  221.28        2950.75           1242          17.00        54.93
  221.31        2951.00           1246          20.00        68.00
  221.33        2951.25           1249          17.00        54.93
  221.36        2951.50           1252          20.00        68.00
  221.39        2951.75           1256          19.00        63.64
  221.41        2952.00           1259          17.00        54.93
  221.44        2952.25           1262          18.00        59.29
  221.47        2952.50           1266          16.00        50.57
  221.50        2952.75           1269          20.00        68.00
  221.52        2953.00           1272          17.00        54.93
  221.55        2953.25           1276          21.00        72.36
  221.58        2953.50           1279          20.00        68.00
  221.60        2953.75           1282          20.00        68.00
  221.63        2954.00           1286          24.00        85.44
  221.66        2954.25           1289          17.00        54.93
  221.69        2954.50           1292          19.00        63.64
  221.71        2954.75           1295          17.00        54.93
  221.74        2955.00           1299          19.00        63.64
  221.77        2955.25           1302          19.00        63.64
  221.79        2955.50           1305          22.00        76.72
  221.82        2955.75           1309          19.00        63.64
  221.85        2956.00           1312          18.00        59.29
  221.88        2956.25           1315          17.00        54.93
  221.90        2956.50           1319          17.00        54.93
  221.93        2956.75           1322          19.00        63.64
  221.96        2957.00           1325          19.00        63.64
  221.98        2957.25           1329          17.00        54.93
  222.01        2957.50           1332          19.00        63.64
  222.04        2957.75           1335          17.00        54.93
  222.07        2958.00           1339          20.00        68.00
  222.09        2958.25           1342          21.00        72.36
  222.12        2958.50           1345          15.00        46.21
  222.15        2958.75           1348          22.00        76.72
  222.17        2959.00           1352          24.00        85.44
  222.20        2959.25           1355          23.00        81.08
  222.23        2959.50           1358          20.00        68.00
  222.26        2959.75           1362          22.00        76.72
  222.28        2960.00           1365          24.00        85.44
  222.31        2960.25           1368          30.00       111.60
  222.34        2960.50           1372          29.00       107.24
  222.36        2960.75           1375          42.00       163.91
  222.39        2961.00           1378          85.00       351.35
  222.42        2961.25           1382         446.00      1925.13
  222.45        2961.50           1385        1140.00      4950.99
  222.47        2961.75           1388        2411.00     10493.93
  222.50        2962.00           1392        5137.00     22388.05
  222.53        2962.25           1395        7700.00     33578.20
  222.55        2962.50           1398       10397.00     45360.98
  222.58        2962.75           1402       13835.00     60392.36
  222.61        2963.00           1405       16564.00     72332.93
  222.64        2963.25           1408       19484.00     85118.05
  222.66        2963.50           1412       22830.00     99779.69
  222.69        2963.75           1415       25437.00    111211.50
  222.72        2964.00           1418       28418.00    124292.30
  222.75        2964.25           1422       31857.00    139394.80
  222.77        2964.50           1425       34536.00    151168.60
  222.80        2964.75           1428       37573.00    164525.10
  222.83        2965.00           1431       40327.00    176645.80
  222.86        2965.25           1435       44146.00    193467.20
  222.88        2965.50           1438       46924.00    205713.30
  222.91        2965.75           1441       49484.00    217006.00
  222.94        2966.00           1445       53391.00    234254.30
  222.96        2966.25           1448       55709.00    244495.50
  222.99        2966.50           1451       57647.00    253062.30
  223.02        2966.75           1455       59457.00    261067.10
  223.05        2967.00           1458       60009.00    263509.00
  223.07        2967.25           1461       60339.00    264969.00
  223.10        2967.50           1465       60078.00    263814.30
  223.13        2967.75           1468       59693.00    262111.10
  223.16        2968.00           1471       58707.00    257749.80
  223.18        2968.25           1475       56665.00    248720.90
  223.21        2968.50           1478       54411.00    238760.00
  223.24        2968.75           1481       51474.00    225789.20
  223.26        2969.00           1485       47961.00    210286.90
  223.29        2969.25           1488       44924.00    196896.00
  223.32        2969.50           1491       41878.00    183475.50
  223.35        2969.75           1495       37949.00    166179.50
  223.37        2970.00           1498       35055.00    153450.40
  223.40        2970.25           1501       32427.00    141899.20
  223.43        2970.50           1505       28377.00    124112.30
  223.46        2970.75           1508       25522.00    111584.40
  223.48        2971.00           1511       22791.00     99608.72
  223.51        2971.25           1515       19115.00     83501.90
  223.54        2971.50           1518       16447.00     71820.83
  223.57        2971.75           1521       13739.00     59972.46
  223.59        2972.00           1525        9874.00     43075.46
  223.62        2972.25           1528        7060.00     30783.28
  223.65        2972.50           1531        4851.00     21139.80
  223.68        2972.75           1535        2086.00      9076.41
  223.70        2973.00           1538         862.00      3738.84
  223.73        2973.25           1541         245.00      1048.85
  223.76        2973.50           1545          68.00       277.25
  223.79        2973.75           1548          39.00       150.83
  223.81        2974.00           1551          33.00       124.67
  223.84        2974.25           1555          26.00        94.16
  223.87        2974.50           1558          27.00        98.52
  223.89        2974.75           1561          23.00        81.08
  223.92        2975.00           1565          18.00        59.29
  223.95        2975.25           1568          26.00        94.16
  223.98        2975.50           1571          22.00        76.72
  224.00        2975.75           1575          22.00        76.72
  224.03        2976.00           1578          18.00        59.29
  224.06        2976.25           1581          20.00        68.00
  224.08        2976.50           1585          18.00        59.29
  224.11        2976.75           1588          21.00        72.36
  224.14        2977.00           1591          19.00        63.64
  224.17        2977.25           1595          20.00        68.00
  224.19        2977.50           1598          20.00        68.00
  224.22        2977.75           1601          29.00       107.24
  224.25        2978.00           1605          21.00        72.36
  224.27        2978.25           1608          25.00        89.80
  224.30        2978.50           1611          20.00        68.00
  224.33        2978.75           1615          24.00        85.44
  224.36        2979.00           1618          23.00        81.08
  224.38        2979.25           1621          24.00        85.44
  224.41        2979.50           1625          22.00        76.72
  224.44        2979.75           1628          22.00        76.72
  224.46        2980.00           1631          21.00        72.36
  224.49        2980.25           1635          19.00        63.64
  224.52        2980.50           1638          24.00        85.44
  224.55        2980.75           1641          26.00        94.16
  224.57        2981.00           1645          24.00        85.44
  224.60        2981.25           1648          24.00        85.44
  224.63        2981.50           1651          22.00        76.72
  224.65        2981.75           1655          22.00        76.72
  224.68        2982.00           1658          20.00        68.00
  224.71        2982.25           1661          20.00        68.00
  224.74        2982.50           1665          22.00        76.72
  224.76        2982.75           1668          19.00        63.64
  224.79        2983.00           1671          14.00        41.85
  224.82        2983.25           1675          17.00        54.93
  224.84        2983.50           1678          19.00        63.64
  224.87        2983.75           1681          22.00        76.72
  224.90        2984.00           1685          25.00        89.80
HS scan finished at 03:45:05
end
