************************************************************
  HS Scan of (1) Internal mercury lamp
************************************************************
Integration time is 0.2294 seconds per sample
dh041018Tamanrasset 22.79-5.529 4.974364pr865
************************************************************
Dead Time -------------------------  2.8E-08 
Number of Cycles Used -------------  4 
Starting Wavelength (Angstroms) ---  2950 
Final Wavelength (Angstoms) -------  2984 
Wavelength Increment (Angstroms) --  .25 
Filter Wheel #1 Position ---------- (1) Ground quartz diffuser (ND=2.32)
Filter Wheel #2 Position ---------- (1) Neutral Density 0.494



************************************************************
HS scan start time = 03:43:17
Dark Count =  4.7 


Time (GMT)  Wavelength (Ang)  Step Number  Raw Counts  Counts/Second

  223.64        2950.00           1233          19.00        62.34
  223.70        2950.25           1236          22.00        75.41
  223.73        2950.50           1239          21.00        71.06
  223.76        2950.75           1242          23.00        79.77
  223.79        2951.00           1246          23.00        79.77
  223.81        2951.25           1249          22.00        75.41
  223.84        2951.50           1252          20.00        66.70
  223.87        2951.75           1256          19.00        62.34
  223.89        2952.00           1259          16.00        49.26
  223.92        2952.25           1262          19.00        62.34
  223.95        2952.50           1266          20.00        66.70
  223.98        2952.75           1269          20.00        66.70
  224.00        2953.00           1272          17.00        53.62
  224.03        2953.25           1276          18.00        57.98
  224.06        2953.50           1279          23.00        79.77
  224.09        2953.75           1282          23.00        79.77
  224.11        2954.00           1286          21.00        71.06
  224.14        2954.25           1289          21.00        71.06
  224.17        2954.50           1292          18.00        57.98
  224.19        2954.75           1295          18.00        57.98
  224.22        2955.00           1299          21.00        71.06
  224.25        2955.25           1302          17.00        53.62
  224.28        2955.50           1305          19.00        62.34
  224.30        2955.75           1309          17.00        53.62
  224.33        2956.00           1312          21.00        71.06
  224.36        2956.25           1315          25.00        88.49
  224.38        2956.50           1319          20.00        66.70
  224.41        2956.75           1322          16.00        49.26
  224.44        2957.00           1325          24.00        84.13
  224.47        2957.25           1329          19.00        62.34
  224.49        2957.50           1332          17.00        53.62
  224.52        2957.75           1335          18.00        57.98
  224.55        2958.00           1339          19.00        62.34
  224.57        2958.25           1342          16.00        49.26
  224.60        2958.50           1345          20.00        66.70
  224.63        2958.75           1348          20.00        66.70
  224.66        2959.00           1352          18.00        57.98
  224.68        2959.25           1355          22.00        75.41
  224.71        2959.50           1358          27.00        97.21
  224.74        2959.75           1362          19.00        62.34
  224.76        2960.00           1365          25.00        88.49
  224.79        2960.25           1368          25.00        88.49
  224.82        2960.50           1372          30.00       110.29
  224.85        2960.75           1375          34.00       127.72
  224.87        2961.00           1378          95.00       393.64
  224.90        2961.25           1382         478.00      2063.33
  224.93        2961.50           1385        1167.00      5067.42
  224.95        2961.75           1388        2371.00     10318.15
  224.98        2962.00           1392        4977.00     21688.41
  225.01        2962.25           1395        7079.00     30864.94
  225.04        2962.50           1398        9723.00     42414.33
  225.06        2962.75           1402       13022.00     56835.37
  225.09        2963.00           1405       15517.00     67749.59
  225.12        2963.25           1408       18007.00     78648.60
  225.15        2963.50           1412       21379.00     93418.85
  225.17        2963.75           1415       23823.00    104131.90
  225.20        2964.00           1418       26323.00    115097.00
  225.23        2964.25           1422       29507.00    129072.00
  225.26        2964.50           1425       32004.00    140039.30
  225.28        2964.75           1428       34744.00    152081.70
  225.31        2965.00           1431       37335.00    163476.80
  225.34        2965.25           1435       40680.00    178198.60
  225.37        2965.50           1438       43367.00    190033.30
  225.39        2965.75           1441       46092.00    202043.50
  225.42        2966.00           1445       49253.00    215985.40
  225.45        2966.25           1448       51354.00    225258.10
  225.48        2966.50           1451       53030.00    232658.50
  225.50        2966.75           1455       54457.00    238961.90
  225.53        2967.00           1458       55072.00    241679.20
  225.56        2967.25           1461       55240.00    242421.60
  225.58        2967.50           1465       54918.00    240998.70
  225.61        2967.75           1468       54837.00    240640.90
  225.64        2968.00           1471       53722.00    235715.00
  225.67        2968.25           1475       51755.00    227028.40
  225.69        2968.50           1478       49650.00    217737.20
  225.72        2968.75           1481       46916.00    205676.70
  225.75        2969.00           1485       43688.00    191447.70
  225.78        2969.25           1488       40811.00    178775.40
  225.80        2969.50           1491       38171.00    167155.00
  225.83        2969.75           1495       34801.00    152332.30
  225.86        2970.00           1498       31871.00    139455.00
  225.89        2970.25           1501       29373.00    128483.60
  225.91        2970.50           1505       25938.00    113407.90
  225.94        2970.75           1508       23170.00    101268.90
  225.97        2971.00           1511       20705.00     90465.58
  225.99        2971.25           1515       17477.00     76328.18
  226.02        2971.50           1518       14670.00     64043.69
  226.05        2971.75           1521       12217.00     53315.37
  226.08        2972.00           1525        8912.00     38870.97
  226.10        2972.25           1528        6465.00     28183.96
  226.13        2972.50           1531        4283.00     18659.70
  226.16        2972.75           1535        1949.00      8477.60
  226.19        2973.00           1538         784.00      3397.45
  226.21        2973.25           1541         256.00      1095.50
  226.24        2973.50           1545          67.00       271.58
  226.27        2973.75           1548          41.00       158.24
  226.29        2974.00           1551          35.00       132.08
  226.32        2974.25           1555          30.00       110.29
  226.35        2974.50           1558          23.00        79.77
  226.38        2974.75           1561          20.00        66.70
  226.40        2975.00           1565          25.00        88.49
  226.43        2975.25           1568          21.00        71.06
  226.46        2975.50           1571          24.00        84.13
  226.48        2975.75           1575          20.00        66.70
  226.51        2976.00           1578          23.00        79.77
  226.54        2976.25           1581          22.00        75.41
  226.57        2976.50           1585          20.00        66.70
  226.59        2976.75           1588          20.00        66.70
  226.62        2977.00           1591          20.00        66.70
  226.65        2977.25           1595          25.00        88.49
  226.67        2977.50           1598          11.00        27.46
  226.70        2977.75           1601          26.00        92.85
  226.73        2978.00           1605          21.00        71.06
  226.76        2978.25           1608          23.00        79.77
  226.78        2978.50           1611          21.00        71.06
  226.81        2978.75           1615          25.00        88.49
  226.84        2979.00           1618          24.00        84.13
  226.86        2979.25           1621          17.00        53.62
  226.89        2979.50           1625          23.00        79.77
  226.92        2979.75           1628          21.00        71.06
  226.95        2980.00           1631          20.00        66.70
  226.97        2980.25           1635          19.00        62.34
  227.00        2980.50           1638          22.00        75.41
  227.03        2980.75           1641          18.00        57.98
  227.05        2981.00           1645          19.00        62.34
  227.08        2981.25           1648          20.00        66.70
  227.11        2981.50           1651          19.00        62.34
  227.14        2981.75           1655          23.00        79.77
  227.16        2982.00           1658          23.00        79.77
  227.19        2982.25           1661          19.00        62.34
  227.22        2982.50           1665          22.00        75.41
  227.24        2982.75           1668          18.00        57.98
  227.27        2983.00           1671          17.00        53.62
  227.30        2983.25           1675          17.00        53.62
  227.33        2983.50           1678          16.00        49.26
  227.35        2983.75           1681          20.00        66.70
  227.38        2984.00           1685          19.00        62.34
HS scan finished at 03:47:34
end
