************************************************************
  HS Scan of (1) Internal mercury lamp
************************************************************
Integration time is 0.2294 seconds per sample
dh051018Tamanrasset 22.79-5.529 4.974364pr865
************************************************************
Dead Time -------------------------  2.8E-08 
Number of Cycles Used -------------  4 
Starting Wavelength (Angstroms) ---  2950 
Final Wavelength (Angstoms) -------  2984 
Wavelength Increment (Angstroms) --  .25 
Filter Wheel #1 Position ---------- (1) Ground quartz diffuser (ND=2.32)
Filter Wheel #2 Position ---------- (1) Neutral Density 0.494



************************************************************
HS scan start time = 03:42:50
Dark Count =  2.5 


Time (GMT)  Wavelength (Ang)  Step Number  Raw Counts  Counts/Second

  223.19        2950.00           1233          18.00        67.57
  223.26        2950.25           1236          20.00        76.29
  223.28        2950.50           1239          18.00        67.57
  223.31        2950.75           1242          21.00        80.65
  223.34        2951.00           1246          16.00        58.85
  223.36        2951.25           1249          22.00        85.00
  223.39        2951.50           1252          23.00        89.36
  223.42        2951.75           1256          17.00        63.21
  223.45        2952.00           1259          19.00        71.93
  223.47        2952.25           1262          17.00        63.21
  223.50        2952.50           1266          20.00        76.29
  223.53        2952.75           1269          20.00        76.29
  223.55        2953.00           1272          17.00        63.21
  223.58        2953.25           1276          20.00        76.29
  223.61        2953.50           1279          20.00        76.29
  223.64        2953.75           1282          20.00        76.29
  223.66        2954.00           1286          21.00        80.65
  223.69        2954.25           1289          21.00        80.65
  223.72        2954.50           1292          20.00        76.29
  223.75        2954.75           1295          18.00        67.57
  223.77        2955.00           1299          15.00        54.49
  223.80        2955.25           1302          18.00        67.57
  223.83        2955.50           1305          18.00        67.57
  223.85        2955.75           1309          20.00        76.29
  223.88        2956.00           1312          19.00        71.93
  223.91        2956.25           1315          18.00        67.57
  223.94        2956.50           1319          19.00        71.93
  223.96        2956.75           1322          22.00        85.00
  223.99        2957.00           1325          21.00        80.65
  224.02        2957.25           1329          19.00        71.93
  224.04        2957.50           1332          21.00        80.65
  224.07        2957.75           1335          21.00        80.65
  224.10        2958.00           1339          21.00        80.65
  224.13        2958.25           1342          22.00        85.00
  224.15        2958.50           1345          20.00        76.29
  224.18        2958.75           1348          24.00        93.72
  224.21        2959.00           1352          22.00        85.00
  224.23        2959.25           1355          21.00        80.65
  224.26        2959.50           1358          18.00        67.57
  224.29        2959.75           1362          23.00        89.36
  224.32        2960.00           1365          23.00        89.36
  224.34        2960.25           1368          23.00        89.36
  224.37        2960.50           1372          28.00       111.16
  224.40        2960.75           1375          35.00       141.67
  224.43        2961.00           1378         101.00       429.39
  224.45        2961.25           1382         461.00      1998.80
  224.48        2961.50           1385        1226.00      5334.28
  224.51        2961.75           1388        2355.00     10257.96
  224.53        2962.00           1392        4878.00     21265.93
  224.56        2962.25           1395        7204.00     31420.39
  224.59        2962.50           1398        9812.00     42812.85
  224.62        2962.75           1402       13100.00     57186.10
  224.64        2963.00           1405       15436.00     67404.78
  224.67        2963.25           1408       17818.00     77830.72
  224.70        2963.50           1412       21180.00     92556.47
  224.72        2963.75           1415       23737.00    103764.40
  224.75        2964.00           1418       26480.00    115795.50
  224.78        2964.25           1422       29846.00    130570.20
  224.81        2964.50           1425       32256.00    141156.20
  224.83        2964.75           1428       35092.00    153621.40
  224.86        2965.00           1431       37407.00    163803.20
  224.89        2965.25           1435       40712.00    178349.20
  224.92        2965.50           1438       43510.00    190673.10
  224.94        2965.75           1441       45781.00    200682.00
  224.97        2966.00           1445       49617.00    217601.20
  225.00        2966.25           1448       51818.00    227316.30
  225.02        2966.50           1451       53593.00    235154.90
  225.05        2966.75           1455       54838.00    240655.00
  225.08        2967.00           1458       55322.00    242793.60
  225.11        2967.25           1461       55490.00    243536.00
  225.13        2967.50           1465       55362.00    242970.40
  225.16        2967.75           1468       54900.00    240928.90
  225.19        2968.00           1471       53928.00    236634.70
  225.22        2968.25           1475       51763.00    227073.40
  225.24        2968.50           1478       49740.00    218144.00
  225.27        2968.75           1481       47262.00    207212.30
  225.30        2969.00           1485       43734.00    191660.10
  225.32        2969.25           1488       40897.00    179163.80
  225.35        2969.50           1491       38406.00    168198.80
  225.38        2969.75           1495       34513.00    151075.80
  225.41        2970.00           1498       32006.00    140057.80
  225.43        2970.25           1501       29338.00    128339.60
  225.46        2970.50           1505       25663.00    112211.20
  225.49        2970.75           1508       22943.00    100283.40
  225.52        2971.00           1511       20306.00     88727.13
  225.54        2971.25           1515       16983.00     74175.25
  225.57        2971.50           1518       14417.00     62946.51
  225.60        2971.75           1521       11764.00     51344.48
  225.63        2972.00           1525        8520.00     37168.13
  225.65        2972.25           1528        6057.00     26412.29
  225.68        2972.50           1531        3768.00     16422.11
  225.71        2972.75           1535        1599.00      6960.82
  225.74        2973.00           1538         581.00      2521.97
  225.76        2973.25           1541         179.00       769.42
  225.79        2973.50           1545          52.00       215.78
  225.82        2973.75           1548          41.00       167.83
  225.84        2974.00           1551          35.00       141.67
  225.87        2974.25           1555          32.00       128.60
  225.90        2974.50           1558          24.00        93.72
  225.93        2974.75           1561          21.00        80.65
  225.95        2975.00           1565          20.00        76.29
  225.98        2975.25           1568          23.00        89.36
  226.01        2975.50           1571          21.00        80.65
  226.03        2975.75           1575          23.00        89.36
  226.06        2976.00           1578          21.00        80.65
  226.09        2976.25           1581          19.00        71.93
  226.11        2976.50           1585          24.00        93.72
  226.14        2976.75           1588          22.00        85.00
  226.17        2977.00           1591          25.00        98.08
  226.20        2977.25           1595          24.00        93.72
  226.22        2977.50           1598          18.00        67.57
  226.25        2977.75           1601          19.00        71.93
  226.28        2978.00           1605          19.00        71.93
  226.31        2978.25           1608          22.00        85.00
  226.33        2978.50           1611          20.00        76.29
  226.36        2978.75           1615          21.00        80.65
  226.39        2979.00           1618          25.00        98.08
  226.41        2979.25           1621          15.00        54.49
  226.44        2979.50           1625          18.00        67.57
  226.47        2979.75           1628          17.00        63.21
  226.50        2980.00           1631          23.00        89.36
  226.52        2980.25           1635          21.00        80.65
  226.55        2980.50           1638          21.00        80.65
  226.58        2980.75           1641          16.00        58.85
  226.60        2981.00           1645          18.00        67.57
  226.63        2981.25           1648          25.00        98.08
  226.66        2981.50           1651          19.00        71.93
  226.69        2981.75           1655          22.00        85.00
  226.71        2982.00           1658          22.00        85.00
  226.74        2982.25           1661          19.00        71.93
  226.77        2982.50           1665          17.00        63.21
  226.80        2982.75           1668          23.00        89.36
  226.82        2983.00           1671          21.00        80.65
  226.85        2983.25           1675          19.00        71.93
  226.88        2983.50           1678          21.00        80.65
  226.90        2983.75           1681          18.00        67.57
  226.93        2984.00           1685          23.00        89.36
HS scan finished at 03:47:07
end
