************************************************************
  HS Scan of (1) Internal mercury lamp
************************************************************
Integration time is 0.2294 seconds per sample
dh011018Tamanrasset 22.79-5.529 4.974364pr865
************************************************************
Dead Time -------------------------  2.8E-08 
Number of Cycles Used -------------  4 
Starting Wavelength (Angstroms) ---  2950 
Final Wavelength (Angstoms) -------  2984 
Wavelength Increment (Angstroms) --  .25 
Filter Wheel #1 Position ---------- (1) Ground quartz diffuser (ND=2.32)
Filter Wheel #2 Position ---------- (1) Neutral Density 0.494



************************************************************
HS scan start time = 03:41:15
Dark Count =  5 


Time (GMT)  Wavelength (Ang)  Step Number  Raw Counts  Counts/Second

  221.61        2950.00           1233          20.00        65.39
  221.67        2950.25           1236          20.00        65.39
  221.70        2950.50           1239          20.00        65.39
  221.73        2950.75           1242          20.00        65.39
  221.75        2951.00           1246          20.00        65.39
  221.78        2951.25           1249          19.00        61.03
  221.81        2951.50           1252          21.00        69.75
  221.84        2951.75           1256          14.00        39.23
  221.86        2952.00           1259          20.00        65.39
  221.89        2952.25           1262          21.00        69.75
  221.92        2952.50           1266          21.00        69.75
  221.94        2952.75           1269          19.00        61.03
  221.97        2953.00           1272          21.00        69.75
  222.00        2953.25           1276          20.00        65.39
  222.03        2953.50           1279          18.00        56.67
  222.05        2953.75           1282          20.00        65.39
  222.08        2954.00           1286          22.00        74.11
  222.11        2954.25           1289          16.00        47.95
  222.14        2954.50           1292          18.00        56.67
  222.16        2954.75           1295          20.00        65.39
  222.19        2955.00           1299          24.00        82.82
  222.22        2955.25           1302          24.00        82.82
  222.24        2955.50           1305          19.00        61.03
  222.27        2955.75           1309          22.00        74.11
  222.30        2956.00           1312          24.00        82.82
  222.33        2956.25           1315          17.00        52.31
  222.35        2956.50           1319          17.00        52.31
  222.38        2956.75           1322          25.00        87.18
  222.41        2957.00           1325          22.00        74.11
  222.43        2957.25           1329          23.00        78.47
  222.46        2957.50           1332          20.00        65.39
  222.49        2957.75           1335          23.00        78.47
  222.52        2958.00           1339          19.00        61.03
  222.54        2958.25           1342          17.00        52.31
  222.57        2958.50           1345          24.00        82.82
  222.60        2958.75           1348          17.00        52.31
  222.62        2959.00           1352          15.00        43.59
  222.65        2959.25           1355          18.00        56.67
  222.68        2959.50           1358          24.00        82.82
  222.71        2959.75           1362          20.00        65.39
  222.73        2960.00           1365          21.00        69.75
  222.76        2960.25           1368          28.00       100.26
  222.79        2960.50           1372          29.00       104.62
  222.81        2960.75           1375          38.00       143.85
  222.84        2961.00           1378          92.00       379.25
  222.87        2961.25           1382         442.00      1905.07
  222.90        2961.50           1385        1140.00      4948.38
  222.92        2961.75           1388        2449.00     10657.06
  222.95        2962.00           1392        5094.00     22197.75
  222.98        2962.25           1395        7802.00     34021.06
  223.00        2962.50           1398       10640.00     46420.37
  223.03        2962.75           1402       13782.00     60157.92
  223.06        2963.00           1405       16941.00     73980.47
  223.09        2963.25           1408       19589.00     85575.33
  223.11        2963.50           1412       23449.00    102490.70
  223.14        2963.75           1415       26068.00    113977.00
  223.17        2964.00           1418       29132.00    127424.20
  223.20        2964.25           1422       32762.00    143368.60
  223.22        2964.50           1425       35428.00    155087.90
  223.25        2964.75           1428       38631.00    169177.90
  223.28        2965.00           1431       41209.00    180526.60
  223.31        2965.25           1435       45252.00    198339.10
  223.33        2965.50           1438       48183.00    211263.50
  223.36        2965.75           1441       50988.00    223641.10
  223.39        2966.00           1445       54521.00    239243.30
  223.42        2966.25           1448       57222.00    251180.60
  223.44        2966.50           1451       59030.00    259175.70
  223.47        2966.75           1455       60792.00    266970.80
  223.50        2967.00           1458       61374.00    269546.30
  223.53        2967.25           1461       61777.00    271330.00
  223.55        2967.50           1465       61563.00    270382.80
  223.58        2967.75           1468       61190.00    268732.00
  223.61        2968.00           1471       60150.00    264130.20
  223.64        2968.25           1475       58244.00    255699.50
  223.66        2968.50           1478       55469.00    243432.20
  223.69        2968.75           1481       52652.00    230987.80
  223.72        2969.00           1485       49050.00    215088.40
  223.74        2969.25           1488       45844.00    200948.80
  223.77        2969.50           1491       42864.00    187816.00
  223.80        2969.75           1495       38863.00    170198.90
  223.83        2970.00           1498       35809.00    156763.30
  223.85        2970.25           1501       32958.00    144229.90
  223.88        2970.50           1505       28847.00    126173.00
  223.91        2970.75           1508       26276.00    114889.50
  223.94        2971.00           1511       23370.00    102144.40
  223.96        2971.25           1515       19566.00     85474.59
  223.99        2971.50           1518       16522.00     72146.47
  224.02        2971.75           1521       13954.00     60910.25
  224.05        2972.00           1525       10204.00     44514.91
  224.07        2972.25           1528        7251.00     31614.72
  224.10        2972.50           1531        4767.00     20770.58
  224.13        2972.75           1535        1959.00      8519.90
  224.16        2973.00           1538         785.00      3400.50
  224.18        2973.25           1541         259.00      1107.27
  224.21        2973.50           1545          53.00       209.24
  224.24        2973.75           1548          37.00       139.49
  224.26        2974.00           1551          36.00       135.14
  224.29        2974.25           1555          34.00       126.42
  224.32        2974.50           1558          23.00        78.47
  224.35        2974.75           1561          22.00        74.11
  224.37        2975.00           1565          21.00        69.75
  224.40        2975.25           1568          19.00        61.03
  224.43        2975.50           1571          22.00        74.11
  224.45        2975.75           1575          20.00        65.39
  224.48        2976.00           1578          18.00        56.67
  224.51        2976.25           1581          25.00        87.18
  224.54        2976.50           1585          25.00        87.18
  224.56        2976.75           1588          24.00        82.82
  224.59        2977.00           1591          20.00        65.39
  224.62        2977.25           1595          19.00        61.03
  224.64        2977.50           1598          22.00        74.11
  224.67        2977.75           1601          24.00        82.82
  224.70        2978.00           1605          22.00        74.11
  224.73        2978.25           1608          21.00        69.75
  224.75        2978.50           1611          22.00        74.11
  224.78        2978.75           1615          25.00        87.18
  224.81        2979.00           1618          21.00        69.75
  224.84        2979.25           1621          25.00        87.18
  224.86        2979.50           1625          21.00        69.75
  224.89        2979.75           1628          21.00        69.75
  224.92        2980.00           1631          24.00        82.82
  224.94        2980.25           1635          24.00        82.82
  224.97        2980.50           1638          20.00        65.39
  225.00        2980.75           1641          24.00        82.82
  225.03        2981.00           1645          26.00        91.54
  225.05        2981.25           1648          18.00        56.67
  225.08        2981.50           1651          22.00        74.11
  225.11        2981.75           1655          16.00        47.95
  225.13        2982.00           1658          19.00        61.03
  225.16        2982.25           1661          19.00        61.03
  225.19        2982.50           1665          20.00        65.39
  225.22        2982.75           1668          19.00        61.03
  225.24        2983.00           1671          17.00        52.31
  225.27        2983.25           1675          20.00        65.39
  225.30        2983.50           1678          17.00        52.31
  225.32        2983.75           1681          21.00        69.75
  225.35        2984.00           1685          17.00        52.31
HS scan finished at 03:45:32
end
