************************************************************
  HS Scan of (1) Internal mercury lamp
************************************************************
Integration time is 0.2294 seconds per sample
dh300918Tamanrasset 22.79-5.529 4.974364pr865
************************************************************
Dead Time -------------------------  2.8E-08 
Number of Cycles Used -------------  4 
Starting Wavelength (Angstroms) ---  2950 
Final Wavelength (Angstoms) -------  2984 
Wavelength Increment (Angstroms) --  .25 
Filter Wheel #1 Position ---------- (1) Ground quartz diffuser (ND=2.32)
Filter Wheel #2 Position ---------- (1) Neutral Density 0.494



************************************************************
HS scan start time = 03:41:42
Dark Count =  5.2 


Time (GMT)  Wavelength (Ang)  Step Number  Raw Counts  Counts/Second

  222.05        2950.00           1233          17.00        51.44
  222.11        2950.25           1236          17.00        51.44
  222.14        2950.50           1239          25.00        86.31
  222.17        2950.75           1242          18.00        55.80
  222.19        2951.00           1246          19.00        60.16
  222.22        2951.25           1249          18.00        55.80
  222.25        2951.50           1252          16.00        47.08
  222.27        2951.75           1256          21.00        68.88
  222.30        2952.00           1259          23.00        77.59
  222.33        2952.25           1262          19.00        60.16
  222.36        2952.50           1266          21.00        68.88
  222.38        2952.75           1269          18.00        55.80
  222.41        2953.00           1272          20.00        64.52
  222.44        2953.25           1276          22.00        73.23
  222.46        2953.50           1279          20.00        64.52
  222.49        2953.75           1282          16.00        47.08
  222.52        2954.00           1286          18.00        55.80
  222.55        2954.25           1289          18.00        55.80
  222.57        2954.50           1292          16.00        47.08
  222.60        2954.75           1295          20.00        64.52
  222.63        2955.00           1299          20.00        64.52
  222.65        2955.25           1302          15.00        42.72
  222.68        2955.50           1305          22.00        73.23
  222.71        2955.75           1309          20.00        64.52
  222.74        2956.00           1312          14.00        38.36
  222.76        2956.25           1315          23.00        77.59
  222.79        2956.50           1319          18.00        55.80
  222.82        2956.75           1322          14.00        38.36
  222.84        2957.00           1325          17.00        51.44
  222.87        2957.25           1329          23.00        77.59
  222.90        2957.50           1332          22.00        73.23
  222.93        2957.75           1335          18.00        55.80
  222.95        2958.00           1339          18.00        55.80
  222.98        2958.25           1342          15.00        42.72
  223.01        2958.50           1345          20.00        64.52
  223.03        2958.75           1348          23.00        77.59
  223.06        2959.00           1352          20.00        64.52
  223.09        2959.25           1355          20.00        64.52
  223.12        2959.50           1358          20.00        64.52
  223.14        2959.75           1362          20.00        64.52
  223.17        2960.00           1365          23.00        77.59
  223.20        2960.25           1368          29.00       103.75
  223.22        2960.50           1372          34.00       125.55
  223.25        2960.75           1375          44.00       169.14
  223.28        2961.00           1378         121.00       504.80
  223.31        2961.25           1382         591.00      2553.80
  223.33        2961.50           1385        1366.00      5932.98
  223.36        2961.75           1388        2788.00     12134.90
  223.39        2962.00           1392        5725.00     24951.17
  223.41        2962.25           1395        8255.00     35998.78
  223.44        2962.50           1398       10892.00     47520.90
  223.47        2962.75           1402       14335.00     62575.98
  223.50        2963.00           1405       17041.00     74417.33
  223.52        2963.25           1408       20065.00     87659.53
  223.55        2963.50           1412       23421.00    102367.10
  223.58        2963.75           1415       25988.00    113625.10
  223.61        2964.00           1418       28933.00    126549.60
  223.63        2964.25           1422       32615.00    142721.80
  223.66        2964.50           1425       35337.00    154686.90
  223.69        2964.75           1428       38331.00    167856.80
  223.72        2965.00           1431       41130.00    180177.90
  223.74        2965.25           1435       45040.00    197403.70
  223.77        2965.50           1438       47913.00    210071.60
  223.80        2965.75           1441       50423.00    221146.30
  223.82        2966.00           1445       54311.00    238314.70
  223.85        2966.25           1448       56765.00    249159.40
  223.88        2966.50           1451       58694.00    257688.70
  223.91        2966.75           1455       60188.00    264297.50
  223.93        2967.00           1458       60813.00    267062.80
  223.96        2967.25           1461       60987.00    267832.80
  223.99        2967.50           1465       60824.00    267111.50
  224.02        2967.75           1468       60223.00    264452.30
  224.04        2968.00           1471       59127.00    259603.80
  224.07        2968.25           1475       56627.00    248549.40
  224.10        2968.50           1478       54478.00    239052.50
  224.13        2968.75           1481       51176.00    224470.10
  224.15        2969.00           1485       47534.00    208400.00
  224.18        2969.25           1488       44725.00    196015.40
  224.21        2969.50           1491       41768.00    182987.50
  224.23        2969.75           1495       37812.00    165573.20
  224.26        2970.00           1498       34773.00    152207.00
  224.29        2970.25           1501       31706.00    138727.90
  224.32        2970.50           1505       27778.00    121479.60
  224.34        2970.75           1508       24795.00    108392.10
  224.37        2971.00           1511       22097.00     96563.27
  224.40        2971.25           1515       18435.00     80520.49
  224.43        2971.50           1518       15516.00     67743.03
  224.45        2971.75           1521       12790.00     55818.65
  224.48        2972.00           1525        9144.00     39882.35
  224.51        2972.25           1528        6461.00     28164.31
  224.53        2972.50           1531        3993.00     17392.08
  224.56        2972.75           1535        1593.00      6922.88
  224.59        2973.00           1538         587.00      2536.36
  224.62        2973.25           1541         179.00       757.64
  224.64        2973.50           1545          57.00       225.81
  224.67        2973.75           1548          33.00       121.19
  224.70        2974.00           1551          35.00       129.90
  224.73        2974.25           1555          28.00        99.39
  224.75        2974.50           1558          22.00        73.23
  224.78        2974.75           1561          21.00        68.88
  224.81        2975.00           1565          23.00        77.59
  224.83        2975.25           1568          25.00        86.31
  224.86        2975.50           1571          23.00        77.59
  224.89        2975.75           1575          24.00        81.95
  224.92        2976.00           1578          19.00        60.16
  224.94        2976.25           1581          19.00        60.16
  224.97        2976.50           1585          24.00        81.95
  225.00        2976.75           1588          20.00        64.52
  225.02        2977.00           1591          19.00        60.16
  225.05        2977.25           1595          20.00        64.52
  225.08        2977.50           1598          22.00        73.23
  225.11        2977.75           1601          25.00        86.31
  225.13        2978.00           1605          18.00        55.80
  225.16        2978.25           1608          21.00        68.88
  225.19        2978.50           1611          20.00        64.52
  225.21        2978.75           1615          19.00        60.16
  225.24        2979.00           1618          18.00        55.80
  225.27        2979.25           1621          20.00        64.52
  225.30        2979.50           1625          19.00        60.16
  225.32        2979.75           1628          27.00        95.03
  225.35        2980.00           1631          13.00        34.00
  225.38        2980.25           1635          24.00        81.95
  225.40        2980.50           1638          21.00        68.88
  225.43        2980.75           1641          20.00        64.52
  225.46        2981.00           1645          23.00        77.59
  225.49        2981.25           1648          20.00        64.52
  225.51        2981.50           1651          19.00        60.16
  225.54        2981.75           1655          17.00        51.44
  225.57        2982.00           1658          16.00        47.08
  225.59        2982.25           1661          21.00        68.88
  225.62        2982.50           1665          15.00        42.72
  225.65        2982.75           1668          19.00        60.16
  225.68        2983.00           1671          23.00        77.59
  225.70        2983.25           1675          21.00        68.88
  225.73        2983.50           1678          20.00        64.52
  225.76        2983.75           1681          20.00        64.52
  225.78        2984.00           1685          22.00        73.23
HS scan finished at 03:45:58
end
