************************************************************
  HS Scan of (1) Internal mercury lamp
************************************************************
Integration time is 0.2294 seconds per sample
dh270918Tamanrasset 22.79-5.529 4.974364pr865
************************************************************
Dead Time -------------------------  2.8E-08 
Number of Cycles Used -------------  4 
Starting Wavelength (Angstroms) ---  2950 
Final Wavelength (Angstoms) -------  2984 
Wavelength Increment (Angstroms) --  .25 
Filter Wheel #1 Position ---------- (1) Ground quartz diffuser (ND=2.32)
Filter Wheel #2 Position ---------- (1) Neutral Density 0.494



************************************************************
HS scan start time = 03:40:20
Dark Count =  5 


Time (GMT)  Wavelength (Ang)  Step Number  Raw Counts  Counts/Second

  220.70        2950.00           1233          18.00        56.67
  220.76        2950.25           1236          23.00        78.47
  220.79        2950.50           1239          15.00        43.59
  220.81        2950.75           1242          22.00        74.11
  220.84        2951.00           1246          19.00        61.03
  220.87        2951.25           1249          20.00        65.39
  220.89        2951.50           1252          23.00        78.47
  220.92        2951.75           1256          17.00        52.31
  220.95        2952.00           1259          20.00        65.39
  220.98        2952.25           1262          22.00        74.11
  221.00        2952.50           1266          19.00        61.03
  221.03        2952.75           1269          16.00        47.95
  221.06        2953.00           1272          19.00        61.03
  221.08        2953.25           1276          18.00        56.67
  221.11        2953.50           1279           0.00         2.00
  221.14        2953.75           1282          21.00        69.75
  221.17        2954.00           1286          19.00        61.03
  221.19        2954.25           1289          18.00        56.67
  221.22        2954.50           1292          19.00        61.03
  221.25        2954.75           1295          20.00        65.39
  221.27        2955.00           1299          19.00        61.03
  221.30        2955.25           1302          21.00        69.75
  221.33        2955.50           1305          17.00        52.31
  221.36        2955.75           1309          25.00        87.18
  221.38        2956.00           1312          19.00        61.03
  221.41        2956.25           1315          21.00        69.75
  221.44        2956.50           1319          25.00        87.18
  221.46        2956.75           1322          21.00        69.75
  221.49        2957.00           1325          17.00        52.31
  221.52        2957.25           1329          19.00        61.03
  221.55        2957.50           1332          19.00        61.03
  221.57        2957.75           1335          16.00        47.95
  221.60        2958.00           1339          18.00        56.67
  221.63        2958.25           1342          21.00        69.75
  221.65        2958.50           1345          21.00        69.75
  221.68        2958.75           1348          21.00        69.75
  221.71        2959.00           1352          21.00        69.75
  221.74        2959.25           1355          21.00        69.75
  221.76        2959.50           1358          18.00        56.67
  221.79        2959.75           1362          22.00        74.11
  221.82        2960.00           1365          24.00        82.82
  221.84        2960.25           1368          29.00       104.62
  221.87        2960.50           1372          36.00       135.14
  221.90        2960.75           1375          39.00       148.21
  221.93        2961.00           1378          97.00       401.05
  221.95        2961.25           1382         481.00      2075.10
  221.98        2961.50           1385        1217.00      5284.13
  222.01        2961.75           1388        2482.00     10801.00
  222.03        2962.00           1392        5163.00     22498.91
  222.06        2962.25           1395        7618.00     33217.46
  222.09        2962.50           1398       10324.00     45039.33
  222.12        2962.75           1402       13797.00     60223.53
  222.14        2963.00           1405       16714.00     72986.85
  222.17        2963.25           1408       19589.00     85575.33
  222.20        2963.50           1412       23009.00    100561.70
  222.23        2963.75           1415       25805.00    112823.20
  222.25        2964.00           1418       28757.00    125777.90
  222.28        2964.25           1422       32286.00    141277.00
  222.31        2964.50           1425       35051.00    153430.20
  222.34        2964.75           1428       37829.00    165648.90
  222.36        2965.00           1431       40456.00    177211.10
  222.39        2965.25           1435       44171.00    193574.70
  222.42        2965.50           1438       47314.00    207430.60
  222.44        2965.75           1441       49990.00    219236.20
  222.47        2966.00           1445       54121.00    237476.20
  222.50        2966.25           1448       56214.00    246724.70
  222.53        2966.50           1451       57834.00    253886.50
  222.55        2966.75           1455       59823.00    262683.50
  222.58        2967.00           1458       60275.00    264683.20
  222.61        2967.25           1461       60630.00    266254.00
  222.64        2967.50           1465       60377.00    265134.50
  222.66        2967.75           1468       59965.00    263311.70
  222.69        2968.00           1471       59189.00    259879.00
  222.72        2968.25           1475       56765.00    249160.30
  222.75        2968.50           1478       54429.00    238836.90
  222.77        2968.75           1481       51608.00    226378.10
  222.80        2969.00           1485       47946.00    210218.10
  222.83        2969.25           1488       45034.00    197378.20
  222.85        2969.50           1491       41672.00    182565.60
  222.88        2969.75           1495       37892.00    165926.00
  222.91        2970.00           1498       35011.00    153254.30
  222.94        2970.25           1501       32197.00    140886.00
  222.96        2970.50           1505       28346.00    123973.60
  222.99        2970.75           1508       25524.00    111590.50
  223.02        2971.00           1511       22614.00     98830.21
  223.05        2971.25           1515       18902.00     82566.43
  223.07        2971.50           1518       15940.00     69599.32
  223.10        2971.75           1521       13255.00     57853.02
  223.13        2972.00           1525        9605.00     41897.43
  223.16        2972.25           1528        6824.00     29750.15
  223.18        2972.50           1531        4356.00     18976.95
  223.21        2972.75           1535        1795.00      7804.67
  223.24        2973.00           1538         680.00      2942.70
  223.27        2973.25           1541         210.00       893.66
  223.29        2973.50           1545          57.00       226.68
  223.32        2973.75           1548          37.00       139.49
  223.35        2974.00           1551          36.00       135.14
  223.37        2974.25           1555          33.00       122.06
  223.40        2974.50           1558          25.00        87.18
  223.43        2974.75           1561          21.00        69.75
  223.46        2975.00           1565          23.00        78.47
  223.48        2975.25           1568          18.00        56.67
  223.51        2975.50           1571          23.00        78.47
  223.54        2975.75           1575          22.00        74.11
  223.57        2976.00           1578          23.00        78.47
  223.59        2976.25           1581          20.00        65.39
  223.62        2976.50           1585          21.00        69.75
  223.65        2976.75           1588          21.00        69.75
  223.67        2977.00           1591          22.00        74.11
  223.70        2977.25           1595          23.00        78.47
  223.73        2977.50           1598          22.00        74.11
  223.76        2977.75           1601          26.00        91.54
  223.78        2978.00           1605          24.00        82.82
  223.81        2978.25           1608          24.00        82.82
  223.84        2978.50           1611          22.00        74.11
  223.86        2978.75           1615          22.00        74.11
  223.89        2979.00           1618          18.00        56.67
  223.92        2979.25           1621          24.00        82.82
  223.94        2979.50           1625          21.00        69.75
  223.97        2979.75           1628          23.00        78.47
  224.00        2980.00           1631          18.00        56.67
  224.03        2980.25           1635          20.00        65.39
  224.05        2980.50           1638          22.00        74.11
  224.08        2980.75           1641          24.00        82.82
  224.11        2981.00           1645          24.00        82.82
  224.13        2981.25           1648          24.00        82.82
  224.16        2981.50           1651          18.00        56.67
  224.19        2981.75           1655          20.00        65.39
  224.22        2982.00           1658          22.00        74.11
  224.24        2982.25           1661          17.00        52.31
  224.27        2982.50           1665          18.00        56.67
  224.30        2982.75           1668          22.00        74.11
  224.32        2983.00           1671          21.00        69.75
  224.35        2983.25           1675          23.00        78.47
  224.38        2983.50           1678          22.00        74.11
  224.41        2983.75           1681          21.00        69.75
  224.43        2984.00           1685          24.00        82.82
HS scan finished at 03:44:37
end
