************************************************************
  HS Scan of (1) Internal mercury lamp
************************************************************
Integration time is 0.2294 seconds per sample
dh021018Tamanrasset 22.79-5.529 4.974364pr865
************************************************************
Dead Time -------------------------  2.8E-08 
Number of Cycles Used -------------  4 
Starting Wavelength (Angstroms) ---  2950 
Final Wavelength (Angstoms) -------  2984 
Wavelength Increment (Angstroms) --  .25 
Filter Wheel #1 Position ---------- (1) Ground quartz diffuser (ND=2.32)
Filter Wheel #2 Position ---------- (1) Neutral Density 0.494



************************************************************
HS scan start time = 03:42:12
Dark Count =  5.1 


Time (GMT)  Wavelength (Ang)  Step Number  Raw Counts  Counts/Second

  222.56        2950.00           1233          19.00        60.59
  222.62        2950.25           1236          17.00        51.87
  222.65        2950.50           1239          22.00        73.67
  222.68        2950.75           1242          20.00        64.95
  222.70        2951.00           1246          19.00        60.59
  222.73        2951.25           1249          20.00        64.95
  222.76        2951.50           1252          17.00        51.87
  222.78        2951.75           1256          21.00        69.31
  222.81        2952.00           1259          21.00        69.31
  222.84        2952.25           1262          22.00        73.67
  222.87        2952.50           1266          21.00        69.31
  222.89        2952.75           1269          22.00        73.67
  222.92        2953.00           1272          22.00        73.67
  222.95        2953.25           1276          18.00        56.23
  222.97        2953.50           1279          18.00        56.23
  223.00        2953.75           1282          21.00        69.31
  223.03        2954.00           1286          23.00        78.03
  223.06        2954.25           1289          20.00        64.95
  223.08        2954.50           1292          23.00        78.03
  223.11        2954.75           1295          17.00        51.87
  223.14        2955.00           1299          18.00        56.23
  223.16        2955.25           1302          22.00        73.67
  223.19        2955.50           1305          21.00        69.31
  223.22        2955.75           1309          20.00        64.95
  223.25        2956.00           1312          18.00        56.23
  223.27        2956.25           1315          20.00        64.95
  223.30        2956.50           1319          22.00        73.67
  223.33        2956.75           1322          24.00        82.39
  223.35        2957.00           1325          20.00        64.95
  223.38        2957.25           1329          17.00        51.87
  223.41        2957.50           1332          21.00        69.31
  223.44        2957.75           1335          19.00        60.59
  223.46        2958.00           1339          17.00        51.87
  223.49        2958.25           1342          22.00        73.67
  223.52        2958.50           1345          17.00        51.87
  223.54        2958.75           1348          22.00        73.67
  223.57        2959.00           1352          21.00        69.31
  223.60        2959.25           1355          18.00        56.23
  223.62        2959.50           1358          17.00        51.87
  223.65        2959.75           1362          20.00        64.95
  223.68        2960.00           1365          28.00        99.83
  223.71        2960.25           1368          29.00       104.19
  223.73        2960.50           1372          33.00       121.62
  223.76        2960.75           1375          41.00       156.50
  223.79        2961.00           1378         154.00       649.10
  223.82        2961.25           1382         692.00      2994.58
  223.84        2961.50           1385        1610.00      6997.45
  223.87        2961.75           1388        3205.00     13954.45
  223.90        2962.00           1392        6195.00     27003.41
  223.92        2962.25           1395        8864.00     38659.52
  223.95        2962.50           1398       11996.00     52347.38
  223.98        2962.75           1402       15713.00     68605.52
  224.01        2963.00           1405       18646.00     81444.90
  224.03        2963.25           1408       21519.00     94030.59
  224.06        2963.50           1412       25374.00    110932.10
  224.09        2963.75           1415       28289.00    123723.00
  224.12        2964.00           1418       31195.00    136483.50
  224.14        2964.25           1422       34921.00    152858.10
  224.17        2964.50           1425       37966.00    166251.20
  224.20        2964.75           1428       41092.00    180011.00
  224.23        2965.00           1431       44007.00    192851.60
  224.25        2965.25           1435       48149.00    211113.00
  224.28        2965.50           1438       51042.00    223879.00
  224.31        2965.75           1441       53867.00    236353.70
  224.33        2966.00           1445       57853.00    253970.10
  224.36        2966.25           1448       60343.00    264983.60
  224.39        2966.50           1451       61907.00    271904.90
  224.42        2966.75           1455       63335.00    278226.60
  224.44        2967.00           1458       63783.00    280210.40
  224.47        2967.25           1461       64086.00    281552.20
  224.50        2967.50           1465       63652.00    279630.30
  224.53        2967.75           1468       62959.00    276561.90
  224.55        2968.00           1471       61842.00    271617.20
  224.58        2968.25           1475       58972.00    258918.70
  224.61        2968.50           1478       56471.00    247860.30
  224.63        2968.75           1481       53653.00    235408.40
  224.66        2969.00           1485       49508.00    217108.80
  224.69        2969.25           1488       46259.00    202778.00
  224.72        2969.50           1491       43012.00    188467.50
  224.74        2969.75           1495       39436.00    172720.40
  224.77        2970.00           1498       36110.00    158086.60
  224.80        2970.25           1501       32926.00    144088.90
  224.83        2970.50           1505       28707.00    125557.90
  224.85        2970.75           1508       25855.00    113042.10
  224.88        2971.00           1511       23076.00    100855.00
  224.91        2971.25           1515       19158.00     83687.16
  224.93        2971.50           1518       16073.00     70180.93
  224.96        2971.75           1521       13199.00     57607.67
  224.99        2972.00           1525        9325.00     40673.59
  225.02        2972.25           1528        6549.00     28548.97
  225.04        2972.50           1531        4141.00     18038.32
  225.07        2972.75           1535        1619.00      7036.70
  225.10        2973.00           1538         550.00      2375.49
  225.13        2973.25           1541         162.00       683.97
  225.15        2973.50           1545          53.00       208.81
  225.18        2973.75           1548          34.00       125.98
  225.21        2974.00           1551          35.00       130.34
  225.23        2974.25           1555          30.00       108.54
  225.26        2974.50           1558          27.00        95.47
  225.29        2974.75           1561          28.00        99.83
  225.32        2975.00           1565          23.00        78.03
  225.34        2975.25           1568          23.00        78.03
  225.37        2975.50           1571          24.00        82.39
  225.40        2975.75           1575          19.00        60.59
  225.42        2976.00           1578          24.00        82.39
  225.45        2976.25           1581          22.00        73.67
  225.48        2976.50           1585          22.00        73.67
  225.51        2976.75           1588          23.00        78.03
  225.53        2977.00           1591          21.00        69.31
  225.56        2977.25           1595          23.00        78.03
  225.59        2977.50           1598          22.00        73.67
  225.61        2977.75           1601          20.00        64.95
  225.64        2978.00           1605          29.00       104.19
  225.67        2978.25           1608          20.00        64.95
  225.70        2978.50           1611          27.00        95.47
  225.72        2978.75           1615          18.00        56.23
  225.75        2979.00           1618          24.00        82.39
  225.78        2979.25           1621          22.00        73.67
  225.80        2979.50           1625          21.00        69.31
  225.83        2979.75           1628          25.00        86.75
  225.86        2980.00           1631          19.00        60.59
  225.89        2980.25           1635          18.00        56.23
  225.91        2980.50           1638          18.00        56.23
  225.94        2980.75           1641          22.00        73.67
  225.97        2981.00           1645          17.00        51.87
  225.99        2981.25           1648          21.00        69.31
  226.02        2981.50           1651          22.00        73.67
  226.05        2981.75           1655          21.00        69.31
  226.08        2982.00           1658          20.00        64.95
  226.10        2982.25           1661          23.00        78.03
  226.13        2982.50           1665          21.00        69.31
  226.16        2982.75           1668          16.00        47.52
  226.18        2983.00           1671          19.00        60.59
  226.21        2983.25           1675          23.00        78.03
  226.24        2983.50           1678          22.00        73.67
  226.27        2983.75           1681          22.00        73.67
  226.29        2984.00           1685          21.00        69.31
HS scan finished at 03:46:29
end
