************************************************************
  HS Scan of (1) Internal mercury lamp
************************************************************
Integration time is 0.2294 seconds per sample
dh031018Tamanrasset 22.79-5.529 4.974364pr865
************************************************************
Dead Time -------------------------  2.8E-08 
Number of Cycles Used -------------  4 
Starting Wavelength (Angstroms) ---  2950 
Final Wavelength (Angstoms) -------  2984 
Wavelength Increment (Angstroms) --  .25 
Filter Wheel #1 Position ---------- (1) Ground quartz diffuser (ND=2.32)
Filter Wheel #2 Position ---------- (1) Neutral Density 0.494



************************************************************
HS scan start time = 03:41:50
Dark Count =  4.2 


Time (GMT)  Wavelength (Ang)  Step Number  Raw Counts  Counts/Second

  222.19        2950.00           1233          22.00        77.59
  222.25        2950.25           1236          16.00        51.44
  222.28        2950.50           1239          22.00        77.59
  222.30        2950.75           1242          19.00        64.52
  222.33        2951.00           1246          19.00        64.52
  222.36        2951.25           1249          15.00        47.08
  222.39        2951.50           1252          20.00        68.88
  222.41        2951.75           1256          16.00        51.44
  222.44        2952.00           1259          22.00        77.59
  222.47        2952.25           1262          16.00        51.44
  222.50        2952.50           1266          20.00        68.88
  222.52        2952.75           1269          18.00        60.16
  222.55        2953.00           1272          15.00        47.08
  222.58        2953.25           1276          20.00        68.88
  222.60        2953.50           1279          18.00        60.16
  222.63        2953.75           1282          19.00        64.52
  222.66        2954.00           1286          17.00        55.80
  222.69        2954.25           1289          28.00       103.75
  222.71        2954.50           1292          17.00        55.80
  222.74        2954.75           1295          16.00        51.44
  222.77        2955.00           1299          21.00        73.23
  222.79        2955.25           1302          16.00        51.44
  222.82        2955.50           1305          19.00        64.52
  222.85        2955.75           1309          22.00        77.59
  222.88        2956.00           1312          17.00        55.80
  222.90        2956.25           1315          18.00        60.16
  222.93        2956.50           1319          19.00        64.52
  222.96        2956.75           1322          19.00        64.52
  222.98        2957.00           1325          22.00        77.59
  223.01        2957.25           1329          19.00        64.52
  223.04        2957.50           1332          23.00        81.95
  223.07        2957.75           1335          21.00        73.23
  223.09        2958.00           1339          21.00        73.23
  223.12        2958.25           1342          17.00        55.80
  223.15        2958.50           1345          16.00        51.44
  223.17        2958.75           1348          25.00        90.67
  223.20        2959.00           1352          19.00        64.52
  223.23        2959.25           1355          19.00        64.52
  223.26        2959.50           1358          16.00        51.44
  223.28        2959.75           1362          21.00        73.23
  223.31        2960.00           1365          27.00        99.39
  223.34        2960.25           1368          30.00       112.47
  223.36        2960.50           1372          32.00       121.19
  223.39        2960.75           1375          42.00       164.78
  223.42        2961.00           1378         129.00       544.04
  223.45        2961.25           1382         548.00      2370.69
  223.47        2961.50           1385        1307.00      5680.07
  223.50        2961.75           1388        2666.00     11607.09
  223.53        2962.00           1392        5546.00     24174.16
  223.55        2962.25           1395        7925.00     34561.77
  223.58        2962.50           1398       10552.00     46039.26
  223.61        2962.75           1402       13556.00     59172.94
  223.64        2963.00           1405       16096.00     70285.53
  223.66        2963.25           1408       18862.00     82394.76
  223.69        2963.50           1412       22011.00     96190.72
  223.72        2963.75           1415       24518.00    107181.70
  223.75        2964.00           1418       27254.00    119184.40
  223.77        2964.25           1422       30501.00    133439.20
  223.80        2964.50           1425       32982.00    144338.90
  223.83        2964.75           1428       35957.00    157417.70
  223.86        2965.00           1431       38642.00    169229.80
  223.88        2965.25           1435       42225.00    185004.70
  223.91        2965.50           1438       44808.00    196385.60
  223.94        2965.75           1441       47246.00    207134.20
  223.96        2966.00           1445       50607.00    221962.80
  223.99        2966.25           1448       52329.00    229565.00
  224.02        2966.50           1451       54272.00    238146.80
  224.05        2966.75           1455       55106.00    241831.60
  224.07        2967.00           1458       55675.00    244346.10
  224.10        2967.25           1461       55625.00    244125.10
  224.13        2967.50           1465       55306.00    242715.40
  224.16        2967.75           1468       54958.00    241177.70
  224.18        2968.00           1471       53331.00    233990.10
  224.21        2968.25           1475       51029.00    223825.60
  224.24        2968.50           1478       48724.00    213653.60
  224.26        2968.75           1481       46041.00    201820.80
  224.29        2969.00           1485       42682.00    187017.70
  224.32        2969.25           1488       39635.00    173600.30
  224.35        2969.50           1491       37229.00    163012.60
  224.38        2969.75           1495       33537.00    146778.10
  224.40        2970.00           1498       30937.00    135354.20
  224.43        2970.25           1501       28356.00    124021.10
  224.46        2970.50           1505       24820.00    108506.20
  224.48        2970.75           1508       22366.00     97746.68
  224.51        2971.00           1511       19702.00     86073.81
  224.54        2971.25           1515       16495.00     72031.80
  224.57        2971.50           1518       13671.00     59675.92
  224.59        2971.75           1521       11061.00     48263.96
  224.62        2972.00           1525        7886.00     34391.43
  224.65        2972.25           1528        5419.00     23619.80
  224.68        2972.50           1531        3423.00     14909.45
  224.70        2972.75           1535        1383.00      6011.47
  224.73        2973.00           1538         519.00      2244.26
  224.76        2973.25           1541         152.00       644.30
  224.78        2973.50           1545          41.00       160.42
  224.81        2973.75           1548          35.00       134.26
  224.84        2974.00           1551          30.00       112.47
  224.87        2974.25           1555          32.00       121.19
  224.89        2974.50           1558          24.00        86.31
  224.92        2974.75           1561          23.00        81.95
  224.95        2975.00           1565          25.00        90.67
  224.98        2975.25           1568          19.00        64.52
  225.00        2975.50           1571          26.00        95.03
  225.03        2975.75           1575          23.00        81.95
  225.06        2976.00           1578          19.00        64.52
  225.08        2976.25           1581          22.00        77.59
  225.11        2976.50           1585          24.00        86.31
  225.14        2976.75           1588          21.00        73.23
  225.17        2977.00           1591          21.00        73.23
  225.19        2977.25           1595          20.00        68.88
  225.22        2977.50           1598          24.00        86.31
  225.25        2977.75           1601          22.00        77.59
  225.27        2978.00           1605          26.00        95.03
  225.30        2978.25           1608          20.00        68.88
  225.33        2978.50           1611          21.00        73.23
  225.36        2978.75           1615          25.00        90.67
  225.38        2979.00           1618          20.00        68.88
  225.41        2979.25           1621          23.00        81.95
  225.44        2979.50           1625          21.00        73.23
  225.46        2979.75           1628          21.00        73.23
  225.49        2980.00           1631          23.00        81.95
  225.52        2980.25           1635          20.00        68.88
  225.55        2980.50           1638          21.00        73.23
  225.57        2980.75           1641          18.00        60.16
  225.60        2981.00           1645          24.00        86.31
  225.63        2981.25           1648          18.00        60.16
  225.65        2981.50           1651          20.00        68.88
  225.68        2981.75           1655          19.00        64.52
  225.71        2982.00           1658          21.00        73.23
  225.74        2982.25           1661          24.00        86.31
  225.76        2982.50           1665          21.00        73.23
  225.79        2982.75           1668          17.00        55.80
  225.82        2983.00           1671          25.00        90.67
  225.84        2983.25           1675          19.00        64.52
  225.87        2983.50           1678          20.00        68.88
  225.90        2983.75           1681          18.00        60.16
  225.93        2984.00           1685          21.00        73.23
HS scan finished at 03:46:07
end
