************************************************************
  HS Scan of (1) Internal mercury lamp
************************************************************
Integration time is 0.2294 seconds per sample
dh290917Tamanrasset 22.79-5.529 3.072694pr865
************************************************************
Dead Time -------------------------  2.8E-08 
Number of Cycles Used -------------  4 
Starting Wavelength (Angstroms) ---  2950 
Final Wavelength (Angstoms) -------  2984 
Wavelength Increment (Angstroms) --  .25 
Filter Wheel #1 Position ---------- (1) Ground quartz diffuser (ND=2.32)
Filter Wheel #2 Position ---------- (1) Neutral Density 0.494



************************************************************
HS scan start time = 03:41:49
Dark Count =  4.9 


Time (GMT)  Wavelength (Ang)  Step Number  Raw Counts  Counts/Second

  222.17        2950.00           1233          19.00        61.46
  222.23        2950.25           1236          25.00        87.62
  222.26        2950.50           1239          19.00        61.46
  222.29        2950.75           1242          19.00        61.46
  222.31        2951.00           1246          18.00        57.11
  222.34        2951.25           1249          17.00        52.75
  222.37        2951.50           1252          21.00        70.18
  222.40        2951.75           1256          19.00        61.46
  222.42        2952.00           1259          17.00        52.75
  222.45        2952.25           1262          17.00        52.75
  222.48        2952.50           1266          20.00        65.82
  222.50        2952.75           1269          17.00        52.75
  222.53        2953.00           1272          24.00        83.26
  222.56        2953.25           1276          21.00        70.18
  222.59        2953.50           1279          18.00        57.11
  222.61        2953.75           1282          17.00        52.75
  222.64        2954.00           1286          19.00        61.46
  222.67        2954.25           1289          22.00        74.54
  222.70        2954.50           1292          20.00        65.82
  222.72        2954.75           1295          22.00        74.54
  222.75        2955.00           1299          19.00        61.46
  222.78        2955.25           1302          17.00        52.75
  222.80        2955.50           1305          17.00        52.75
  222.83        2955.75           1309          20.00        65.82
  222.86        2956.00           1312          20.00        65.82
  222.89        2956.25           1315          18.00        57.11
  222.91        2956.50           1319          19.00        61.46
  222.94        2956.75           1322          19.00        61.46
  222.97        2957.00           1325          16.00        48.39
  223.00        2957.25           1329          17.00        52.75
  223.02        2957.50           1332          19.00        61.46
  223.05        2957.75           1335          18.00        57.11
  223.08        2958.00           1339          15.00        44.03
  223.11        2958.25           1342          20.00        65.82
  223.13        2958.50           1345          14.00        39.67
  223.16        2958.75           1348          22.00        74.54
  223.19        2959.00           1352          15.00        44.03
  223.21        2959.25           1355          23.00        78.90
  223.24        2959.50           1358          18.00        57.11
  223.27        2959.75           1362          21.00        70.18
  223.30        2960.00           1365          22.00        74.54
  223.32        2960.25           1368          25.00        87.62
  223.35        2960.50           1372          27.00        96.34
  223.38        2960.75           1375          38.00       144.29
  223.41        2961.00           1378         106.00       440.72
  223.43        2961.25           1382         494.00      2132.21
  223.46        2961.50           1385        1257.00      5458.99
  223.49        2961.75           1388        2578.00     11220.18
  223.52        2962.00           1392        5309.00     23136.61
  223.54        2962.25           1395        7830.00     34143.79
  223.57        2962.50           1398       10577.00     46145.46
  223.60        2962.75           1402       14062.00     61383.09
  223.63        2963.00           1405       16923.00     73902.11
  223.65        2963.25           1408       19614.00     85685.28
  223.68        2963.50           1412       22987.00    100465.70
  223.71        2963.75           1415       25691.00    112323.50
  223.74        2964.00           1418       28743.00    125716.80
  223.76        2964.25           1422       32146.00    140662.40
  223.79        2964.50           1425       34867.00    152621.60
  223.82        2964.75           1428       37917.00    166036.50
  223.84        2965.00           1431       40594.00    177819.10
  223.87        2965.25           1435       44356.00    194390.40
  223.90        2965.50           1438       47389.00    207761.80
  223.93        2965.75           1441       50279.00    220512.10
  223.95        2966.00           1445       53983.00    236867.00
  223.98        2966.25           1448       56169.00    246526.30
  224.01        2966.50           1451       58020.00    254709.40
  224.04        2966.75           1455       59508.00    261290.50
  224.06        2967.00           1458       60300.00    264794.30
  224.09        2967.25           1461       60635.00    266276.50
  224.12        2967.50           1465       60432.00    265378.30
  224.15        2967.75           1468       59826.00    262697.20
  224.17        2968.00           1471       58804.00    258176.50
  224.20        2968.25           1475       56546.00    248192.70
  224.23        2968.50           1478       53772.00    235934.90
  224.26        2968.75           1481       51348.00    225230.70
  224.28        2969.00           1485       47404.00    207827.90
  224.31        2969.25           1488       44480.00    194936.90
  224.34        2969.50           1491       41541.00    181989.10
  224.37        2969.75           1495       37843.00    165710.90
  224.40        2970.00           1498       34832.00    152467.70
  224.42        2970.25           1501       32023.00    140121.90
  224.45        2970.50           1505       28237.00    123495.60
  224.48        2970.75           1508       25239.00    110340.80
  224.51        2971.00           1511       22371.00     97765.52
  224.53        2971.25           1515       18631.00     81380.08
  224.56        2971.50           1518       15684.00     68479.48
  224.59        2971.75           1521       13084.00     57105.63
  224.62        2972.00           1525        9463.00     41277.41
  224.64        2972.25           1528        6650.00     28990.83
  224.67        2972.50           1531        4382.00     19090.85
  224.70        2972.75           1535        1866.00      8114.75
  224.72        2973.00           1538         772.00      3344.25
  224.75        2973.25           1541         226.00       963.84
  224.78        2973.50           1545          58.00       231.47
  224.81        2973.75           1548          34.00       126.85
  224.83        2974.00           1551          36.00       135.57
  224.86        2974.25           1555          30.00       109.42
  224.89        2974.50           1558          22.00        74.54
  224.92        2974.75           1561          23.00        78.90
  224.94        2975.00           1565          21.00        70.18
  224.97        2975.25           1568          21.00        70.18
  225.00        2975.50           1571          23.00        78.90
  225.02        2975.75           1575          23.00        78.90
  225.05        2976.00           1578          21.00        70.18
  225.08        2976.25           1581          20.00        65.82
  225.11        2976.50           1585          18.00        57.11
  225.13        2976.75           1588          20.00        65.82
  225.16        2977.00           1591          21.00        70.18
  225.19        2977.25           1595          21.00        70.18
  225.22        2977.50           1598          17.00        52.75
  225.24        2977.75           1601          20.00        65.82
  225.27        2978.00           1605          22.00        74.54
  225.30        2978.25           1608          14.00        39.67
  225.32        2978.50           1611          23.00        78.90
  225.35        2978.75           1615          23.00        78.90
  225.38        2979.00           1618          22.00        74.54
  225.41        2979.25           1621          22.00        74.54
  225.43        2979.50           1625          18.00        57.11
  225.46        2979.75           1628          21.00        70.18
  225.49        2980.00           1631          23.00        78.90
  225.52        2980.25           1635          21.00        70.18
  225.54        2980.50           1638          19.00        61.46
  225.57        2980.75           1641          18.00        57.11
  225.60        2981.00           1645          21.00        70.18
  225.62        2981.25           1648          25.00        87.62
  225.65        2981.50           1651          17.00        52.75
  225.68        2981.75           1655          19.00        61.46
  225.71        2982.00           1658          22.00        74.54
  225.73        2982.25           1661          24.00        83.26
  225.76        2982.50           1665          17.00        52.75
  225.79        2982.75           1668          22.00        74.54
  225.82        2983.00           1671          20.00        65.82
  225.84        2983.25           1675          25.00        87.62
  225.87        2983.50           1678          20.00        65.82
  225.90        2983.75           1681          24.00        83.26
  225.92        2984.00           1685          21.00        70.18
HS scan finished at 03:46:07
end
