************************************************************
  HS Scan of (1) Internal mercury lamp
************************************************************
Integration time is 0.2294 seconds per sample
dh300917Tamanrasset 22.79-5.529 3.11348pr865
************************************************************
Dead Time -------------------------  2.8E-08 
Number of Cycles Used -------------  4 
Starting Wavelength (Angstroms) ---  2950 
Final Wavelength (Angstoms) -------  2984 
Wavelength Increment (Angstroms) --  .25 
Filter Wheel #1 Position ---------- (1) Ground quartz diffuser (ND=2.32)
Filter Wheel #2 Position ---------- (1) Neutral Density 0.494



************************************************************
HS scan start time = 03:41:49
Dark Count =  5.1 


Time (GMT)  Wavelength (Ang)  Step Number  Raw Counts  Counts/Second

  222.17        2950.00           1233          22.00        73.67
  222.23        2950.25           1236          18.00        56.23
  222.26        2950.50           1239          21.00        69.31
  222.29        2950.75           1242          17.00        51.87
  222.32        2951.00           1246          20.00        64.95
  222.34        2951.25           1249          19.00        60.59
  222.37        2951.50           1252          22.00        73.67
  222.40        2951.75           1256          17.00        51.87
  222.43        2952.00           1259          23.00        78.03
  222.45        2952.25           1262          19.00        60.59
  222.48        2952.50           1266          18.00        56.23
  222.51        2952.75           1269          18.00        56.23
  222.53        2953.00           1272          18.00        56.23
  222.56        2953.25           1276          18.00        56.23
  222.59        2953.50           1279          17.00        51.87
  222.62        2953.75           1282          17.00        51.87
  222.64        2954.00           1286          25.00        86.75
  222.67        2954.25           1289          15.00        43.16
  222.70        2954.50           1292          19.00        60.59
  222.73        2954.75           1295          18.00        56.23
  222.75        2955.00           1299          23.00        78.03
  222.78        2955.25           1302          18.00        56.23
  222.81        2955.50           1305          19.00        60.59
  222.84        2955.75           1309          19.00        60.59
  222.86        2956.00           1312          21.00        69.31
  222.89        2956.25           1315          17.00        51.87
  222.92        2956.50           1319          17.00        51.87
  222.95        2956.75           1322          18.00        56.23
  222.97        2957.00           1325          19.00        60.59
  223.00        2957.25           1329          20.00        64.95
  223.03        2957.50           1332          17.00        51.87
  223.05        2957.75           1335          23.00        78.03
  223.08        2958.00           1339          16.00        47.52
  223.11        2958.25           1342          20.00        64.95
  223.14        2958.50           1345          19.00        60.59
  223.16        2958.75           1348          16.00        47.52
  223.19        2959.00           1352          19.00        60.59
  223.22        2959.25           1355          21.00        69.31
  223.25        2959.50           1358          20.00        64.95
  223.27        2959.75           1362          20.00        64.95
  223.30        2960.00           1365          25.00        86.75
  223.33        2960.25           1368          26.00        91.11
  223.35        2960.50           1372          34.00       125.98
  223.38        2960.75           1375          39.00       147.78
  223.41        2961.00           1378         109.00       452.93
  223.44        2961.25           1382         588.00      2541.16
  223.46        2961.50           1385        1439.00      6251.75
  223.49        2961.75           1388        2874.00     12510.49
  223.52        2962.00           1392        5597.00     24392.85
  223.55        2962.25           1395        8253.00     35990.48
  223.57        2962.50           1398       11144.00     48622.82
  223.60        2962.75           1402       14691.00     64133.81
  223.63        2963.00           1405       17431.00     76125.04
  223.66        2963.25           1408       20266.00     88540.50
  223.68        2963.50           1412       24045.00    105103.50
  223.71        2963.75           1415       27059.00    118324.70
  223.74        2964.00           1418       29938.00    130962.80
  223.77        2964.25           1422       33639.00    147222.50
  223.79        2964.50           1425       36444.00    159555.60
  223.82        2964.75           1428       39410.00    172605.90
  223.85        2965.00           1431       42224.00    184996.30
  223.88        2965.25           1435       45980.00    201547.90
  223.90        2965.50           1438       49059.00    215127.60
  223.93        2965.75           1441       51715.00    226850.00
  223.96        2966.00           1445       55775.00    244784.10
  223.99        2966.25           1448       57858.00    253992.20
  224.01        2966.50           1451       59821.00    262674.20
  224.04        2966.75           1455       61564.00    270386.80
  224.07        2967.00           1458       61887.00    271816.40
  224.10        2967.25           1461       62186.00    273139.80
  224.12        2967.50           1465       61802.00    271440.10
  224.15        2967.75           1468       61376.00    269554.70
  224.18        2968.00           1471       60279.00    264700.50
  224.21        2968.25           1475       57789.00    253687.10
  224.23        2968.50           1478       55163.00    242079.50
  224.26        2968.75           1481       52609.00    230797.50
  224.29        2969.00           1485       48642.00    213287.90
  224.32        2969.25           1488       45459.00    199251.10
  224.34        2969.50           1491       42306.00    185357.50
  224.37        2969.75           1495       38558.00    168856.20
  224.40        2970.00           1498       35769.00    156587.00
  224.43        2970.25           1501       32580.00    142568.40
  224.45        2970.50           1505       28499.00    124644.80
  224.48        2970.75           1508       25682.00    112283.20
  224.51        2971.00           1511       22962.00    100355.30
  224.53        2971.25           1515       19066.00     83284.24
  224.56        2971.50           1518       16201.00     70741.12
  224.59        2971.75           1521       13539.00     59094.66
  224.62        2972.00           1525        9826.00     42862.67
  224.64        2972.25           1528        7117.00     31029.13
  224.67        2972.50           1531        4625.00     20150.42
  224.70        2972.75           1535        2017.00      8772.43
  224.73        2973.00           1538         800.00      3465.46
  224.75        2973.25           1541         254.00      1085.04
  224.78        2973.50           1545          58.00       230.60
  224.81        2973.75           1548          43.00       165.21
  224.84        2974.00           1551          33.00       121.62
  224.86        2974.25           1555          28.00        99.83
  224.89        2974.50           1558          25.00        86.75
  224.92        2974.75           1561          23.00        78.03
  224.95        2975.00           1565          18.00        56.23
  224.97        2975.25           1568          26.00        91.11
  225.00        2975.50           1571          22.00        73.67
  225.03        2975.75           1575          21.00        69.31
  225.06        2976.00           1578          23.00        78.03
  225.08        2976.25           1581          24.00        82.39
  225.11        2976.50           1585          24.00        82.39
  225.14        2976.75           1588          20.00        64.95
  225.16        2977.00           1591          20.00        64.95
  225.19        2977.25           1595          19.00        60.59
  225.22        2977.50           1598          21.00        69.31
  225.25        2977.75           1601          22.00        73.67
  225.27        2978.00           1605          22.00        73.67
  225.30        2978.25           1608          17.00        51.87
  225.33        2978.50           1611          19.00        60.59
  225.36        2978.75           1615          20.00        64.95
  225.38        2979.00           1618          24.00        82.39
  225.41        2979.25           1621          24.00        82.39
  225.44        2979.50           1625          24.00        82.39
  225.47        2979.75           1628          25.00        86.75
  225.49        2980.00           1631          21.00        69.31
  225.52        2980.25           1635          19.00        60.59
  225.55        2980.50           1638          18.00        56.23
  225.57        2980.75           1641          21.00        69.31
  225.60        2981.00           1645          21.00        69.31
  225.63        2981.25           1648          18.00        56.23
  225.66        2981.50           1651          18.00        56.23
  225.68        2981.75           1655          22.00        73.67
  225.71        2982.00           1658          22.00        73.67
  225.74        2982.25           1661          20.00        64.95
  225.77        2982.50           1665          23.00        78.03
  225.79        2982.75           1668          18.00        56.23
  225.82        2983.00           1671          16.00        47.52
  225.85        2983.25           1675          22.00        73.67
  225.88        2983.50           1678          21.00        69.31
  225.90        2983.75           1681          19.00        60.59
  225.93        2984.00           1685          23.00        78.03
HS scan finished at 03:46:07
end
************************************************************
  HS Scan of (1) Internal mercury lamp
************************************************************
Integration time is 0.2294 seconds per sample
dh011017Tamanrasset 22.79-5.529 2.991121pr865
************************************************************
Dead Time -------------------------  2.8E-08 
Number of Cycles Used -------------  4 
Starting Wavelength (Angstroms) ---  2950 
Final Wavelength (Angstoms) -------  2984 
Wavelength Increment (Angstroms) --  .25 
Filter Wheel #1 Position ---------- (1) Ground quartz diffuser (ND=2.32)
Filter Wheel #2 Position ---------- (1) Neutral Density 0.494



************************************************************
HS scan start time = 03:43:34
Dark Count =  5.5 


Time (GMT)  Wavelength (Ang)  Step Number  Raw Counts  Counts/Second

  223.93        2950.00           1233          21.00        67.57
  223.99        2950.25           1236          17.00        50.13
  224.02        2950.50           1239          20.00        63.21
  224.04        2950.75           1242          19.00        58.85
  224.07        2951.00           1246          18.00        54.49
  224.10        2951.25           1249          20.00        63.21
  224.13        2951.50           1252          21.00        67.57
  224.15        2951.75           1256          17.00        50.13
  224.18        2952.00           1259          19.00        58.85
  224.21        2952.25           1262          19.00        58.85
  224.23        2952.50           1266          16.00        45.77
  224.26        2952.75           1269          19.00        58.85
  224.29        2953.00           1272          23.00        76.29
  224.32        2953.25           1276          20.00        63.21
  224.34        2953.50           1279          17.00        50.13
  224.37        2953.75           1282          16.00        45.77
  224.40        2954.00           1286          19.00        58.85
  224.43        2954.25           1289          16.00        45.77
  224.45        2954.50           1292          18.00        54.49
  224.48        2954.75           1295          20.00        63.21
  224.51        2955.00           1299          19.00        58.85
  224.53        2955.25           1302          20.00        63.21
  224.56        2955.50           1305          25.00        85.00
  224.59        2955.75           1309          19.00        58.85
  224.62        2956.00           1312          18.00        54.49
  224.64        2956.25           1315          16.00        45.77
  224.67        2956.50           1319          17.00        50.13
  224.70        2956.75           1322          17.00        50.13
  224.73        2957.00           1325          15.00        41.41
  224.75        2957.25           1329          19.00        58.85
  224.78        2957.50           1332          20.00        63.21
  224.81        2957.75           1335          20.00        63.21
  224.83        2958.00           1339          15.00        41.41
  224.86        2958.25           1342          17.00        50.13
  224.89        2958.50           1345          16.00        45.77
  224.92        2958.75           1348          22.00        71.93
  224.94        2959.00           1352          18.00        54.49
  224.97        2959.25           1355          18.00        54.49
  225.00        2959.50           1358          23.00        76.29
  225.03        2959.75           1362          20.00        63.21
  225.05        2960.00           1365          31.00       111.16
  225.08        2960.25           1368          26.00        89.36
  225.11        2960.50           1372          35.00       128.60
  225.14        2960.75           1375          44.00       167.83
  225.16        2961.00           1378         129.00       538.37
  225.19        2961.25           1382         602.00      2600.45
  225.22        2961.50           1385        1400.00      6079.94
  225.24        2961.75           1388        2855.00     12425.86
  225.27        2962.00           1392        5729.00     24967.32
  225.30        2962.25           1395        8271.00     36067.36
  225.33        2962.50           1398       11095.00     48406.90
  225.35        2962.75           1402       14461.00     63125.87
  225.38        2963.00           1405       17259.00     75370.31
  225.41        2963.25           1408       19956.00     87180.74
  225.44        2963.50           1412       23183.00    101322.40
  225.46        2963.75           1415       25783.00    112724.50
  225.49        2964.00           1418       28801.00    125968.80
  225.52        2964.25           1422       32173.00    140778.30
  225.55        2964.50           1425       34739.00    152056.20
  225.57        2964.75           1428       37500.00    164199.10
  225.60        2965.00           1431       40325.00    176632.10
  225.63        2965.25           1435       43778.00    191840.70
  225.66        2965.50           1438       46424.00    203503.70
  225.68        2965.75           1441       49412.00    216683.40
  225.71        2966.00           1445       52857.00    231891.00
  225.74        2966.25           1448       54862.00    240747.80
  225.77        2966.50           1451       56560.00    248251.90
  225.79        2966.75           1455       57806.00    253760.50
  225.82        2967.00           1458       58294.00    255918.40
  225.85        2967.25           1461       58424.00    256493.30
  225.88        2967.50           1465       57949.00    254392.80
  225.90        2967.75           1468       57462.00    252239.50
  225.93        2968.00           1471       56234.00    246811.00
  225.96        2968.25           1475       53803.00    236069.20
  225.99        2968.50           1478       51533.00    226044.80
  226.01        2968.75           1481       49011.00    214914.10
  226.04        2969.00           1485       45113.00    197724.20
  226.07        2969.25           1488       42436.00    185928.40
  226.10        2969.50           1491       39243.00    171869.10
  226.12        2969.75           1495       35659.00    156101.50
  226.15        2970.00           1498       32815.00    143599.40
  226.18        2970.25           1501       30195.00    132089.70
  226.21        2970.50           1505       26444.00    115624.40
  226.23        2970.75           1508       23682.00    103510.10
  226.26        2971.00           1511       20970.00     91623.16
  226.29        2971.25           1515       17298.00     75541.04
  226.32        2971.50           1518       14681.00     64088.32
  226.34        2971.75           1521       12234.00     53386.20
  226.37        2972.00           1525        8722.00     38037.44
  226.40        2972.25           1528        6012.00     26202.74
  226.43        2972.50           1531        3724.00     16217.04
  226.45        2972.75           1535        1513.00      6572.70
  226.48        2973.00           1538         560.00      2417.34
  226.51        2973.25           1541         167.00       704.02
  226.54        2973.50           1545          49.00       189.63
  226.56        2973.75           1548          37.00       137.32
  226.59        2974.00           1551          32.00       115.52
  226.62        2974.25           1555          25.00        85.00
  226.64        2974.50           1558          34.00       124.24
  226.67        2974.75           1561          28.00        98.08
  226.70        2975.00           1565          21.00        67.57
  226.73        2975.25           1568          26.00        89.36
  226.75        2975.50           1571          19.00        58.85
  226.78        2975.75           1575          27.00        93.72
  226.81        2976.00           1578          23.00        76.29
  226.84        2976.25           1581          23.00        76.29
  226.86        2976.50           1585          22.00        71.93
  226.89        2976.75           1588          21.00        67.57
  226.92        2977.00           1591          19.00        58.85
  226.94        2977.25           1595          24.00        80.65
  226.97        2977.50           1598          23.00        76.29
  227.00        2977.75           1601          20.00        63.21
  227.03        2978.00           1605          18.00        54.49
  227.05        2978.25           1608          21.00        67.57
  227.08        2978.50           1611          20.00        63.21
  227.11        2978.75           1615          22.00        71.93
  227.14        2979.00           1618          17.00        50.13
  227.16        2979.25           1621          17.00        50.13
  227.19        2979.50           1625          20.00        63.21
  227.22        2979.75           1628          22.00        71.93
  227.25        2980.00           1631          20.00        63.21
  227.27        2980.25           1635          20.00        63.21
  227.30        2980.50           1638          20.00        63.21
  227.33        2980.75           1641          17.00        50.13
  227.35        2981.00           1645          20.00        63.21
  227.38        2981.25           1648          20.00        63.21
  227.41        2981.50           1651          23.00        76.29
  227.44        2981.75           1655          20.00        63.21
  227.46        2982.00           1658          19.00        58.85
  227.49        2982.25           1661          19.00        58.85
  227.52        2982.50           1665          21.00        67.57
  227.55        2982.75           1668          17.00        50.13
  227.57        2983.00           1671          22.00        71.93
  227.60        2983.25           1675          17.00        50.13
  227.63        2983.50           1678          22.00        71.93
  227.65        2983.75           1681          17.00        50.13
  227.68        2984.00           1685          17.00        50.13
HS scan finished at 03:47:52
end
