************************************************************
  HS Scan of (1) Internal mercury lamp
************************************************************
Integration time is 0.2294 seconds per sample
dh290918Tamanrasset 22.79-5.529 4.974364pr865
************************************************************
Dead Time -------------------------  2.8E-08 
Number of Cycles Used -------------  4 
Starting Wavelength (Angstroms) ---  2950 
Final Wavelength (Angstoms) -------  2984 
Wavelength Increment (Angstroms) --  .25 
Filter Wheel #1 Position ---------- (1) Ground quartz diffuser (ND=2.32)
Filter Wheel #2 Position ---------- (1) Neutral Density 0.494



************************************************************
HS scan start time = 03:40:24
Dark Count =  6.4 


Time (GMT)  Wavelength (Ang)  Step Number  Raw Counts  Counts/Second

  220.75        2950.00           1233          17.00        46.21
  220.82        2950.25           1236          23.00        72.36
  220.84        2950.50           1239          20.00        59.29
  220.87        2950.75           1242          20.00        59.29
  220.90        2951.00           1246          17.00        46.21
  220.93        2951.25           1249          19.00        54.93
  220.95        2951.50           1252          17.00        46.21
  220.98        2951.75           1256          21.00        63.64
  221.01        2952.00           1259          18.00        50.57
  221.04        2952.25           1262          16.00        41.85
  221.06        2952.50           1266          21.00        63.64
  221.09        2952.75           1269          26.00        85.44
  221.12        2953.00           1272          18.00        50.57
  221.14        2953.25           1276          18.00        50.57
  221.17        2953.50           1279          19.00        54.93
  221.20        2953.75           1282          17.00        46.21
  221.23        2954.00           1286          19.00        54.93
  221.25        2954.25           1289          22.00        68.00
  221.28        2954.50           1292          19.00        54.93
  221.31        2954.75           1295          17.00        46.21
  221.33        2955.00           1299          22.00        68.00
  221.36        2955.25           1302          20.00        59.29
  221.39        2955.50           1305          18.00        50.57
  221.41        2955.75           1309          17.00        46.21
  221.44        2956.00           1312          20.00        59.29
  221.47        2956.25           1315          21.00        63.64
  221.50        2956.50           1319          24.00        76.72
  221.52        2956.75           1322          17.00        46.21
  221.55        2957.00           1325          20.00        59.29
  221.58        2957.25           1329          17.00        46.21
  221.60        2957.50           1332          17.00        46.21
  221.63        2957.75           1335          20.00        59.29
  221.66        2958.00           1339          23.00        72.36
  221.69        2958.25           1342          20.00        59.29
  221.71        2958.50           1345          22.00        68.00
  221.74        2958.75           1348          19.00        54.93
  221.77        2959.00           1352          22.00        68.00
  221.80        2959.25           1355          19.00        54.93
  221.82        2959.50           1358          24.00        76.72
  221.85        2959.75           1362          21.00        63.64
  221.88        2960.00           1365          27.00        89.80
  221.90        2960.25           1368          24.00        76.72
  221.93        2960.50           1372          34.00       120.31
  221.96        2960.75           1375          43.00       159.55
  221.99        2961.00           1378         102.00       416.74
  222.01        2961.25           1382         482.00      2073.36
  222.04        2961.50           1385        1195.00      5182.09
  222.07        2961.75           1388        2591.00     11270.34
  222.09        2962.00           1392        5254.00     22890.00
  222.12        2962.25           1395        7773.00     33888.29
  222.15        2962.50           1398       10675.00     46567.22
  222.18        2962.75           1402       14202.00     61988.94
  222.20        2963.00           1405       17015.00     74298.25
  222.23        2963.25           1408       19845.00     86690.56
  222.26        2963.50           1412       23253.00    101625.30
  222.28        2963.75           1415       25808.00    112830.20
  222.31        2964.00           1418       28551.00    124867.40
  222.34        2964.25           1422       32169.00    140756.80
  222.37        2964.50           1425       34637.00    151603.90
  222.40        2964.75           1428       37801.00    165519.50
  222.42        2965.00           1431       40594.00    177812.50
  222.45        2965.25           1435       44289.00    194088.50
  222.48        2965.50           1438       47025.00    206149.90
  222.50        2965.75           1441       49818.00    218471.00
  222.53        2966.00           1445       53476.00    234620.80
  222.56        2966.25           1448       55903.00    245344.00
  222.59        2966.50           1451       57618.00    252925.20
  222.61        2966.75           1455       59092.00    259443.70
  222.64        2967.00           1458       59595.00    261668.70
  222.67        2967.25           1461       59692.00    262097.80
  222.70        2967.50           1465       59578.00    261593.50
  222.72        2967.75           1468       59363.00    260642.50
  222.75        2968.00           1471       58027.00    254733.70
  222.78        2968.25           1475       55816.00    244959.50
  222.80        2968.50           1478       53573.00    235049.30
  222.83        2968.75           1481       50735.00    222518.10
  222.86        2969.00           1485       46845.00    205356.10
  222.89        2969.25           1488       44032.00    192956.00
  222.91        2969.50           1491       41063.00    179877.50
  222.94        2969.75           1495       37138.00    162602.60
  222.97        2970.00           1498       34514.00    151063.10
  223.00        2970.25           1501       31712.00    138749.00
  223.02        2970.50           1505       27853.00    121803.60
  223.05        2970.75           1508       25076.00    109619.30
  223.08        2971.00           1511       22206.00     97035.74
  223.11        2971.25           1515       18365.00     80208.71
  223.13        2971.50           1518       15715.00     68608.57
  223.16        2971.75           1521       12859.00     56115.13
  223.19        2972.00           1525        9291.00     40519.36
  223.21        2972.25           1528        6624.00     28870.76
  223.24        2972.50           1531        4358.00     18979.57
  223.27        2972.75           1535        1806.00      7846.54
  223.30        2973.00           1538         745.00      3219.99
  223.32        2973.25           1541         232.00       983.46
  223.35        2973.50           1545          53.00       203.14
  223.38        2973.75           1548          35.00       124.67
  223.41        2974.00           1551          28.00        94.16
  223.43        2974.25           1555          26.00        85.44
  223.46        2974.50           1558          29.00        98.52
  223.49        2974.75           1561          26.00        85.44
  223.51        2975.00           1565          30.00       102.88
  223.54        2975.25           1568          21.00        63.64
  223.57        2975.50           1571          21.00        63.64
  223.60        2975.75           1575          23.00        72.36
  223.62        2976.00           1578          25.00        81.08
  223.65        2976.25           1581          25.00        81.08
  223.68        2976.50           1585          20.00        59.29
  223.70        2976.75           1588          21.00        63.64
  223.73        2977.00           1591          18.00        50.57
  223.76        2977.25           1595          20.00        59.29
  223.79        2977.50           1598          19.00        54.93
  223.81        2977.75           1601          21.00        63.64
  223.84        2978.00           1605          19.00        54.93
  223.87        2978.25           1608          20.00        59.29
  223.89        2978.50           1611          24.00        76.72
  223.92        2978.75           1615          19.00        54.93
  223.95        2979.00           1618          21.00        63.64
  223.98        2979.25           1621          21.00        63.64
  224.00        2979.50           1625          22.00        68.00
  224.03        2979.75           1628          22.00        68.00
  224.06        2980.00           1631          16.00        41.85
  224.08        2980.25           1635          19.00        54.93
  224.11        2980.50           1638          22.00        68.00
  224.14        2980.75           1641          13.00        28.77
  224.17        2981.00           1645          21.00        63.64
  224.19        2981.25           1648          15.00        37.49
  224.22        2981.50           1651          25.00        81.08
  224.25        2981.75           1655          20.00        59.29
  224.27        2982.00           1658          21.00        63.64
  224.30        2982.25           1661          18.00        50.57
  224.33        2982.50           1665          18.00        50.57
  224.35        2982.75           1668          16.00        41.85
  224.38        2983.00           1671          20.00        59.29
  224.41        2983.25           1675          21.00        63.64
  224.44        2983.50           1678          17.00        46.21
  224.46        2983.75           1681          16.00        41.85
  224.49        2984.00           1685          22.00        68.00
HS scan finished at 03:44:41
end
