************************************************************
  HS Scan of (1) Internal mercury lamp
************************************************************
Integration time is 0.2294 seconds per sample
dh270917Tamanrasset 22.79-5.529 3.103284pr865
************************************************************
Dead Time -------------------------  2.8E-08 
Number of Cycles Used -------------  4 
Starting Wavelength (Angstroms) ---  2950 
Final Wavelength (Angstoms) -------  2984 
Wavelength Increment (Angstroms) --  .25 
Filter Wheel #1 Position ---------- (1) Ground quartz diffuser (ND=2.32)
Filter Wheel #2 Position ---------- (1) Neutral Density 0.494



************************************************************
HS scan start time = 03:40:48
Dark Count =  5.7 


Time (GMT)  Wavelength (Ang)  Step Number  Raw Counts  Counts/Second

  221.15        2950.00           1233          21.00        66.70
  221.22        2950.25           1236          18.00        53.62
  221.25        2950.50           1239          17.00        49.26
  221.27        2950.75           1242          21.00        66.70
  221.30        2951.00           1246          18.00        53.62
  221.33        2951.25           1249          20.00        62.34
  221.35        2951.50           1252          20.00        62.34
  221.38        2951.75           1256          17.00        49.26
  221.41        2952.00           1259          14.00        36.18
  221.44        2952.25           1262          17.00        49.26
  221.46        2952.50           1266          24.00        79.77
  221.49        2952.75           1269          18.00        53.62
  221.52        2953.00           1272          17.00        49.26
  221.55        2953.25           1276          19.00        57.98
  221.57        2953.50           1279          22.00        71.06
  221.60        2953.75           1282          20.00        62.34
  221.63        2954.00           1286          22.00        71.06
  221.66        2954.25           1289          20.00        62.34
  221.68        2954.50           1292          24.00        79.77
  221.71        2954.75           1295          18.00        53.62
  221.74        2955.00           1299          17.00        49.26
  221.76        2955.25           1302          18.00        53.62
  221.79        2955.50           1305          22.00        71.06
  221.82        2955.75           1309          22.00        71.06
  221.85        2956.00           1312          20.00        62.34
  221.87        2956.25           1315          17.00        49.26
  221.90        2956.50           1319          16.00        44.90
  221.93        2956.75           1322          21.00        66.70
  221.96        2957.00           1325          17.00        49.26
  221.98        2957.25           1329          21.00        66.70
  222.01        2957.50           1332          17.00        49.26
  222.04        2957.75           1335          20.00        62.34
  222.06        2958.00           1339          24.00        79.77
  222.09        2958.25           1342          14.00        36.18
  222.12        2958.50           1345          20.00        62.34
  222.15        2958.75           1348          21.00        66.70
  222.17        2959.00           1352          18.00        53.62
  222.20        2959.25           1355          20.00        62.34
  222.23        2959.50           1358          27.00        92.85
  222.26        2959.75           1362          21.00        66.70
  222.28        2960.00           1365          27.00        92.85
  222.31        2960.25           1368          29.00       101.57
  222.34        2960.50           1372          31.00       110.29
  222.36        2960.75           1375          44.00       166.96
  222.39        2961.00           1378         161.00       677.00
  222.42        2961.25           1382         801.00      3467.21
  222.45        2961.50           1385        1799.00      7819.06
  222.47        2961.75           1388        3432.00     14942.17
  222.50        2962.00           1392        6618.00     28847.61
  222.53        2962.25           1395        9204.00     40142.31
  222.56        2962.50           1398       12052.00     52589.59
  222.58        2962.75           1402       15721.00     68637.88
  222.61        2963.00           1405       18508.00     80837.96
  222.64        2963.25           1408       21229.00     92757.16
  222.67        2963.50           1412       24966.00    109139.90
  222.69        2963.75           1415       27870.00    121881.20
  222.72        2964.00           1418       30683.00    134232.00
  222.75        2964.25           1422       34297.00    150112.20
  222.78        2964.50           1425       37227.00    162997.20
  222.80        2964.75           1428       40021.00    175292.90
  222.83        2965.00           1431       43300.00    189733.70
  222.86        2965.25           1435       47084.00    206413.20
  222.89        2965.50           1438       49781.00    218310.80
  222.91        2965.75           1441       52612.00    230808.10
  222.94        2966.00           1445       56356.00    247349.30
  222.97        2966.25           1448       58712.00    257766.10
  223.00        2966.50           1451       60308.00    264826.10
  223.02        2966.75           1455       61500.00    270100.90
  223.05        2967.00           1458       61956.00    272119.10
  223.08        2967.25           1461       62050.00    272535.20
  223.11        2967.50           1465       61761.00    271256.00
  223.13        2967.75           1468       60987.00    267830.60
  223.16        2968.00           1471       59893.00    262990.10
  223.19        2968.25           1475       56886.00    249692.10
  223.22        2968.50           1478       54339.00    238436.20
  223.24        2968.75           1481       51635.00    226494.20
  223.27        2969.00           1485       47683.00    209054.90
  223.30        2969.25           1488       44526.00    195136.10
  223.33        2969.50           1491       41568.00    182104.50
  223.35        2969.75           1495       37277.00    163217.20
  223.38        2970.00           1498       34535.00    151158.50
  223.41        2970.25           1501       31694.00    138673.00
  223.44        2970.50           1505       27799.00    121569.60
  223.46        2970.75           1508       24789.00    108363.60
  223.49        2971.00           1511       22103.00     96587.37
  223.52        2971.25           1515       18307.00     79957.81
  223.55        2971.50           1518       15450.00     67452.03
  223.57        2971.75           1521       12525.00     54657.69
  223.60        2972.00           1525        8937.00     38975.82
  223.63        2972.25           1528        6124.00     26690.82
  223.66        2972.50           1531        3781.00     16464.87
  223.68        2972.75           1535        1474.00      6401.76
  223.71        2973.00           1538         544.00      2346.71
  223.74        2973.25           1541         156.00       655.20
  223.76        2973.50           1545          48.00       184.40
  223.79        2973.75           1548          42.00       158.24
  223.82        2974.00           1551          31.00       110.29
  223.85        2974.25           1555          28.00        97.21
  223.87        2974.50           1558          27.00        92.85
  223.90        2974.75           1561          28.00        97.21
  223.93        2975.00           1565          21.00        66.70
  223.96        2975.25           1568          24.00        79.77
  223.98        2975.50           1571          20.00        62.34
  224.01        2975.75           1575          28.00        97.21
  224.04        2976.00           1578          17.00        49.26
  224.06        2976.25           1581          20.00        62.34
  224.09        2976.50           1585          21.00        66.70
  224.12        2976.75           1588          22.00        71.06
  224.15        2977.00           1591          22.00        71.06
  224.17        2977.25           1595          20.00        62.34
  224.20        2977.50           1598          22.00        71.06
  224.23        2977.75           1601          19.00        57.98
  224.26        2978.00           1605          19.00        57.98
  224.28        2978.25           1608          21.00        66.70
  224.31        2978.50           1611          18.00        53.62
  224.34        2978.75           1615          21.00        66.70
  224.37        2979.00           1618          19.00        57.98
  224.39        2979.25           1621          18.00        53.62
  224.42        2979.50           1625          23.00        75.41
  224.45        2979.75           1628          24.00        79.77
  224.47        2980.00           1631          18.00        53.62
  224.50        2980.25           1635          23.00        75.41
  224.53        2980.50           1638          23.00        75.41
  224.56        2980.75           1641          15.00        40.54
  224.58        2981.00           1645          18.00        53.62
  224.61        2981.25           1648          21.00        66.70
  224.64        2981.50           1651          18.00        53.62
  224.67        2981.75           1655          21.00        66.70
  224.69        2982.00           1658          24.00        79.77
  224.72        2982.25           1661          24.00        79.77
  224.75        2982.50           1665          21.00        66.70
  224.77        2982.75           1668          18.00        53.62
  224.80        2983.00           1671          21.00        66.70
  224.83        2983.25           1675          21.00        66.70
  224.86        2983.50           1678          17.00        49.26
  224.88        2983.75           1681          22.00        71.06
  224.91        2984.00           1685          18.00        53.62
HS scan finished at 03:45:06
end
