************************************************************
  HS Scan of (1) Internal mercury lamp
************************************************************
Integration time is 0.2294 seconds per sample
dh061018Tamanrasset 22.79-5.529 4.974364pr865
************************************************************
Dead Time -------------------------  2.8E-08 
Number of Cycles Used -------------  4 
Starting Wavelength (Angstroms) ---  2950 
Final Wavelength (Angstoms) -------  2984 
Wavelength Increment (Angstroms) --  .25 
Filter Wheel #1 Position ---------- (1) Ground quartz diffuser (ND=2.32)
Filter Wheel #2 Position ---------- (1) Neutral Density 0.494



************************************************************
HS scan start time = 03:43:19
Dark Count =  4.1 


Time (GMT)  Wavelength (Ang)  Step Number  Raw Counts  Counts/Second

  223.68        2950.00           1233          19.00        64.95
  223.74        2950.25           1236          17.00        56.23
  223.77        2950.50           1239          19.00        64.95
  223.80        2950.75           1242          19.00        64.95
  223.82        2951.00           1246          18.00        60.59
  223.85        2951.25           1249          19.00        64.95
  223.88        2951.50           1252          24.00        86.75
  223.91        2951.75           1256          18.00        60.59
  223.93        2952.00           1259          18.00        60.59
  223.96        2952.25           1262          19.00        64.95
  223.99        2952.50           1266          21.00        73.67
  224.01        2952.75           1269          19.00        64.95
  224.04        2953.00           1272          18.00        60.59
  224.07        2953.25           1276          20.00        69.31
  224.10        2953.50           1279          19.00        64.95
  224.12        2953.75           1282          18.00        60.59
  224.15        2954.00           1286          16.00        51.87
  224.18        2954.25           1289          23.00        82.39
  224.20        2954.50           1292          18.00        60.59
  224.23        2954.75           1295          20.00        69.31
  224.26        2955.00           1299          22.00        78.03
  224.29        2955.25           1302          21.00        73.67
  224.31        2955.50           1305          21.00        73.67
  224.34        2955.75           1309          22.00        78.03
  224.37        2956.00           1312          16.00        51.87
  224.39        2956.25           1315          18.00        60.59
  224.42        2956.50           1319          20.00        69.31
  224.45        2956.75           1322          18.00        60.59
  224.48        2957.00           1325          17.00        56.23
  224.50        2957.25           1329          22.00        78.03
  224.53        2957.50           1332          20.00        69.31
  224.56        2957.75           1335          23.00        82.39
  224.58        2958.00           1339          21.00        73.67
  224.61        2958.25           1342          17.00        56.23
  224.64        2958.50           1345          21.00        73.67
  224.67        2958.75           1348          21.00        73.67
  224.69        2959.00           1352          22.00        78.03
  224.72        2959.25           1355          13.00        38.80
  224.75        2959.50           1358          23.00        82.39
  224.77        2959.75           1362          24.00        86.75
  224.80        2960.00           1365          26.00        95.47
  224.83        2960.25           1368          27.00        99.83
  224.86        2960.50           1372          33.00       125.98
  224.88        2960.75           1375          45.00       178.29
  224.91        2961.00           1378         118.00       496.52
  224.94        2961.25           1382         609.00      2637.07
  224.96        2961.50           1385        1400.00      6086.04
  224.99        2961.75           1388        2873.00     12510.49
  225.02        2962.00           1392        5617.00     24484.52
  225.05        2962.25           1395        8087.00     35269.77
  225.07        2962.50           1398       10755.00     46926.92
  225.10        2962.75           1402       14188.00     61937.76
  225.13        2963.00           1405       16959.00     74063.20
  225.16        2963.25           1408       19558.00     85443.49
  225.18        2963.50           1412       22795.00     99627.58
  225.21        2963.75           1415       25433.00    111195.30
  225.24        2964.00           1418       28285.00    123709.80
  225.27        2964.25           1422       31576.00    138161.60
  225.29        2964.50           1425       34081.00    149169.70
  225.32        2964.75           1428       36892.00    161530.60
  225.35        2965.00           1431       39369.00    172429.90
  225.38        2965.25           1435       42970.00    188286.90
  225.40        2965.50           1438       45741.00    200498.60
  225.43        2965.75           1441       48217.00    211417.40
  225.46        2966.00           1445       51843.00    227419.60
  225.48        2966.25           1448       54049.00    237162.10
  225.51        2966.50           1451       55660.00    244280.20
  225.54        2966.75           1455       57129.00    250773.40
  225.57        2967.00           1458       57492.00    252378.30
  225.59        2967.25           1461       57761.00    253567.70
  225.62        2967.50           1465       57483.00    252338.50
  225.65        2967.75           1468       56927.00    249880.40
  225.68        2968.00           1471       55916.00    245411.60
  225.70        2968.25           1475       53577.00    235077.10
  225.73        2968.50           1478       51309.00    225062.10
  225.76        2968.75           1481       48380.00    212136.50
  225.78        2969.00           1485       45032.00    197373.30
  225.81        2969.25           1488       42096.00    184436.90
  225.84        2969.50           1491       39337.00    172289.00
  225.87        2969.75           1495       35514.00    155470.00
  225.89        2970.00           1498       32704.00    143117.70
  225.92        2970.25           1501       30402.00    133004.90
  225.95        2970.50           1505       26512.00    115928.90
  225.98        2970.75           1508       23750.00    103814.40
  226.00        2971.00           1511       21008.00     91795.81
  226.03        2971.25           1515       17379.00     75901.78
  226.06        2971.50           1518       14690.00     64133.81
  226.09        2971.75           1521       12143.00     52994.45
  226.11        2972.00           1525        8791.00     38344.99
  226.14        2972.25           1528        6293.00     27435.63
  226.17        2972.50           1531        4016.00     17497.24
  226.19        2972.75           1535        1739.00      7564.38
  226.22        2973.00           1538         696.00      3016.38
  226.25        2973.25           1541         209.00       893.22
  226.28        2973.50           1545          50.00       200.09
  226.30        2973.75           1548          36.00       139.06
  226.33        2974.00           1551          31.00       117.26
  226.36        2974.25           1555          27.00        99.83
  226.39        2974.50           1558          21.00        73.67
  226.41        2974.75           1561          26.00        95.47
  226.44        2975.00           1565          20.00        69.31
  226.47        2975.25           1568          23.00        82.39
  226.49        2975.50           1571          21.00        73.67
  226.52        2975.75           1575          22.00        78.03
  226.55        2976.00           1578          23.00        82.39
  226.58        2976.25           1581          23.00        82.39
  226.60        2976.50           1585          25.00        91.11
  226.63        2976.75           1588          25.00        91.11
  226.66        2977.00           1591          23.00        82.39
  226.68        2977.25           1595          25.00        91.11
  226.71        2977.50           1598          20.00        69.31
  226.74        2977.75           1601          21.00        73.67
  226.77        2978.00           1605          22.00        78.03
  226.79        2978.25           1608          20.00        69.31
  226.82        2978.50           1611          19.00        64.95
  226.85        2978.75           1615          20.00        69.31
  226.87        2979.00           1618          18.00        60.59
  226.90        2979.25           1621          21.00        73.67
  226.93        2979.50           1625          24.00        86.75
  226.96        2979.75           1628          20.00        69.31
  226.98        2980.00           1631          22.00        78.03
  227.01        2980.25           1635          23.00        82.39
  227.04        2980.50           1638          20.00        69.31
  227.06        2980.75           1641          16.00        51.87
  227.09        2981.00           1645          17.00        56.23
  227.12        2981.25           1648          23.00        82.39
  227.15        2981.50           1651          23.00        82.39
  227.17        2981.75           1655          17.00        56.23
  227.20        2982.00           1658          22.00        78.03
  227.23        2982.25           1661          20.00        69.31
  227.25        2982.50           1665          20.00        69.31
  227.28        2982.75           1668          21.00        73.67
  227.31        2983.00           1671          15.00        47.52
  227.34        2983.25           1675          15.00        47.52
  227.36        2983.50           1678          21.00        73.67
  227.39        2983.75           1681          20.00        69.31
  227.42        2984.00           1685          18.00        60.59
HS scan finished at 03:47:36
end
