************************************************************
  HS Scan of (1) Internal mercury lamp
************************************************************
Integration time is 0.2294 seconds per sample
dh280917Tamanrasset 22.79-5.529 3.062497pr865
************************************************************
Dead Time -------------------------  2.8E-08 
Number of Cycles Used -------------  4 
Starting Wavelength (Angstroms) ---  2950 
Final Wavelength (Angstoms) -------  2984 
Wavelength Increment (Angstroms) --  .25 
Filter Wheel #1 Position ---------- (1) Ground quartz diffuser (ND=2.32)
Filter Wheel #2 Position ---------- (1) Neutral Density 0.494



************************************************************
HS scan start time = 03:40:20
Dark Count =  5.2 


Time (GMT)  Wavelength (Ang)  Step Number  Raw Counts  Counts/Second

  220.69        2950.00           1233          16.00        47.08
  220.75        2950.25           1236          16.00        47.08
  220.78        2950.50           1239          17.00        51.44
  220.81        2950.75           1242          17.00        51.44
  220.84        2951.00           1246          17.00        51.44
  220.86        2951.25           1249          19.00        60.16
  220.89        2951.50           1252          19.00        60.16
  220.92        2951.75           1256          18.00        55.80
  220.94        2952.00           1259          16.00        47.08
  220.97        2952.25           1262          19.00        60.16
  221.00        2952.50           1266          18.00        55.80
  221.03        2952.75           1269          18.00        55.80
  221.05        2953.00           1272          19.00        60.16
  221.08        2953.25           1276          18.00        55.80
  221.11        2953.50           1279          19.00        60.16
  221.14        2953.75           1282          18.00        55.80
  221.16        2954.00           1286          19.00        60.16
  221.19        2954.25           1289          18.00        55.80
  221.22        2954.50           1292          16.00        47.08
  221.24        2954.75           1295          20.00        64.52
  221.27        2955.00           1299          21.00        68.88
  221.30        2955.25           1302          19.00        60.16
  221.33        2955.50           1305          16.00        47.08
  221.35        2955.75           1309          21.00        68.88
  221.38        2956.00           1312          18.00        55.80
  221.41        2956.25           1315          22.00        73.23
  221.44        2956.50           1319          21.00        68.88
  221.46        2956.75           1322          18.00        55.80
  221.49        2957.00           1325          19.00        60.16
  221.52        2957.25           1329          21.00        68.88
  221.54        2957.50           1332          17.00        51.44
  221.57        2957.75           1335          21.00        68.88
  221.60        2958.00           1339          20.00        64.52
  221.63        2958.25           1342          19.00        60.16
  221.65        2958.50           1345          20.00        64.52
  221.68        2958.75           1348          18.00        55.80
  221.71        2959.00           1352          19.00        60.16
  221.74        2959.25           1355          19.00        60.16
  221.76        2959.50           1358          21.00        68.88
  221.79        2959.75           1362          23.00        77.59
  221.82        2960.00           1365          24.00        81.95
  221.84        2960.25           1368          31.00       112.47
  221.87        2960.50           1372          30.00       108.11
  221.90        2960.75           1375          43.00       164.78
  221.93        2961.00           1378         121.00       504.80
  221.95        2961.25           1382         583.00      2518.92
  221.98        2961.50           1385        1409.00      6120.49
  222.01        2961.75           1388        2920.00     12710.71
  222.04        2962.00           1392        5730.00     24972.99
  222.06        2962.25           1395        8596.00     37488.33
  222.09        2962.50           1398       11423.00     49841.96
  222.12        2962.75           1402       14671.00     64045.88
  222.15        2963.00           1405       17435.00     76142.11
  222.17        2963.25           1408       20300.00     88689.02
  222.20        2963.50           1412       23874.00    104353.30
  222.23        2963.75           1415       26666.00    116599.80
  222.26        2964.00           1418       29572.00    129355.20
  222.28        2964.25           1422       33137.00    145015.70
  222.31        2964.50           1425       35801.00    156727.30
  222.34        2964.75           1428       38868.00    170220.00
  222.37        2965.00           1431       41597.00    182234.40
  222.39        2965.25           1435       45653.00    200105.90
  222.42        2965.50           1438       48722.00    213640.40
  222.45        2965.75           1441       51225.00    224686.40
  222.48        2966.00           1445       54848.00    240687.20
  222.50        2966.25           1448       57144.00    250834.90
  222.53        2966.50           1451       58900.00    258599.80
  222.56        2966.75           1455       59902.00    263032.10
  222.59        2967.00           1458       60393.00    265204.40
  222.61        2967.25           1461       60651.00    266346.00
  222.64        2967.50           1465       60296.00    264775.30
  222.67        2967.75           1468       59694.00    262112.00
  222.69        2968.00           1471       58468.00    256689.20
  222.72        2968.25           1475       55624.00    244116.30
  222.75        2968.50           1478       53063.00    232802.00
  222.78        2968.75           1481       50451.00    221269.90
  222.80        2969.00           1485       46500.00    203840.20
  222.83        2969.25           1488       43613.00    191115.00
  222.86        2969.50           1491       40662.00    178117.20
  222.89        2969.75           1495       37023.00    162102.00
  222.91        2970.00           1498       34089.00    149200.00
  222.94        2970.25           1501       30833.00    134893.00
  222.97        2970.50           1505       27347.00    119588.10
  223.00        2970.75           1508       24384.00    106589.70
  223.02        2971.00           1511       21774.00     95147.66
  223.05        2971.25           1515       18057.00     78865.33
  223.08        2971.50           1518       15253.00     66592.24
  223.11        2971.75           1521       12395.00     54091.46
  223.13        2972.00           1525        8763.00     38217.86
  223.16        2972.25           1528        6007.00     26182.22
  223.19        2972.50           1531        3700.00     16113.64
  223.22        2972.75           1535        1580.00      6866.19
  223.24        2973.00           1538         554.00      2392.49
  223.27        2973.25           1541         168.00       709.69
  223.30        2973.50           1545          43.00       164.78
  223.33        2973.75           1548          35.00       129.90
  223.35        2974.00           1551          40.00       151.70
  223.38        2974.25           1555          26.00        90.67
  223.41        2974.50           1558          30.00       108.11
  223.43        2974.75           1561          22.00        73.23
  223.46        2975.00           1565          19.00        60.16
  223.49        2975.25           1568          21.00        68.88
  223.52        2975.50           1571          18.00        55.80
  223.54        2975.75           1575          22.00        73.23
  223.57        2976.00           1578          21.00        68.88
  223.60        2976.25           1581          27.00        95.03
  223.62        2976.50           1585          22.00        73.23
  223.65        2976.75           1588          22.00        73.23
  223.68        2977.00           1591          24.00        81.95
  223.71        2977.25           1595          22.00        73.23
  223.73        2977.50           1598          28.00        99.39
  223.76        2977.75           1601          24.00        81.95
  223.79        2978.00           1605          20.00        64.52
  223.82        2978.25           1608          21.00        68.88
  223.84        2978.50           1611          23.00        77.59
  223.87        2978.75           1615          19.00        60.16
  223.90        2979.00           1618          24.00        81.95
  223.93        2979.25           1621          22.00        73.23
  223.95        2979.50           1625          17.00        51.44
  223.98        2979.75           1628          21.00        68.88
  224.01        2980.00           1631          20.00        64.52
  224.04        2980.25           1635          22.00        73.23
  224.06        2980.50           1638          16.00        47.08
  224.09        2980.75           1641          20.00        64.52
  224.12        2981.00           1645          23.00        77.59
  224.14        2981.25           1648          18.00        55.80
  224.17        2981.50           1651          19.00        60.16
  224.20        2981.75           1655          21.00        68.88
  224.23        2982.00           1658          21.00        68.88
  224.25        2982.25           1661          17.00        51.44
  224.28        2982.50           1665          16.00        47.08
  224.31        2982.75           1668          18.00        55.80
  224.33        2983.00           1671          18.00        55.80
  224.36        2983.25           1675          24.00        81.95
  224.39        2983.50           1678          15.00        42.72
  224.42        2983.75           1681          22.00        73.23
  224.44        2984.00           1685          20.00        64.52
HS scan finished at 03:44:38
end
