************************************************************
  HS Scan of (1) Internal mercury lamp
************************************************************
Integration time is 0.2294 seconds per sample
dh131018Tamanrasset 22.79-5.529 4.974364pr865
************************************************************
Dead Time -------------------------  2.8E-08 
Number of Cycles Used -------------  4 
Starting Wavelength (Angstroms) ---  2950 
Final Wavelength (Angstoms) -------  2984 
Wavelength Increment (Angstroms) --  .25 
Filter Wheel #1 Position ---------- (1) Ground quartz diffuser (ND=2.32)
Filter Wheel #2 Position ---------- (1) Neutral Density 0.494



************************************************************
HS scan start time = 03:46:21
Dark Count =  2.9 


Time (GMT)  Wavelength (Ang)  Step Number  Raw Counts  Counts/Second

  226.71        2950.00           1233          18.00        65.82
  226.77        2950.25           1236          21.00        78.90
  226.80        2950.50           1239          15.00        52.75
  226.83        2950.75           1242          16.00        57.11
  226.85        2951.00           1246          24.00        91.98
  226.88        2951.25           1249          21.00        78.90
  226.91        2951.50           1252          20.00        74.54
  226.94        2951.75           1256          22.00        83.26
  226.96        2952.00           1259          23.00        87.62
  226.99        2952.25           1262          25.00        96.34
  227.02        2952.50           1266          18.00        65.82
  227.04        2952.75           1269          22.00        83.26
  227.07        2953.00           1272          18.00        65.82
  227.10        2953.25           1276          15.00        52.75
  227.13        2953.50           1279          22.00        83.26
  227.15        2953.75           1282          20.00        74.54
  227.18        2954.00           1286          20.00        74.54
  227.21        2954.25           1289          17.00        61.46
  227.23        2954.50           1292          23.00        87.62
  227.26        2954.75           1295          18.00        65.82
  227.29        2955.00           1299          17.00        61.46
  227.32        2955.25           1302          17.00        61.46
  227.34        2955.50           1305          21.00        78.90
  227.37        2955.75           1309          20.00        74.54
  227.40        2956.00           1312          19.00        70.18
  227.42        2956.25           1315          17.00        61.46
  227.45        2956.50           1319          24.00        91.98
  227.48        2956.75           1322          18.00        65.82
  227.51        2957.00           1325          20.00        74.54
  227.53        2957.25           1329          19.00        70.18
  227.56        2957.50           1332          20.00        74.54
  227.59        2957.75           1335          18.00        65.82
  227.61        2958.00           1339          19.00        70.18
  227.64        2958.25           1342          20.00        74.54
  227.67        2958.50           1345          23.00        87.62
  227.69        2958.75           1348          18.00        65.82
  227.72        2959.00           1352          22.00        83.26
  227.75        2959.25           1355          16.00        57.11
  227.78        2959.50           1358          23.00        87.62
  227.80        2959.75           1362          22.00        83.26
  227.83        2960.00           1365          25.00        96.34
  227.86        2960.25           1368          29.00       113.78
  227.89        2960.50           1372          28.00       109.42
  227.91        2960.75           1375          39.00       157.37
  227.94        2961.00           1378          91.00       384.05
  227.97        2961.25           1382         482.00      2088.61
  227.99        2961.50           1385        1162.00      5053.46
  228.02        2961.75           1388        2333.00     10160.26
  228.05        2962.00           1392        4904.00     21377.66
  228.08        2962.25           1395        7206.00     31427.38
  228.10        2962.50           1398        9857.00     43007.74
  228.13        2962.75           1402       13091.00     57144.98
  228.16        2963.00           1405       15673.00     68440.10
  228.19        2963.25           1408       18221.00     79593.50
  228.21        2963.50           1412       21659.00     94653.76
  228.24        2963.75           1415       24037.00    105078.10
  228.27        2964.00           1418       26642.00    116504.50
  228.29        2964.25           1422       29929.00    130932.90
  228.32        2964.50           1425       32588.00    142613.30
  228.35        2964.75           1428       35509.00    155453.30
  228.38        2965.00           1431       38236.00    167448.90
  228.40        2965.25           1435       41574.00    182143.20
  228.43        2965.50           1438       44126.00    193385.70
  228.46        2965.75           1441       46736.00    204890.90
  228.49        2966.00           1445       50445.00    221253.60
  228.51        2966.25           1448       52401.00    229888.70
  228.54        2966.50           1451       53962.00    236783.10
  228.57        2966.75           1455       55500.00    243578.50
  228.60        2967.00           1458       56154.00    246468.80
  228.62        2967.25           1461       56288.00    247061.10
  228.65        2967.50           1465       56137.00    246393.70
  228.68        2967.75           1468       55684.00    244391.60
  228.71        2968.00           1471       54746.00    240246.70
  228.73        2968.25           1475       52222.00    229098.30
  228.76        2968.50           1478       50086.00    219669.10
  228.79        2968.75           1481       47486.00    208198.40
  228.82        2969.00           1485       43999.00    192826.00
  228.84        2969.25           1488       41189.00    180447.80
  228.87        2969.50           1491       38469.00    168474.20
  228.90        2969.75           1495       35020.00    153303.10
  228.92        2970.00           1498       32141.00    140649.20
  228.95        2970.25           1501       29413.00    128667.20
  228.98        2970.50           1505       26089.00    114078.30
  229.01        2970.75           1508       23432.00    102425.40
  229.03        2971.00           1511       20650.00     90232.49
  229.06        2971.25           1515       17053.00     74479.91
  229.09        2971.50           1518       14524.00     63412.85
  229.12        2971.75           1521       12054.00     52610.57
  229.14        2972.00           1525        8578.00     37419.75
  229.17        2972.25           1528        6031.00     26297.04
  229.20        2972.50           1531        3960.00     17258.12
  229.22        2972.75           1535        1712.00      7451.86
  229.25        2973.00           1538         655.00      2842.86
  229.28        2973.25           1541         237.00      1020.52
  229.31        2973.50           1545          53.00       218.40
  229.33        2973.75           1548          38.00       153.01
  229.36        2974.00           1551          38.00       153.01
  229.39        2974.25           1555          29.00       113.78
  229.42        2974.50           1558          25.00        96.34
  229.44        2974.75           1561          25.00        96.34
  229.47        2975.00           1565          22.00        83.26
  229.50        2975.25           1568          19.00        70.18
  229.52        2975.50           1571          16.00        57.11
  229.55        2975.75           1575          20.00        74.54
  229.58        2976.00           1578          18.00        65.82
  229.61        2976.25           1581          19.00        70.18
  229.63        2976.50           1585          20.00        74.54
  229.66        2976.75           1588          22.00        83.26
  229.69        2977.00           1591          20.00        74.54
  229.71        2977.25           1595          27.00       105.06
  229.74        2977.50           1598          21.00        78.90
  229.77        2977.75           1601          19.00        70.18
  229.79        2978.00           1605          22.00        83.26
  229.82        2978.25           1608          25.00        96.34
  229.85        2978.50           1611          17.00        61.46
  229.88        2978.75           1615          23.00        87.62
  229.90        2979.00           1618          20.00        74.54
  229.93        2979.25           1621          22.00        83.26
  229.96        2979.50           1625          26.00       100.70
  229.99        2979.75           1628          16.00        57.11
  230.01        2980.00           1631          21.00        78.90
  230.04        2980.25           1635          22.00        83.26
  230.07        2980.50           1638          24.00        91.98
  230.09        2980.75           1641          22.00        83.26
  230.12        2981.00           1645          21.00        78.90
  230.15        2981.25           1648          19.00        70.18
  230.17        2981.50           1651          20.00        74.54
  230.20        2981.75           1655          20.00        74.54
  230.23        2982.00           1658          20.00        74.54
  230.26        2982.25           1661          20.00        74.54
  230.28        2982.50           1665          19.00        70.18
  230.31        2982.75           1668          19.00        70.18
  230.34        2983.00           1671          21.00        78.90
  230.37        2983.25           1675          23.00        87.62
  230.39        2983.50           1678          15.00        52.75
  230.42        2983.75           1681          20.00        74.54
  230.45        2984.00           1685          19.00        70.18
HS scan finished at 03:50:38
end
