************************************************************
  HS Scan of (1) Internal mercury lamp
************************************************************
Integration time is 0.2294 seconds per sample
dh141018Tamanrasset 22.79-5.529 4.974364pr865
************************************************************
Dead Time -------------------------  2.8E-08 
Number of Cycles Used -------------  4 
Starting Wavelength (Angstroms) ---  2950 
Final Wavelength (Angstoms) -------  2984 
Wavelength Increment (Angstroms) --  .25 
Filter Wheel #1 Position ---------- (1) Ground quartz diffuser (ND=2.32)
Filter Wheel #2 Position ---------- (1) Neutral Density 0.494



************************************************************
HS scan start time = 03:45:52
Dark Count =  3.1 


Time (GMT)  Wavelength (Ang)  Step Number  Raw Counts  Counts/Second

  226.22        2950.00           1233          17.00        60.59
  226.29        2950.25           1236          19.00        69.31
  226.31        2950.50           1239          19.00        69.31
  226.34        2950.75           1242          19.00        69.31
  226.37        2951.00           1246          15.00        51.87
  226.40        2951.25           1249          18.00        64.95
  226.42        2951.50           1252          24.00        91.11
  226.45        2951.75           1256          16.00        56.23
  226.48        2952.00           1259          21.00        78.03
  226.50        2952.25           1262          16.00        56.23
  226.53        2952.50           1266          15.00        51.87
  226.56        2952.75           1269          23.00        86.75
  226.59        2953.00           1272          19.00        69.31
  226.61        2953.25           1276          19.00        69.31
  226.64        2953.50           1279          16.00        56.23
  226.67        2953.75           1282          21.00        78.03
  226.69        2954.00           1286          21.00        78.03
  226.72        2954.25           1289          23.00        86.75
  226.75        2954.50           1292          20.00        73.67
  226.78        2954.75           1295          20.00        73.67
  226.80        2955.00           1299          18.00        64.95
  226.83        2955.25           1302          19.00        69.31
  226.86        2955.50           1305          17.00        60.59
  226.88        2955.75           1309          20.00        73.67
  226.91        2956.00           1312          19.00        69.31
  226.94        2956.25           1315          23.00        86.75
  226.97        2956.50           1319          16.00        56.23
  226.99        2956.75           1322          20.00        73.67
  227.02        2957.00           1325          22.00        82.39
  227.05        2957.25           1329          22.00        82.39
  227.07        2957.50           1332          20.00        73.67
  227.10        2957.75           1335          23.00        86.75
  227.13        2958.00           1339          23.00        86.75
  227.16        2958.25           1342          19.00        69.31
  227.18        2958.50           1345          18.00        64.95
  227.21        2958.75           1348          19.00        69.31
  227.24        2959.00           1352          20.00        73.67
  227.26        2959.25           1355          20.00        73.67
  227.29        2959.50           1358          24.00        91.11
  227.32        2959.75           1362          25.00        95.47
  227.35        2960.00           1365          21.00        78.03
  227.37        2960.25           1368          24.00        91.11
  227.40        2960.50           1372          35.00       139.06
  227.43        2960.75           1375          37.00       147.78
  227.46        2961.00           1378         100.00       422.41
  227.48        2961.25           1382         514.00      2227.25
  227.51        2961.50           1385        1204.00      5235.73
  227.54        2961.75           1388        2494.00     10861.63
  227.56        2962.00           1392        5015.00     21861.24
  227.59        2962.25           1395        7421.00     32365.41
  227.62        2962.50           1398        9721.00     42412.60
  227.65        2962.75           1402       13027.00     56864.23
  227.67        2963.00           1405       15595.00     68097.90
  227.70        2963.25           1408       17938.00     78353.50
  227.73        2963.50           1412       21279.00     92987.65
  227.76        2963.75           1415       23636.00    103319.00
  227.78        2964.00           1418       26186.00    114503.00
  227.81        2964.25           1422       29399.00    128604.80
  227.84        2964.50           1425       31883.00    139514.70
  227.87        2964.75           1428       34592.00    151420.50
  227.89        2965.00           1431       37277.00    163228.60
  227.92        2965.25           1435       40769.00    178597.50
  227.95        2965.50           1438       43497.00    190613.10
  227.98        2965.75           1441       45572.00    199758.00
  228.00        2966.00           1445       49168.00    215617.40
  228.03        2966.25           1448       51310.00    225070.90
  228.06        2966.50           1451       52803.00    231663.10
  228.08        2966.75           1455       54543.00    239348.90
  228.11        2967.00           1458       54940.00    241103.00
  228.14        2967.25           1461       54851.00    240709.70
  228.17        2967.50           1465       55137.00    241973.50
  228.19        2967.75           1468       54195.00    237811.50
  228.22        2968.00           1471       53500.00    234741.40
  228.25        2968.25           1475       51472.00    225786.10
  228.28        2968.50           1478       49144.00    215511.50
  228.30        2968.75           1481       46536.00    204008.20
  228.33        2969.00           1485       43022.00    188520.40
  228.36        2969.25           1488       40435.00    177127.00
  228.39        2969.50           1491       37610.00    164693.70
  228.41        2969.75           1495       34253.00    149930.20
  228.44        2970.00           1498       31635.00    138425.20
  228.47        2970.25           1501       29169.00    127595.00
  228.50        2970.50           1505       25640.00    112107.70
  228.52        2970.75           1508       23120.00    101056.70
  228.55        2971.00           1511       20721.00     90542.69
  228.58        2971.25           1515       17331.00     75696.02
  228.60        2971.50           1518       14510.00     63350.73
  228.63        2971.75           1521       12105.00     52832.69
  228.66        2972.00           1525        8820.00     38476.04
  228.69        2972.25           1528        6180.00     26946.66
  228.71        2972.50           1531        4032.00     17571.42
  228.74        2972.75           1535        1727.00      7516.40
  228.77        2973.00           1538         696.00      3020.74
  228.79        2973.25           1541         219.00       941.18
  228.82        2973.50           1545          55.00       226.24
  228.85        2973.75           1548          36.00       143.42
  228.88        2974.00           1551          33.00       130.34
  228.90        2974.25           1555          31.00       121.62
  228.93        2974.50           1558          25.00        95.47
  228.96        2974.75           1561          26.00        99.83
  228.99        2975.00           1565          23.00        86.75
  229.01        2975.25           1568          25.00        95.47
  229.04        2975.50           1571          24.00        91.11
  229.07        2975.75           1575          23.00        86.75
  229.09        2976.00           1578          19.00        69.31
  229.12        2976.25           1581          23.00        86.75
  229.15        2976.50           1585          22.00        82.39
  229.18        2976.75           1588          26.00        99.83
  229.20        2977.00           1591          24.00        91.11
  229.23        2977.25           1595          18.00        64.95
  229.26        2977.50           1598          21.00        78.03
  229.28        2977.75           1601          22.00        82.39
  229.31        2978.00           1605          22.00        82.39
  229.34        2978.25           1608          18.00        64.95
  229.37        2978.50           1611          19.00        69.31
  229.39        2978.75           1615          21.00        78.03
  229.42        2979.00           1618          21.00        78.03
  229.45        2979.25           1621          21.00        78.03
  229.47        2979.50           1625          21.00        78.03
  229.50        2979.75           1628          25.00        95.47
  229.53        2980.00           1631          21.00        78.03
  229.56        2980.25           1635          18.00        64.95
  229.58        2980.50           1638          24.00        91.11
  229.61        2980.75           1641          21.00        78.03
  229.64        2981.00           1645          23.00        86.75
  229.66        2981.25           1648          21.00        78.03
  229.69        2981.50           1651          18.00        64.95
  229.72        2981.75           1655          18.00        64.95
  229.75        2982.00           1658          22.00        82.39
  229.77        2982.25           1661          16.00        56.23
  229.80        2982.50           1665          19.00        69.31
  229.83        2982.75           1668          14.00        47.52
  229.85        2983.00           1671          19.00        69.31
  229.88        2983.25           1675          17.00        60.59
  229.91        2983.50           1678          22.00        82.39
  229.94        2983.75           1681          19.00        69.31
  229.96        2984.00           1685          16.00        56.23
HS scan finished at 03:50:09
end
