************************************************************
  HS Scan of (1) Internal mercury lamp
************************************************************
Integration time is 0.2294 seconds per sample
dh111018Tamanrasset 22.79-5.529 4.974364pr865
************************************************************
Dead Time -------------------------  2.8E-08 
Number of Cycles Used -------------  4 
Starting Wavelength (Angstroms) ---  2950 
Final Wavelength (Angstoms) -------  2984 
Wavelength Increment (Angstroms) --  .25 
Filter Wheel #1 Position ---------- (1) Ground quartz diffuser (ND=2.32)
Filter Wheel #2 Position ---------- (1) Neutral Density 0.494



************************************************************
HS scan start time = 03:45:19
Dark Count =  2.8 


Time (GMT)  Wavelength (Ang)  Step Number  Raw Counts  Counts/Second

  225.68        2950.00           1233          22.00        83.70
  225.74        2950.25           1236          20.00        74.98
  225.77        2950.50           1239          18.00        66.26
  225.80        2950.75           1242          23.00        88.06
  225.82        2951.00           1246          21.00        79.34
  225.85        2951.25           1249          18.00        66.26
  225.88        2951.50           1252          25.00        96.77
  225.91        2951.75           1256          24.00        92.42
  225.93        2952.00           1259          23.00        88.06
  225.96        2952.25           1262          20.00        74.98
  225.99        2952.50           1266          19.00        70.62
  226.01        2952.75           1269          20.00        74.98
  226.04        2953.00           1272          22.00        83.70
  226.07        2953.25           1276          17.00        61.90
  226.10        2953.50           1279          20.00        74.98
  226.12        2953.75           1282          14.00        48.82
  226.15        2954.00           1286          19.00        70.62
  226.18        2954.25           1289          22.00        83.70
  226.21        2954.50           1292          17.00        61.90
  226.23        2954.75           1295          18.00        66.26
  226.26        2955.00           1299          21.00        79.34
  226.29        2955.25           1302          19.00        70.62
  226.31        2955.50           1305          23.00        88.06
  226.34        2955.75           1309          24.00        92.42
  226.37        2956.00           1312          25.00        96.77
  226.40        2956.25           1315          18.00        66.26
  226.42        2956.50           1319          18.00        66.26
  226.45        2956.75           1322          21.00        79.34
  226.48        2957.00           1325          15.00        53.18
  226.50        2957.25           1329          19.00        70.62
  226.53        2957.50           1332          18.00        66.26
  226.56        2957.75           1335          20.00        74.98
  226.59        2958.00           1339          20.00        74.98
  226.61        2958.25           1342          19.00        70.62
  226.64        2958.50           1345          18.00        66.26
  226.67        2958.75           1348          18.00        66.26
  226.69        2959.00           1352          19.00        70.62
  226.72        2959.25           1355          19.00        70.62
  226.75        2959.50           1358          17.00        61.90
  226.78        2959.75           1362          20.00        74.98
  226.80        2960.00           1365          19.00        70.62
  226.83        2960.25           1368          28.00       109.85
  226.86        2960.50           1372          28.00       109.85
  226.88        2960.75           1375          35.00       140.37
  226.91        2961.00           1378          71.00       297.30
  226.94        2961.25           1382         347.00      1500.50
  226.97        2961.50           1385         972.00      4225.43
  226.99        2961.75           1388        2158.00      9397.42
  227.02        2962.00           1392        4550.00     19833.16
  227.05        2962.25           1395        6841.00     29833.98
  227.07        2962.50           1398        9454.00     41247.26
  227.10        2962.75           1402       12719.00     55518.67
  227.13        2963.00           1405       15370.00     67114.68
  227.16        2963.25           1408       17856.00     77995.78
  227.18        2963.50           1412       21496.00     93939.88
  227.21        2963.75           1415       23944.00    104670.70
  227.24        2964.00           1418       26505.00    115903.90
  227.27        2964.25           1422       29961.00    131073.90
  227.29        2964.50           1425       32818.00    143624.40
  227.32        2964.75           1428       35149.00    153870.70
  227.35        2965.00           1431       38031.00    166547.30
  227.38        2965.25           1435       41549.00    182033.60
  227.40        2965.50           1438       44149.00    193487.40
  227.43        2965.75           1441       46777.00    205072.20
  227.46        2966.00           1445       50162.00    220005.00
  227.48        2966.25           1448       52608.00    230803.30
  227.51        2966.50           1451       54332.00    238418.00
  227.54        2966.75           1455       56060.00    246053.80
  227.57        2967.00           1458       56687.00    248825.20
  227.59        2967.25           1461       57139.00    250823.40
  227.62        2967.50           1465       57217.00    251168.20
  227.65        2967.75           1468       56778.00    249227.50
  227.68        2968.00           1471       55973.00    245669.30
  227.70        2968.25           1475       53738.00    235794.00
  227.73        2968.50           1478       51690.00    226749.80
  227.76        2968.75           1481       49133.00    215464.20
  227.79        2969.00           1485       45576.00    199777.00
  227.81        2969.25           1488       42719.00    187186.90
  227.84        2969.50           1491       39617.00    173527.20
  227.87        2969.75           1495       36395.00    159350.20
  227.90        2970.00           1498       33434.00    146331.60
  227.92        2970.25           1501       30561.00    133708.90
  227.95        2970.50           1505       27172.00    118830.70
  227.98        2970.75           1508       24337.00    106394.10
  228.00        2971.00           1511       21371.00     93392.11
  228.03        2971.25           1515       18011.00     78674.43
  228.06        2971.50           1518       15209.00     66410.21
  228.09        2971.75           1521       12485.00     54495.48
  228.11        2972.00           1525        9039.00     39434.10
  228.14        2972.25           1528        6678.00     29122.26
  228.17        2972.50           1531        4477.00     19514.58
  228.20        2972.75           1535        1921.00      8363.77
  228.22        2973.00           1538         793.00      3444.97
  228.25        2973.25           1541         253.00      1090.70
  228.28        2973.50           1545          64.00       266.78
  228.30        2973.75           1548          43.00       175.24
  228.33        2974.00           1551          35.00       140.37
  228.36        2974.25           1555          31.00       122.93
  228.39        2974.50           1558          28.00       109.85
  228.41        2974.75           1561          24.00        92.42
  228.44        2975.00           1565          26.00       101.13
  228.47        2975.25           1568          19.00        70.62
  228.49        2975.50           1571          20.00        74.98
  228.52        2975.75           1575          23.00        88.06
  228.55        2976.00           1578          25.00        96.77
  228.58        2976.25           1581          21.00        79.34
  228.60        2976.50           1585          24.00        92.42
  228.63        2976.75           1588          23.00        88.06
  228.66        2977.00           1591          26.00       101.13
  228.68        2977.25           1595          22.00        83.70
  228.71        2977.50           1598          19.00        70.62
  228.74        2977.75           1601          16.00        57.54
  228.77        2978.00           1605          21.00        79.34
  228.79        2978.25           1608          18.00        66.26
  228.82        2978.50           1611          19.00        70.62
  228.85        2978.75           1615          21.00        79.34
  228.87        2979.00           1618          23.00        88.06
  228.90        2979.25           1621          21.00        79.34
  228.93        2979.50           1625          22.00        83.70
  228.96        2979.75           1628          22.00        83.70
  228.98        2980.00           1631          19.00        70.62
  229.01        2980.25           1635          24.00        92.42
  229.04        2980.50           1638          15.00        53.18
  229.06        2980.75           1641          19.00        70.62
  229.09        2981.00           1645          24.00        92.42
  229.12        2981.25           1648          23.00        88.06
  229.15        2981.50           1651          19.00        70.62
  229.17        2981.75           1655          17.00        61.90
  229.20        2982.00           1658          22.00        83.70
  229.23        2982.25           1661          21.00        79.34
  229.25        2982.50           1665          22.00        83.70
  229.28        2982.75           1668          25.00        96.77
  229.31        2983.00           1671          19.00        70.62
  229.34        2983.25           1675          17.00        61.90
  229.36        2983.50           1678          16.00        57.54
  229.39        2983.75           1681          19.00        70.62
  229.42        2984.00           1685          19.00        70.62
HS scan finished at 03:49:36
end
