************************************************************
  HS Scan of (1) Internal mercury lamp
************************************************************
Integration time is 0.2294 seconds per sample
dh151018Tamanrasset 22.79-5.529 4.974364pr865
************************************************************
Dead Time -------------------------  2.8E-08 
Number of Cycles Used -------------  4 
Starting Wavelength (Angstroms) ---  2950 
Final Wavelength (Angstoms) -------  2984 
Wavelength Increment (Angstroms) --  .25 
Filter Wheel #1 Position ---------- (1) Ground quartz diffuser (ND=2.32)
Filter Wheel #2 Position ---------- (1) Neutral Density 0.494



************************************************************
HS scan start time = 03:47:22
Dark Count =  3.7 


Time (GMT)  Wavelength (Ang)  Step Number  Raw Counts  Counts/Second

  227.72        2950.00           1233          23.00        84.13
  227.78        2950.25           1236          18.00        62.34
  227.81        2950.50           1239          18.00        62.34
  227.84        2950.75           1242          23.00        84.13
  227.86        2951.00           1246          19.00        66.70
  227.89        2951.25           1249          20.00        71.06
  227.92        2951.50           1252          17.00        57.98
  227.95        2951.75           1256          23.00        84.13
  227.97        2952.00           1259          19.00        66.70
  228.00        2952.25           1262          21.00        75.41
  228.03        2952.50           1266          23.00        84.13
  228.05        2952.75           1269          24.00        88.49
  228.08        2953.00           1272          20.00        71.06
  228.11        2953.25           1276          21.00        75.41
  228.14        2953.50           1279          23.00        84.13
  228.16        2953.75           1282          20.00        71.06
  228.19        2954.00           1286          19.00        66.70
  228.22        2954.25           1289          19.00        66.70
  228.24        2954.50           1292          17.00        57.98
  228.27        2954.75           1295          19.00        66.70
  228.30        2955.00           1299          19.00        66.70
  228.33        2955.25           1302          23.00        84.13
  228.35        2955.50           1305          22.00        79.77
  228.38        2955.75           1309          16.00        53.62
  228.41        2956.00           1312          23.00        84.13
  228.43        2956.25           1315          19.00        66.70
  228.46        2956.50           1319          25.00        92.85
  228.49        2956.75           1322          18.00        62.34
  228.52        2957.00           1325          19.00        66.70
  228.54        2957.25           1329          21.00        75.41
  228.57        2957.50           1332          17.00        57.98
  228.60        2957.75           1335          18.00        62.34
  228.62        2958.00           1339          24.00        88.49
  228.65        2958.25           1342          18.00        62.34
  228.68        2958.50           1345          17.00        57.98
  228.71        2958.75           1348          19.00        66.70
  228.73        2959.00           1352          20.00        71.06
  228.76        2959.25           1355          20.00        71.06
  228.79        2959.50           1358          16.00        53.62
  228.81        2959.75           1362          25.00        92.85
  228.84        2960.00           1365          20.00        71.06
  228.87        2960.25           1368          26.00        97.21
  228.90        2960.50           1372          32.00       123.37
  228.92        2960.75           1375          33.00       127.72
  228.95        2961.00           1378         110.00       463.39
  228.98        2961.25           1382         477.00      2063.33
  229.00        2961.50           1385        1188.00      5163.35
  229.03        2961.75           1388        2414.00     10510.07
  229.06        2962.00           1392        5024.00     21897.90
  229.09        2962.25           1395        7355.00     32074.57
  229.11        2962.50           1398        9945.00     43388.78
  229.14        2962.75           1402       13232.00     57758.11
  229.17        2963.00           1405       15787.00     68935.46
  229.20        2963.25           1408       18429.00     80500.78
  229.22        2963.50           1412       21482.00     93874.59
  229.25        2963.75           1415       24089.00    105302.60
  229.28        2964.00           1418       26886.00    117571.70
  229.30        2964.25           1422       30215.00    132185.40
  229.33        2964.50           1425       32960.00    144244.50
  229.36        2964.75           1428       35541.00    155590.50
  229.39        2965.00           1431       37846.00    165729.40
  229.41        2965.25           1435       41423.00    181474.70
  229.44        2965.50           1438       44028.00    192950.30
  229.47        2965.75           1441       46280.00    202876.70
  229.50        2966.00           1445       49984.00    219215.50
  229.52        2966.25           1448       52145.00    228754.80
  229.55        2966.50           1451       54055.00    237190.40
  229.58        2966.75           1455       55687.00    244401.30
  229.61        2967.00           1458       55978.00    245687.40
  229.63        2967.25           1461       56148.00    246438.80
  229.66        2967.50           1465       56138.00    246394.60
  229.69        2967.75           1468       55866.00    245192.40
  229.71        2968.00           1471       54676.00    239933.90
  229.74        2968.25           1475       52590.00    230719.80
  229.77        2968.50           1478       50297.00    220596.80
  229.80        2968.75           1481       47760.00    209403.40
  229.82        2969.00           1485       44516.00    195100.80
  229.85        2969.25           1488       41513.00    181871.10
  229.88        2969.50           1491       38928.00    170490.70
  229.91        2969.75           1495       35365.00    154816.60
  229.93        2970.00           1498       32638.00    142829.40
  229.96        2970.25           1501       30062.00    131513.50
  229.99        2970.50           1505       26425.00    115548.90
  230.01        2970.75           1508       23661.00    103425.90
  230.04        2971.00           1511       21080.00     92113.04
  230.07        2971.25           1515       17640.00     77046.16
  230.10        2971.50           1518       14879.00     64962.44
  230.12        2971.75           1521       12284.00     53612.68
  230.15        2972.00           1525        8963.00     39098.14
  230.18        2972.25           1528        6464.00     28183.96
  230.21        2972.50           1531        4146.00     18066.24
  230.23        2972.75           1535        1743.00      7583.56
  230.26        2973.00           1538         761.00      3301.53
  230.29        2973.25           1541         247.00      1060.62
  230.31        2973.50           1545          60.00       245.42
  230.34        2973.75           1548          36.00       140.80
  230.37        2974.00           1551          37.00       145.16
  230.40        2974.25           1555          25.00        92.85
  230.42        2974.50           1558          23.00        84.13
  230.45        2974.75           1561          23.00        84.13
  230.48        2975.00           1565          17.00        57.98
  230.50        2975.25           1568          23.00        84.13
  230.53        2975.50           1571          22.00        79.77
  230.56        2975.75           1575          28.00       105.93
  230.59        2976.00           1578          20.00        71.06
  230.61        2976.25           1581          20.00        71.06
  230.64        2976.50           1585          22.00        79.77
  230.67        2976.75           1588          25.00        92.85
  230.69        2977.00           1591          21.00        75.41
  230.72        2977.25           1595          19.00        66.70
  230.75        2977.50           1598          23.00        84.13
  230.78        2977.75           1601          21.00        75.41
  230.80        2978.00           1605          20.00        71.06
  230.83        2978.25           1608          22.00        79.77
  230.86        2978.50           1611          21.00        75.41
  230.89        2978.75           1615          21.00        75.41
  230.91        2979.00           1618          20.00        71.06
  230.94        2979.25           1621          18.00        62.34
  230.97        2979.50           1625          20.00        71.06
  230.99        2979.75           1628          19.00        66.70
  231.02        2980.00           1631          23.00        84.13
  231.05        2980.25           1635          18.00        62.34
  231.08        2980.50           1638          23.00        84.13
  231.10        2980.75           1641          19.00        66.70
  231.13        2981.00           1645          22.00        79.77
  231.16        2981.25           1648          19.00        66.70
  231.18        2981.50           1651          23.00        84.13
  231.21        2981.75           1655          19.00        66.70
  231.24        2982.00           1658          17.00        57.98
  231.27        2982.25           1661          20.00        71.06
  231.29        2982.50           1665          19.00        66.70
  231.32        2982.75           1668          20.00        71.06
  231.35        2983.00           1671          20.00        71.06
  231.37        2983.25           1675          22.00        79.77
  231.40        2983.50           1678          21.00        75.41
  231.43        2983.75           1681          15.00        49.26
  231.46        2984.00           1685          20.00        71.06
HS scan finished at 03:51:39
end
