************************************************************
  HS Scan of (1) Internal mercury lamp
************************************************************
Integration time is 0.2294 seconds per sample
dh081018Tamanrasset 22.79-5.529 4.974364pr865
************************************************************
Dead Time -------------------------  2.8E-08 
Number of Cycles Used -------------  4 
Starting Wavelength (Angstroms) ---  2950 
Final Wavelength (Angstoms) -------  2984 
Wavelength Increment (Angstroms) --  .25 
Filter Wheel #1 Position ---------- (1) Ground quartz diffuser (ND=2.32)
Filter Wheel #2 Position ---------- (1) Neutral Density 0.494



************************************************************
HS scan start time = 03:44:15
Dark Count =  5.5 


Time (GMT)  Wavelength (Ang)  Step Number  Raw Counts  Counts/Second

  224.61        2950.00           1233          21.00        67.57
  224.68        2950.25           1236          21.00        67.57
  224.70        2950.50           1239          20.00        63.21
  224.73        2950.75           1242          16.00        45.77
  224.76        2951.00           1246          17.00        50.13
  224.78        2951.25           1249          22.00        71.93
  224.81        2951.50           1252          20.00        63.21
  224.84        2951.75           1256          18.00        54.49
  224.87        2952.00           1259          19.00        58.85
  224.89        2952.25           1262          20.00        63.21
  224.92        2952.50           1266          18.00        54.49
  224.95        2952.75           1269          19.00        58.85
  224.98        2953.00           1272          22.00        71.93
  225.00        2953.25           1276          18.00        54.49
  225.03        2953.50           1279          19.00        58.85
  225.06        2953.75           1282          21.00        67.57
  225.08        2954.00           1286          18.00        54.49
  225.11        2954.25           1289          23.00        76.29
  225.14        2954.50           1292          18.00        54.49
  225.17        2954.75           1295          22.00        71.93
  225.19        2955.00           1299          22.00        71.93
  225.22        2955.25           1302          22.00        71.93
  225.25        2955.50           1305          17.00        50.13
  225.27        2955.75           1309          18.00        54.49
  225.30        2956.00           1312          22.00        71.93
  225.33        2956.25           1315          21.00        67.57
  225.36        2956.50           1319          18.00        54.49
  225.38        2956.75           1322          19.00        58.85
  225.41        2957.00           1325          21.00        67.57
  225.44        2957.25           1329          18.00        54.49
  225.46        2957.50           1332          18.00        54.49
  225.49        2957.75           1335          22.00        71.93
  225.52        2958.00           1339          16.00        45.77
  225.55        2958.25           1342          18.00        54.49
  225.57        2958.50           1345          17.00        50.13
  225.60        2958.75           1348          21.00        67.57
  225.63        2959.00           1352          19.00        58.85
  225.65        2959.25           1355          23.00        76.29
  225.68        2959.50           1358          20.00        63.21
  225.71        2959.75           1362          23.00        76.29
  225.74        2960.00           1365          25.00        85.00
  225.76        2960.25           1368          30.00       106.80
  225.79        2960.50           1372          32.00       115.52
  225.82        2960.75           1375          36.00       132.96
  225.84        2961.00           1378          98.00       403.23
  225.87        2961.25           1382         470.00      2024.96
  225.90        2961.50           1385        1135.00      4924.39
  225.93        2961.75           1388        2404.00     10458.60
  225.95        2962.00           1392        4853.00     21143.73
  225.98        2962.25           1395        7226.00     31503.37
  226.01        2962.50           1398        9672.00     42187.99
  226.04        2962.75           1402       12897.00     56285.24
  226.06        2963.00           1405       15524.00     67776.72
  226.09        2963.25           1408       18176.00     79385.06
  226.12        2963.50           1412       21369.00     93371.52
  226.14        2963.75           1415       24143.00    105531.50
  226.17        2964.00           1418       26710.00    116791.50
  226.20        2964.25           1422       30184.00    132041.30
  226.23        2964.50           1425       32711.00    143142.30
  226.25        2964.75           1428       35352.00    154751.50
  226.28        2965.00           1431       37808.00    165554.20
  226.31        2965.25           1435       41446.00    181568.10
  226.34        2965.50           1438       43980.00    192730.80
  226.36        2965.75           1441       46721.00    204813.30
  226.39        2966.00           1445       50065.00    219565.00
  226.42        2966.25           1448       52201.00    228994.10
  226.44        2966.50           1451       53857.00    236307.80
  226.47        2966.75           1455       55357.00    242935.00
  226.50        2967.00           1458       56168.00    246519.20
  226.53        2967.25           1461       56156.00    246466.20
  226.55        2967.50           1465       55967.00    245630.90
  226.58        2967.75           1468       55446.00    243328.30
  226.61        2968.00           1471       54489.00    239099.70
  226.64        2968.25           1475       52404.00    229890.50
  226.66        2968.50           1478       50145.00    219918.10
  226.69        2968.75           1481       47499.00    208244.30
  226.72        2969.00           1485       44367.00    194436.20
  226.75        2969.25           1488       41353.00    181158.50
  226.77        2969.50           1491       38522.00    168696.00
  226.80        2969.75           1495       35291.00    154483.30
  226.83        2970.00           1498       32256.00    141143.00
  226.86        2970.25           1501       29757.00    130166.20
  226.88        2970.50           1505       26026.00    113790.50
  226.91        2970.75           1508       23921.00    104558.10
  226.94        2971.00           1511       20925.00     91425.99
  226.96        2971.25           1515       17337.00     75711.77
  226.99        2971.50           1518       14808.00     64643.93
  227.02        2971.75           1521       12320.00     53762.21
  227.05        2972.00           1525        8886.00     38753.89
  227.07        2972.25           1528        6371.00     27770.06
  227.10        2972.50           1531        4141.00     18036.57
  227.13        2972.75           1535        1690.00      7344.58
  227.16        2973.00           1538         648.00      2801.00
  227.18        2973.25           1541         204.00       865.32
  227.21        2973.50           1545          51.00       198.34
  227.24        2973.75           1548          37.00       137.32
  227.26        2974.00           1551          32.00       115.52
  227.29        2974.25           1555          33.00       119.88
  227.32        2974.50           1558          26.00        89.36
  227.35        2974.75           1561          21.00        67.57
  227.37        2975.00           1565          24.00        80.65
  227.40        2975.25           1568          27.00        93.72
  227.43        2975.50           1571          24.00        80.65
  227.45        2975.75           1575          22.00        71.93
  227.48        2976.00           1578          18.00        54.49
  227.51        2976.25           1581          20.00        63.21
  227.54        2976.50           1585          24.00        80.65
  227.56        2976.75           1588          20.00        63.21
  227.59        2977.00           1591          20.00        63.21
  227.62        2977.25           1595          19.00        58.85
  227.64        2977.50           1598          23.00        76.29
  227.67        2977.75           1601          22.00        71.93
  227.70        2978.00           1605          22.00        71.93
  227.73        2978.25           1608          18.00        54.49
  227.75        2978.50           1611          18.00        54.49
  227.78        2978.75           1615          16.00        45.77
  227.81        2979.00           1618          25.00        85.00
  227.84        2979.25           1621          18.00        54.49
  227.86        2979.50           1625          21.00        67.57
  227.89        2979.75           1628          23.00        76.29
  227.92        2980.00           1631          25.00        85.00
  227.94        2980.25           1635          21.00        67.57
  227.97        2980.50           1638          22.00        71.93
  228.00        2980.75           1641          25.00        85.00
  228.02        2981.00           1645          23.00        76.29
  228.05        2981.25           1648          20.00        63.21
  228.08        2981.50           1651          22.00        71.93
  228.11        2981.75           1655          21.00        67.57
  228.13        2982.00           1658          18.00        54.49
  228.16        2982.25           1661          21.00        67.57
  228.19        2982.50           1665          19.00        58.85
  228.22        2982.75           1668          18.00        54.49
  228.24        2983.00           1671          20.00        63.21
  228.27        2983.25           1675          18.00        54.49
  228.30        2983.50           1678          20.00        63.21
  228.32        2983.75           1681          15.00        41.41
  228.35        2984.00           1685          18.00        54.49
HS scan finished at 03:48:32
end
