************************************************************
  HS Scan of (1) Internal mercury lamp
************************************************************
Integration time is 0.2294 seconds per sample
dh161018Tamanrasset 22.79-5.529 4.974364pr865
************************************************************
Dead Time -------------------------  2.8E-08 
Number of Cycles Used -------------  4 
Starting Wavelength (Angstroms) ---  2950 
Final Wavelength (Angstoms) -------  2984 
Wavelength Increment (Angstroms) --  .25 
Filter Wheel #1 Position ---------- (1) Ground quartz diffuser (ND=2.32)
Filter Wheel #2 Position ---------- (1) Neutral Density 0.494



************************************************************
HS scan start time = 03:47:57
Dark Count =  5 


Time (GMT)  Wavelength (Ang)  Step Number  Raw Counts  Counts/Second

  228.31        2950.00           1233          23.00        78.47
  228.37        2950.25           1236          20.00        65.39
  228.40        2950.50           1239          19.00        61.03
  228.43        2950.75           1242          18.00        56.67
  228.45        2951.00           1246          21.00        69.75
  228.48        2951.25           1249          21.00        69.75
  228.51        2951.50           1252          21.00        69.75
  228.53        2951.75           1256          15.00        43.59
  228.56        2952.00           1259          18.00        56.67
  228.59        2952.25           1262          13.00        34.87
  228.62        2952.50           1266          21.00        69.75
  228.64        2952.75           1269          20.00        65.39
  228.67        2953.00           1272          18.00        56.67
  228.70        2953.25           1276          22.00        74.11
  228.72        2953.50           1279          20.00        65.39
  228.75        2953.75           1282          21.00        69.75
  228.78        2954.00           1286          17.00        52.31
  228.81        2954.25           1289          21.00        69.75
  228.83        2954.50           1292          21.00        69.75
  228.86        2954.75           1295          23.00        78.47
  228.89        2955.00           1299          18.00        56.67
  228.91        2955.25           1302          15.00        43.59
  228.94        2955.50           1305          17.00        52.31
  228.97        2955.75           1309          23.00        78.47
  229.00        2956.00           1312          22.00        74.11
  229.02        2956.25           1315          15.00        43.59
  229.05        2956.50           1319          19.00        61.03
  229.08        2956.75           1322          23.00        78.47
  229.10        2957.00           1325          20.00        65.39
  229.13        2957.25           1329          20.00        65.39
  229.16        2957.50           1332          22.00        74.11
  229.19        2957.75           1335          19.00        61.03
  229.21        2958.00           1339          23.00        78.47
  229.24        2958.25           1342          16.00        47.95
  229.27        2958.50           1345          17.00        52.31
  229.29        2958.75           1348          22.00        74.11
  229.32        2959.00           1352          24.00        82.82
  229.35        2959.25           1355          22.00        74.11
  229.38        2959.50           1358          22.00        74.11
  229.40        2959.75           1362          25.00        87.18
  229.43        2960.00           1365          23.00        78.47
  229.46        2960.25           1368          24.00        82.82
  229.49        2960.50           1372          30.00       108.98
  229.51        2960.75           1375          36.00       135.14
  229.54        2961.00           1378          95.00       392.33
  229.57        2961.25           1382         465.00      2005.34
  229.59        2961.50           1385        1210.00      5253.61
  229.62        2961.75           1388        2510.00     10923.13
  229.65        2962.00           1392        5232.00     22800.08
  229.68        2962.25           1395        7606.00     33165.05
  229.70        2962.50           1398       10183.00     44423.14
  229.73        2962.75           1402       13290.00     58006.08
  229.76        2963.00           1405       15990.00     69818.13
  229.79        2963.25           1408       18699.00     81677.43
  229.81        2963.50           1412       21973.00     96020.68
  229.84        2963.75           1415       24478.00    107002.80
  229.87        2964.00           1418       27326.00    119496.80
  229.89        2964.25           1422       30647.00    134076.90
  229.92        2964.50           1425       32939.00    144146.50
  229.95        2964.75           1428       35980.00    157515.30
  229.98        2965.00           1431       38672.00    169358.30
  230.00        2965.25           1435       42136.00    184609.20
  230.03        2965.50           1438       44904.00    196805.10
  230.06        2965.75           1441       47769.00    209437.30
  230.09        2966.00           1445       50918.00    223332.10
  230.11        2966.25           1448       53258.00    233664.20
  230.14        2966.50           1451       54857.00    240727.90
  230.17        2966.75           1455       56460.00    247812.10
  230.20        2967.00           1458       57005.00    250221.30
  230.22        2967.25           1461       57069.00    250504.20
  230.25        2967.50           1465       56893.00    249726.10
  230.28        2967.75           1468       56222.00    246760.10
  230.30        2968.00           1471       55180.00    242155.10
  230.33        2968.25           1475       52823.00    231743.00
  230.36        2968.50           1478       50414.00    221107.50
  230.39        2968.75           1481       48025.00    210566.50
  230.41        2969.00           1485       44134.00    193411.60
  230.44        2969.25           1488       41718.00    182768.20
  230.47        2969.50           1491       39051.00    171026.30
  230.50        2969.75           1495       35173.00    153966.60
  230.52        2970.00           1498       32315.00    141404.40
  230.55        2970.25           1501       29698.00    129909.40
  230.58        2970.50           1505       26130.00    114249.00
  230.61        2970.75           1508       23525.00    102823.90
  230.63        2971.00           1511       20830.00     91011.93
  230.66        2971.25           1515       17337.00     75713.96
  230.69        2971.50           1518       14682.00     64094.87
  230.72        2971.75           1521       12187.00     53182.89
  230.74        2972.00           1525        8738.00     38109.52
  230.77        2972.25           1528        6253.00     27257.07
  230.80        2972.50           1531        3952.00     17214.05
  230.82        2972.75           1535        1687.00      7333.68
  230.85        2973.00           1538         682.00      2951.42
  230.88        2973.25           1541         221.00       941.61
  230.91        2973.50           1545          49.00       191.81
  230.93        2973.75           1548          38.00       143.85
  230.96        2974.00           1551          33.00       122.06
  230.99        2974.25           1555          35.00       130.78
  231.01        2974.50           1558          29.00       104.62
  231.04        2974.75           1561          23.00        78.47
  231.07        2975.00           1565          18.00        56.67
  231.10        2975.25           1568          24.00        82.82
  231.12        2975.50           1571          25.00        87.18
  231.15        2975.75           1575          28.00       100.26
  231.18        2976.00           1578          23.00        78.47
  231.20        2976.25           1581          23.00        78.47
  231.23        2976.50           1585          18.00        56.67
  231.26        2976.75           1588          22.00        74.11
  231.29        2977.00           1591          25.00        87.18
  231.31        2977.25           1595          20.00        65.39
  231.34        2977.50           1598          20.00        65.39
  231.37        2977.75           1601          22.00        74.11
  231.39        2978.00           1605          20.00        65.39
  231.42        2978.25           1608          23.00        78.47
  231.45        2978.50           1611          22.00        74.11
  231.48        2978.75           1615          23.00        78.47
  231.50        2979.00           1618          24.00        82.82
  231.53        2979.25           1621          18.00        56.67
  231.56        2979.50           1625          21.00        69.75
  231.58        2979.75           1628          21.00        69.75
  231.61        2980.00           1631          22.00        74.11
  231.64        2980.25           1635          22.00        74.11
  231.67        2980.50           1638          18.00        56.67
  231.69        2980.75           1641          21.00        69.75
  231.72        2981.00           1645          15.00        43.59
  231.75        2981.25           1648          23.00        78.47
  231.77        2981.50           1651          21.00        69.75
  231.80        2981.75           1655          25.00        87.18
  231.83        2982.00           1658          19.00        61.03
  231.86        2982.25           1661          20.00        65.39
  231.88        2982.50           1665          22.00        74.11
  231.91        2982.75           1668          22.00        74.11
  231.94        2983.00           1671          22.00        74.11
  231.96        2983.25           1675          18.00        56.67
  231.99        2983.50           1678          20.00        65.39
  232.02        2983.75           1681          19.00        61.03
  232.05        2984.00           1685          16.00        47.95
HS scan finished at 03:52:14
end
