************************************************************
  HS Scan of (1) Internal mercury lamp
************************************************************
Integration time is 0.2294 seconds per sample
dh071018Tamanrasset 22.79-5.529 4.974364pr865
************************************************************
Dead Time -------------------------  2.8E-08 
Number of Cycles Used -------------  4 
Starting Wavelength (Angstroms) ---  2950 
Final Wavelength (Angstoms) -------  2984 
Wavelength Increment (Angstroms) --  .25 
Filter Wheel #1 Position ---------- (1) Ground quartz diffuser (ND=2.32)
Filter Wheel #2 Position ---------- (1) Neutral Density 0.494



************************************************************
HS scan start time = 03:43:14
Dark Count =  5.6 


Time (GMT)  Wavelength (Ang)  Step Number  Raw Counts  Counts/Second

  223.58        2950.00           1233          19.00        58.41
  223.65        2950.25           1236          19.00        58.41
  223.67        2950.50           1239          20.00        62.77
  223.70        2950.75           1242          19.00        58.41
  223.73        2951.00           1246          21.00        67.13
  223.76        2951.25           1249          23.00        75.85
  223.78        2951.50           1252          20.00        62.77
  223.81        2951.75           1256          19.00        58.41
  223.84        2952.00           1259          22.00        71.49
  223.86        2952.25           1262          21.00        67.13
  223.89        2952.50           1266          14.00        36.62
  223.92        2952.75           1269          22.00        71.49
  223.95        2953.00           1272          18.00        54.05
  223.97        2953.25           1276          19.00        58.41
  224.00        2953.50           1279          26.00        88.93
  224.03        2953.75           1282          19.00        58.41
  224.05        2954.00           1286          21.00        67.13
  224.08        2954.25           1289          17.00        49.69
  224.11        2954.50           1292          18.00        54.05
  224.14        2954.75           1295          18.00        54.05
  224.16        2955.00           1299          20.00        62.77
  224.19        2955.25           1302          20.00        62.77
  224.22        2955.50           1305          20.00        62.77
  224.24        2955.75           1309          19.00        58.41
  224.27        2956.00           1312          18.00        54.05
  224.30        2956.25           1315          20.00        62.77
  224.32        2956.50           1319          17.00        49.69
  224.35        2956.75           1322          18.00        54.05
  224.38        2957.00           1325          20.00        62.77
  224.41        2957.25           1329          14.00        36.62
  224.43        2957.50           1332          19.00        58.41
  224.46        2957.75           1335          17.00        49.69
  224.49        2958.00           1339          17.00        49.69
  224.52        2958.25           1342          24.00        80.21
  224.54        2958.50           1345          23.00        75.85
  224.57        2958.75           1348          18.00        54.05
  224.60        2959.00           1352          22.00        71.49
  224.62        2959.25           1355          23.00        75.85
  224.65        2959.50           1358          22.00        71.49
  224.68        2959.75           1362          27.00        93.29
  224.71        2960.00           1365          21.00        67.13
  224.73        2960.25           1368          29.00       102.01
  224.76        2960.50           1372          27.00        93.29
  224.79        2960.75           1375          40.00       149.96
  224.81        2961.00           1378         109.00       450.75
  224.84        2961.25           1382         491.00      2116.08
  224.87        2961.50           1385        1320.00      5730.65
  224.90        2961.75           1388        2605.00     11334.90
  224.92        2962.00           1392        5357.00     23343.07
  224.95        2962.25           1395        7782.00     33931.09
  224.98        2962.50           1398       10448.00     45578.62
  225.00        2962.75           1402       14017.00     61183.19
  225.03        2963.00           1405       16458.00     71863.73
  225.06        2963.25           1408       19182.00     83790.08
  225.09        2963.50           1412       22517.00     98402.41
  225.11        2963.75           1415       25119.00    109811.40
  225.14        2964.00           1418       28035.00    122605.90
  225.17        2964.25           1422       31565.00    138106.70
  225.20        2964.50           1425       34177.00    149585.10
  225.22        2964.75           1428       36983.00    161924.30
  225.25        2965.00           1431       39748.00    174091.60
  225.28        2965.25           1435       43229.00    189421.40
  225.30        2965.50           1438       46125.00    202185.00
  225.33        2965.75           1441       48762.00    213815.10
  225.36        2966.00           1445       52422.00    229969.50
  225.39        2966.25           1448       54605.00    239611.80
  225.41        2966.50           1451       56441.00    247725.40
  225.44        2966.75           1455       57561.00    252676.70
  225.47        2967.00           1458       58471.00    256700.70
  225.50        2967.25           1461       58322.00    256041.80
  225.52        2967.50           1465       58265.00    255789.70
  225.55        2967.75           1468       57795.00    253711.40
  225.58        2968.00           1471       56826.00    249427.30
  225.61        2968.25           1475       54154.00    237619.30
  225.63        2968.50           1478       51951.00    227889.80
  225.66        2968.75           1481       49236.00    215906.40
  225.69        2969.00           1485       45597.00    199857.20
  225.71        2969.25           1488       42766.00    187381.60
  225.74        2969.50           1491       39824.00    174426.10
  225.77        2969.75           1495       36121.00    158132.80
  225.80        2970.00           1498       33311.00    145778.70
  225.82        2970.25           1501       30581.00    133784.40
  225.85        2970.50           1505       26540.00    116045.20
  225.88        2970.75           1508       23971.00    104776.90
  225.91        2971.00           1511       21204.00     92648.06
  225.93        2971.25           1515       17472.00     76302.35
  225.96        2971.50           1518       14707.00     64201.62
  225.99        2971.75           1521       12107.00     52830.49
  226.01        2972.00           1525        8478.00     36971.12
  226.04        2972.25           1528        6021.00     26241.60
  226.07        2972.50           1531        3764.00     16391.13
  226.10        2972.75           1535        1532.00      6655.12
  226.12        2973.00           1538         565.00      2438.70
  226.15        2973.25           1541         159.00       668.71
  226.18        2973.50           1545          49.00       189.19
  226.21        2973.75           1548          36.00       132.52
  226.23        2974.00           1551          32.00       115.08
  226.26        2974.25           1555          25.00        84.57
  226.29        2974.50           1558          24.00        80.21
  226.32        2974.75           1561          20.00        62.77
  226.34        2975.00           1565          23.00        75.85
  226.37        2975.25           1568          25.00        84.57
  226.40        2975.50           1571          23.00        75.85
  226.42        2975.75           1575          22.00        71.49
  226.45        2976.00           1578          17.00        49.69
  226.48        2976.25           1581          16.00        45.34
  226.51        2976.50           1585          17.00        49.69
  226.53        2976.75           1588          23.00        75.85
  226.56        2977.00           1591          25.00        84.57
  226.59        2977.25           1595          22.00        71.49
  226.61        2977.50           1598          26.00        88.93
  226.64        2977.75           1601          21.00        67.13
  226.67        2978.00           1605          20.00        62.77
  226.70        2978.25           1608          23.00        75.85
  226.72        2978.50           1611          18.00        54.05
  226.75        2978.75           1615          19.00        58.41
  226.78        2979.00           1618          21.00        67.13
  226.80        2979.25           1621          27.00        93.29
  226.83        2979.50           1625          21.00        67.13
  226.86        2979.75           1628          20.00        62.77
  226.89        2980.00           1631          25.00        84.57
  226.91        2980.25           1635          20.00        62.77
  226.94        2980.50           1638          19.00        58.41
  226.97        2980.75           1641          18.00        54.05
  226.99        2981.00           1645          24.00        80.21
  227.02        2981.25           1648          20.00        62.77
  227.05        2981.50           1651          21.00        67.13
  227.08        2981.75           1655          22.00        71.49
  227.10        2982.00           1658          20.00        62.77
  227.13        2982.25           1661          17.00        49.69
  227.16        2982.50           1665          20.00        62.77
  227.18        2982.75           1668          21.00        67.13
  227.21        2983.00           1671          22.00        71.49
  227.24        2983.25           1675          21.00        67.13
  227.27        2983.50           1678          20.00        62.77
  227.29        2983.75           1681          16.00        45.34
  227.32        2984.00           1685          17.00        49.69
HS scan finished at 03:47:30
end
