************************************************************
  HS Scan of (1) Internal mercury lamp
************************************************************
Integration time is 0.2294 seconds per sample
dh091018Tamanrasset 22.79-5.529 4.974364pr865
************************************************************
Dead Time -------------------------  2.8E-08 
Number of Cycles Used -------------  4 
Starting Wavelength (Angstroms) ---  2950 
Final Wavelength (Angstoms) -------  2984 
Wavelength Increment (Angstroms) --  .25 
Filter Wheel #1 Position ---------- (1) Ground quartz diffuser (ND=2.32)
Filter Wheel #2 Position ---------- (1) Neutral Density 0.494



************************************************************
HS scan start time = 03:44:20
Dark Count =  4.7 


Time (GMT)  Wavelength (Ang)  Step Number  Raw Counts  Counts/Second

  224.68        2950.00           1233          21.00        71.06
  224.75        2950.25           1236          20.00        66.70
  224.77        2950.50           1239          18.00        57.98
  224.80        2950.75           1242          18.00        57.98
  224.83        2951.00           1246          24.00        84.13
  224.86        2951.25           1249          20.00        66.70
  224.88        2951.50           1252          21.00        71.06
  224.91        2951.75           1256          24.00        84.13
  224.94        2952.00           1259          16.00        49.26
  224.96        2952.25           1262          19.00        62.34
  224.99        2952.50           1266          20.00        66.70
  225.02        2952.75           1269          18.00        57.98
  225.05        2953.00           1272          21.00        71.06
  225.07        2953.25           1276          18.00        57.98
  225.10        2953.50           1279          24.00        84.13
  225.13        2953.75           1282          21.00        71.06
  225.15        2954.00           1286          19.00        62.34
  225.18        2954.25           1289          21.00        71.06
  225.21        2954.50           1292          17.00        53.62
  225.24        2954.75           1295          17.00        53.62
  225.26        2955.00           1299          23.00        79.77
  225.29        2955.25           1302          18.00        57.98
  225.32        2955.50           1305          19.00        62.34
  225.35        2955.75           1309          19.00        62.34
  225.37        2956.00           1312          20.00        66.70
  225.40        2956.25           1315          20.00        66.70
  225.43        2956.50           1319          18.00        57.98
  225.45        2956.75           1322          21.00        71.06
  225.48        2957.00           1325          20.00        66.70
  225.51        2957.25           1329          21.00        71.06
  225.53        2957.50           1332          22.00        75.41
  225.56        2957.75           1335          21.00        71.06
  225.59        2958.00           1339          19.00        62.34
  225.62        2958.25           1342          20.00        66.70
  225.64        2958.50           1345          20.00        66.70
  225.67        2958.75           1348          20.00        66.70
  225.70        2959.00           1352          22.00        75.41
  225.72        2959.25           1355          16.00        49.26
  225.75        2959.50           1358          25.00        88.49
  225.78        2959.75           1362          26.00        92.85
  225.81        2960.00           1365          18.00        57.98
  225.83        2960.25           1368          23.00        79.77
  225.86        2960.50           1372          27.00        97.21
  225.89        2960.75           1375          40.00       153.88
  225.91        2961.00           1378          83.00       341.33
  225.94        2961.25           1382         433.00      1867.14
  225.97        2961.50           1385        1094.00      4749.11
  226.00        2961.75           1388        2282.00      9929.96
  226.02        2962.00           1392        4802.00     20924.64
  226.05        2962.25           1395        7109.00     30995.94
  226.08        2962.50           1398        9644.00     42069.14
  226.11        2962.75           1402       12670.00     55296.10
  226.13        2963.00           1405       15207.00     66393.15
  226.16        2963.25           1408       17805.00     77764.18
  226.19        2963.50           1412       20972.00     91635.43
  226.21        2963.75           1415       23380.00    102189.60
  226.24        2964.00           1418       26156.00    114364.30
  226.27        2964.25           1422       29165.00    127570.40
  226.30        2964.50           1425       31673.00    138585.10
  226.32        2964.75           1428       34528.00    151132.10
  226.35        2965.00           1431       36966.00    161853.50
  226.38        2965.25           1435       40501.00    177410.50
  226.41        2965.50           1438       43111.00    188905.50
  226.43        2965.75           1441       45699.00    200310.80
  226.46        2966.00           1445       49090.00    215266.20
  226.49        2966.25           1448       50945.00    223452.60
  226.51        2966.50           1451       52692.00    231165.80
  226.54        2966.75           1455       54196.00    237808.80
  226.57        2967.00           1458       54890.00    240875.00
  226.60        2967.25           1461       55026.00    241476.00
  226.62        2967.50           1465       54904.00    240936.90
  226.65        2967.75           1468       54535.00    239306.50
  226.68        2968.00           1471       53486.00    234672.50
  226.71        2968.25           1475       51357.00    225271.30
  226.73        2968.50           1478       49415.00    216700.20
  226.76        2968.75           1481       46878.00    205509.10
  226.79        2969.00           1485       43507.00    190650.20
  226.82        2969.25           1488       40657.00    178097.30
  226.84        2969.50           1491       37947.00    166169.40
  226.87        2969.75           1495       34448.00    150780.40
  226.90        2970.00           1498       31819.00    139226.50
  226.92        2970.25           1501       29434.00    128751.50
  226.95        2970.50           1505       25796.00    112785.00
  226.98        2970.75           1508       23057.00    100773.50
  227.01        2971.00           1511       20537.00     89729.52
  227.03        2971.25           1515       17114.00     74739.07
  227.06        2971.50           1518       14621.00     63829.32
  227.09        2971.75           1521       12036.00     52524.01
  227.12        2972.00           1525        8596.00     37490.51
  227.14        2972.25           1528        6260.00     27288.93
  227.17        2972.50           1531        4181.00     18214.61
  227.20        2972.75           1535        1765.00      7675.15
  227.22        2973.00           1538         726.00      3144.57
  227.25        2973.25           1541         267.00      1143.45
  227.28        2973.50           1545          61.00       245.42
  227.31        2973.75           1548          36.00       136.44
  227.33        2974.00           1551          36.00       136.44
  227.36        2974.25           1555          28.00       101.57
  227.39        2974.50           1558          21.00        71.06
  227.41        2974.75           1561          24.00        84.13
  227.44        2975.00           1565          24.00        84.13
  227.47        2975.25           1568          28.00       101.57
  227.50        2975.50           1571          19.00        62.34
  227.52        2975.75           1575          18.00        57.98
  227.55        2976.00           1578          23.00        79.77
  227.58        2976.25           1581          21.00        71.06
  227.60        2976.50           1585          22.00        75.41
  227.63        2976.75           1588          22.00        75.41
  227.66        2977.00           1591          19.00        62.34
  227.69        2977.25           1595          19.00        62.34
  227.71        2977.50           1598          24.00        84.13
  227.74        2977.75           1601          22.00        75.41
  227.77        2978.00           1605          19.00        62.34
  227.79        2978.25           1608          24.00        84.13
  227.82        2978.50           1611          20.00        66.70
  227.85        2978.75           1615          22.00        75.41
  227.88        2979.00           1618          23.00        79.77
  227.90        2979.25           1621          16.00        49.26
  227.93        2979.50           1625          17.00        53.62
  227.96        2979.75           1628          25.00        88.49
  227.98        2980.00           1631          23.00        79.77
  228.01        2980.25           1635          17.00        53.62
  228.04        2980.50           1638          20.00        66.70
  228.07        2980.75           1641          24.00        84.13
  228.09        2981.00           1645          18.00        57.98
  228.12        2981.25           1648          19.00        62.34
  228.15        2981.50           1651          17.00        53.62
  228.17        2981.75           1655          17.00        53.62
  228.20        2982.00           1658          16.00        49.26
  228.23        2982.25           1661          24.00        84.13
  228.26        2982.50           1665          21.00        71.06
  228.28        2982.75           1668          18.00        57.98
  228.31        2983.00           1671          22.00        75.41
  228.34        2983.25           1675          20.00        66.70
  228.36        2983.50           1678          20.00        66.70
  228.39        2983.75           1681          20.00        66.70
  228.42        2984.00           1685          17.00        53.62
HS scan finished at 03:48:36
end
