************************************************************
  HS Scan of (1) Internal mercury lamp
************************************************************
Integration time is 0.2294 seconds per sample
dh121018Tamanrasset 22.79-5.529 4.974364pr865
************************************************************
Dead Time -------------------------  2.8E-08 
Number of Cycles Used -------------  4 
Starting Wavelength (Angstroms) ---  2950 
Final Wavelength (Angstoms) -------  2984 
Wavelength Increment (Angstroms) --  .25 
Filter Wheel #1 Position ---------- (1) Ground quartz diffuser (ND=2.32)
Filter Wheel #2 Position ---------- (1) Neutral Density 0.494



************************************************************
HS scan start time = 03:46:19
Dark Count =  4.8 


Time (GMT)  Wavelength (Ang)  Step Number  Raw Counts  Counts/Second

  226.67        2950.00           1233          22.00        74.98
  226.73        2950.25           1236          18.00        57.54
  226.76        2950.50           1239          15.00        44.46
  226.79        2950.75           1242          17.00        53.18
  226.82        2951.00           1246          15.00        44.46
  226.84        2951.25           1249          17.00        53.18
  226.87        2951.50           1252          19.00        61.90
  226.90        2951.75           1256          17.00        53.18
  226.92        2952.00           1259          19.00        61.90
  226.95        2952.25           1262          22.00        74.98
  226.98        2952.50           1266          14.00        40.10
  227.01        2952.75           1269          21.00        70.62
  227.03        2953.00           1272          20.00        66.26
  227.06        2953.25           1276          20.00        66.26
  227.09        2953.50           1279          19.00        61.90
  227.11        2953.75           1282          19.00        61.90
  227.14        2954.00           1286          17.00        53.18
  227.17        2954.25           1289          17.00        53.18
  227.20        2954.50           1292          18.00        57.54
  227.22        2954.75           1295          18.00        57.54
  227.25        2955.00           1299          21.00        70.62
  227.28        2955.25           1302          20.00        66.26
  227.31        2955.50           1305          19.00        61.90
  227.33        2955.75           1309          14.00        40.10
  227.36        2956.00           1312          21.00        70.62
  227.39        2956.25           1315          21.00        70.62
  227.41        2956.50           1319          19.00        61.90
  227.44        2956.75           1322          25.00        88.06
  227.47        2957.00           1325          18.00        57.54
  227.49        2957.25           1329          19.00        61.90
  227.52        2957.50           1332          19.00        61.90
  227.55        2957.75           1335          18.00        57.54
  227.58        2958.00           1339          20.00        66.26
  227.60        2958.25           1342          20.00        66.26
  227.63        2958.50           1345          18.00        57.54
  227.66        2958.75           1348          16.00        48.82
  227.68        2959.00           1352          19.00        61.90
  227.71        2959.25           1355          18.00        57.54
  227.74        2959.50           1358          24.00        83.70
  227.77        2959.75           1362          26.00        92.42
  227.79        2960.00           1365          24.00        83.70
  227.82        2960.25           1368          27.00        96.77
  227.85        2960.50           1372          30.00       109.85
  227.88        2960.75           1375          35.00       131.65
  227.90        2961.00           1378          71.00       288.58
  227.93        2961.25           1382         358.00      1539.74
  227.96        2961.50           1385         988.00      4286.48
  227.98        2961.75           1388        2125.00      9244.76
  228.01        2962.00           1392        4731.00     20614.34
  228.04        2962.25           1395        7027.00     30637.43
  228.07        2962.50           1398        9801.00     42754.73
  228.09        2962.75           1402       13451.00     58711.08
  228.12        2963.00           1405       16202.00     70746.81
  228.15        2963.25           1408       18754.00     81919.15
  228.17        2963.50           1412       22163.00     96854.28
  228.20        2963.75           1415       25016.00    109363.20
  228.23        2964.00           1418       27742.00    121323.40
  228.26        2964.25           1422       31290.00    136902.10
  228.28        2964.50           1425       34321.00    150221.70
  228.31        2964.75           1428       36953.00    161795.90
  228.34        2965.00           1431       39712.00    173936.60
  228.37        2965.25           1435       43776.00    191835.00
  228.39        2965.50           1438       46326.00    203074.70
  228.42        2965.75           1441       49286.00    216130.50
  228.45        2966.00           1445       52931.00    232220.80
  228.48        2966.25           1448       55386.00    243066.30
  228.50        2966.50           1451       57278.00    251429.10
  228.53        2966.75           1455       58975.00    258933.30
  228.56        2967.00           1458       59644.00    261892.50
  228.59        2967.25           1461       60105.00    263932.00
  228.61        2967.50           1465       60047.00    263675.40
  228.64        2967.75           1468       59630.00    261830.60
  228.67        2968.00           1471       58512.00    256885.60
  228.69        2968.25           1475       56413.00    247605.20
  228.72        2968.50           1478       53934.00    236651.00
  228.75        2968.75           1481       51348.00    225231.10
  228.78        2969.00           1485       47316.00    207440.30
  228.80        2969.25           1488       44415.00    194650.90
  228.83        2969.50           1491       41734.00    182839.50
  228.86        2969.75           1495       37879.00    165869.70
  228.89        2970.00           1498       34817.00    152402.20
  228.91        2970.25           1501       32088.00    140407.90
  228.94        2970.50           1505       28457.00    124461.80
  228.97        2970.75           1508       25408.00    111082.60
  229.00        2971.00           1511       22606.00     98796.02
  229.02        2971.25           1515       19013.00     83053.43
  229.05        2971.50           1518       16242.00     70921.88
  229.08        2971.75           1521       13332.00     58190.64
  229.11        2972.00           1525        9713.00     42370.21
  229.13        2972.25           1528        7185.00     31327.38
  229.16        2972.50           1531        4647.00     20247.74
  229.19        2972.75           1535        2112.00      9188.07
  229.21        2973.00           1538         851.00      3689.13
  229.24        2973.25           1541         303.00      1299.96
  229.27        2973.50           1545          60.00       240.63
  229.30        2973.75           1548          39.00       149.09
  229.32        2974.00           1551          33.00       122.93
  229.35        2974.25           1555          29.00       105.49
  229.38        2974.50           1558          29.00       105.49
  229.41        2974.75           1561          31.00       114.21
  229.43        2975.00           1565          19.00        61.90
  229.46        2975.25           1568          27.00        96.77
  229.49        2975.50           1571          23.00        79.34
  229.51        2975.75           1575          21.00        70.62
  229.54        2976.00           1578          21.00        70.62
  229.57        2976.25           1581          21.00        70.62
  229.60        2976.50           1585          26.00        92.42
  229.62        2976.75           1588          25.00        88.06
  229.65        2977.00           1591          26.00        92.42
  229.68        2977.25           1595          20.00        66.26
  229.70        2977.50           1598          20.00        66.26
  229.73        2977.75           1601          25.00        88.06
  229.76        2978.00           1605          19.00        61.90
  229.79        2978.25           1608          21.00        70.62
  229.81        2978.50           1611          21.00        70.62
  229.84        2978.75           1615          22.00        74.98
  229.87        2979.00           1618          24.00        83.70
  229.89        2979.25           1621          22.00        74.98
  229.92        2979.50           1625          22.00        74.98
  229.95        2979.75           1628          21.00        70.62
  229.98        2980.00           1631          21.00        70.62
  230.00        2980.25           1635          17.00        53.18
  230.03        2980.50           1638          23.00        79.34
  230.06        2980.75           1641          17.00        53.18
  230.09        2981.00           1645          19.00        61.90
  230.11        2981.25           1648          20.00        66.26
  230.14        2981.50           1651          21.00        70.62
  230.17        2981.75           1655          22.00        74.98
  230.19        2982.00           1658          22.00        74.98
  230.22        2982.25           1661          21.00        70.62
  230.25        2982.50           1665          23.00        79.34
  230.28        2982.75           1668          22.00        74.98
  230.30        2983.00           1671          22.00        74.98
  230.33        2983.25           1675          22.00        74.98
  230.36        2983.50           1678          23.00        79.34
  230.38        2983.75           1681          17.00        53.18
  230.41        2984.00           1685          17.00        53.18
HS scan finished at 03:50:36
end
