************************************************************
  HS Scan of (1) Internal mercury lamp
************************************************************
Integration time is 0.2294 seconds per sample
dh101018Tamanrasset 22.79-5.529 4.974364pr865
************************************************************
Dead Time -------------------------  2.8E-08 
Number of Cycles Used -------------  4 
Starting Wavelength (Angstroms) ---  2950 
Final Wavelength (Angstoms) -------  2984 
Wavelength Increment (Angstroms) --  .25 
Filter Wheel #1 Position ---------- (1) Ground quartz diffuser (ND=2.32)
Filter Wheel #2 Position ---------- (1) Neutral Density 0.494



************************************************************
HS scan start time = 03:44:51
Dark Count =  4.7 


Time (GMT)  Wavelength (Ang)  Step Number  Raw Counts  Counts/Second

  225.21        2950.00           1233          22.00        75.41
  225.27        2950.25           1236          21.00        71.06
  225.30        2950.50           1239          17.00        53.62
  225.32        2950.75           1242          21.00        71.06
  225.35        2951.00           1246          18.00        57.98
  225.38        2951.25           1249          22.00        75.41
  225.40        2951.50           1252          19.00        62.34
  225.43        2951.75           1256          19.00        62.34
  225.46        2952.00           1259          21.00        71.06
  225.49        2952.25           1262          18.00        57.98
  225.51        2952.50           1266          19.00        62.34
  225.54        2952.75           1269          20.00        66.70
  225.57        2953.00           1272          13.00        36.18
  225.59        2953.25           1276          20.00        66.70
  225.62        2953.50           1279          17.00        53.62
  225.65        2953.75           1282          21.00        71.06
  225.68        2954.00           1286          19.00        62.34
  225.70        2954.25           1289          21.00        71.06
  225.73        2954.50           1292          18.00        57.98
  225.76        2954.75           1295          16.00        49.26
  225.78        2955.00           1299          21.00        71.06
  225.81        2955.25           1302          17.00        53.62
  225.84        2955.50           1305          18.00        57.98
  225.87        2955.75           1309          16.00        49.26
  225.89        2956.00           1312          21.00        71.06
  225.92        2956.25           1315          22.00        75.41
  225.95        2956.50           1319          21.00        71.06
  225.97        2956.75           1322          17.00        53.62
  226.00        2957.00           1325          18.00        57.98
  226.03        2957.25           1329          20.00        66.70
  226.06        2957.50           1332          15.00        44.90
  226.08        2957.75           1335          21.00        71.06
  226.11        2958.00           1339          18.00        57.98
  226.14        2958.25           1342          21.00        71.06
  226.17        2958.50           1345          20.00        66.70
  226.19        2958.75           1348          16.00        49.26
  226.22        2959.00           1352          22.00        75.41
  226.25        2959.25           1355          21.00        71.06
  226.27        2959.50           1358          22.00        75.41
  226.30        2959.75           1362          21.00        71.06
  226.33        2960.00           1365          28.00       101.57
  226.35        2960.25           1368          28.00       101.57
  226.38        2960.50           1372          28.00       101.57
  226.41        2960.75           1375          38.00       145.16
  226.44        2961.00           1378          91.00       376.20
  226.46        2961.25           1382         453.00      1954.34
  226.49        2961.50           1385        1083.00      4701.14
  226.52        2961.75           1388        2339.00     10178.58
  226.55        2962.00           1392        4813.00     20972.64
  226.57        2962.25           1395        7318.00     31908.62
  226.60        2962.50           1398        9791.00     42711.47
  226.63        2962.75           1402       13104.00     57193.97
  226.65        2963.00           1405       15631.00     68248.43
  226.68        2963.25           1408       18182.00     79414.85
  226.71        2963.50           1412       21523.00     94049.88
  226.74        2963.75           1415       24010.00    104951.80
  226.76        2964.00           1418       26685.00    116685.30
  226.79        2964.25           1422       29997.00    131223.60
  226.82        2964.50           1425       32500.00    142218.70
  226.85        2964.75           1428       35183.00    154011.90
  226.87        2965.00           1431       37724.00    165188.20
  226.90        2965.25           1435       41641.00    182430.40
  226.93        2965.50           1438       44199.00    193699.40
  226.96        2965.75           1441       47080.00    206400.00
  226.98        2966.00           1445       50171.00    220036.30
  227.01        2966.25           1448       52286.00    229373.00
  227.04        2966.50           1451       54110.00    237428.90
  227.06        2966.75           1455       55262.00    242518.80
  227.09        2967.00           1458       55905.00    245360.40
  227.12        2967.25           1461       56219.00    246748.20
  227.15        2967.50           1465       55920.00    245426.70
  227.17        2967.75           1468       55441.00    243309.80
  227.20        2968.00           1471       54283.00    238193.20
  227.23        2968.25           1475       51948.00    227880.50
  227.26        2968.50           1478       49672.00    217834.20
  227.28        2968.75           1481       47156.00    206735.10
  227.31        2969.00           1485       43696.00    191482.90
  227.34        2969.25           1488       40850.00    178947.10
  227.37        2969.50           1491       38348.00    167933.80
  227.39        2969.75           1495       34737.00    152051.00
  227.42        2970.00           1498       31952.00    139810.90
  227.45        2970.25           1501       29292.00    128128.00
  227.47        2970.50           1505       25673.00    112245.40
  227.50        2970.75           1508       23182.00    101321.50
  227.53        2971.00           1511       20579.00     89913.54
  227.56        2971.25           1515       17291.00     75513.91
  227.58        2971.50           1518       14700.00     64174.94
  227.61        2971.75           1521       12138.00     52969.96
  227.64        2972.00           1525        8759.00     38202.57
  227.67        2972.25           1528        6184.00     26957.13
  227.69        2972.50           1531        4063.00     17699.70
  227.72        2972.75           1535        1718.00      7470.18
  227.75        2973.00           1538         690.00      2987.61
  227.77        2973.25           1541         221.00       942.92
  227.80        2973.50           1545          51.00       201.83
  227.83        2973.75           1548          36.00       136.44
  227.86        2974.00           1551          33.00       123.37
  227.88        2974.25           1555          27.00        97.21
  227.91        2974.50           1558          29.00       105.93
  227.94        2974.75           1561          26.00        92.85
  227.97        2975.00           1565          24.00        84.13
  227.99        2975.25           1568          19.00        62.34
  228.02        2975.50           1571          23.00        79.77
  228.05        2975.75           1575          21.00        71.06
  228.07        2976.00           1578          23.00        79.77
  228.10        2976.25           1581          21.00        71.06
  228.13        2976.50           1585          22.00        75.41
  228.16        2976.75           1588          17.00        53.62
  228.18        2977.00           1591          24.00        84.13
  228.21        2977.25           1595          25.00        88.49
  228.24        2977.50           1598          22.00        75.41
  228.27        2977.75           1601          24.00        84.13
  228.29        2978.00           1605          18.00        57.98
  228.32        2978.25           1608          24.00        84.13
  228.35        2978.50           1611          20.00        66.70
  228.37        2978.75           1615          24.00        84.13
  228.40        2979.00           1618          22.00        75.41
  228.43        2979.25           1621          23.00        79.77
  228.45        2979.50           1625          21.00        71.06
  228.48        2979.75           1628          23.00        79.77
  228.51        2980.00           1631          21.00        71.06
  228.54        2980.25           1635          21.00        71.06
  228.56        2980.50           1638          23.00        79.77
  228.59        2980.75           1641          20.00        66.70
  228.62        2981.00           1645          19.00        62.34
  228.64        2981.25           1648          24.00        84.13
  228.67        2981.50           1651          18.00        57.98
  228.70        2981.75           1655          18.00        57.98
  228.73        2982.00           1658          17.00        53.62
  228.75        2982.25           1661          21.00        71.06
  228.78        2982.50           1665          19.00        62.34
  228.81        2982.75           1668          20.00        66.70
  228.84        2983.00           1671          19.00        62.34
  228.86        2983.25           1675          21.00        71.06
  228.89        2983.50           1678          18.00        57.98
  228.92        2983.75           1681          17.00        53.62
  228.94        2984.00           1685          19.00        62.34
HS scan finished at 03:49:08
end
