************************************************************
  HS Scan of (1) Internal mercury lamp
************************************************************
Integration time is 0.2294 seconds per sample
dh251018Tamanrasset 22.79-5.529 4.974364pr865
************************************************************
Dead Time -------------------------  2.8E-08 
Number of Cycles Used -------------  4 
Starting Wavelength (Angstroms) ---  2950 
Final Wavelength (Angstoms) -------  2984 
Wavelength Increment (Angstroms) --  .25 
Filter Wheel #1 Position ---------- (1) Ground quartz diffuser (ND=2.32)
Filter Wheel #2 Position ---------- (1) Neutral Density 0.494



************************************************************
HS scan start time = 03:51:51
Dark Count =  4.4 


Time (GMT)  Wavelength (Ang)  Step Number  Raw Counts  Counts/Second

  232.20        2950.00           1233          22.00        76.72
  232.26        2950.25           1236          17.00        54.93
  232.29        2950.50           1239          22.00        76.72
  232.32        2950.75           1242          20.00        68.00
  232.34        2951.00           1246          20.00        68.00
  232.37        2951.25           1249          22.00        76.72
  232.40        2951.50           1252          21.00        72.36
  232.43        2951.75           1256          22.00        76.72
  232.45        2952.00           1259          20.00        68.00
  232.48        2952.25           1262          20.00        68.00
  232.51        2952.50           1266          21.00        72.36
  232.53        2952.75           1269          16.00        50.57
  232.56        2953.00           1272          18.00        59.29
  232.59        2953.25           1276          25.00        89.80
  232.62        2953.50           1279          22.00        76.72
  232.64        2953.75           1282          20.00        68.00
  232.67        2954.00           1286          24.00        85.44
  232.70        2954.25           1289          19.00        63.64
  232.72        2954.50           1292          22.00        76.72
  232.75        2954.75           1295          24.00        85.44
  232.78        2955.00           1299          19.00        63.64
  232.81        2955.25           1302          18.00        59.29
  232.83        2955.50           1305          19.00        63.64
  232.86        2955.75           1309          21.00        72.36
  232.89        2956.00           1312          17.00        54.93
  232.92        2956.25           1315          17.00        54.93
  232.94        2956.50           1319          21.00        72.36
  232.97        2956.75           1322          24.00        85.44
  233.00        2957.00           1325          20.00        68.00
  233.02        2957.25           1329          20.00        68.00
  233.05        2957.50           1332          18.00        59.29
  233.08        2957.75           1335          22.00        76.72
  233.11        2958.00           1339          20.00        68.00
  233.13        2958.25           1342          19.00        63.64
  233.16        2958.50           1345          22.00        76.72
  233.19        2958.75           1348          19.00        63.64
  233.21        2959.00           1352          17.00        54.93
  233.24        2959.25           1355          21.00        72.36
  233.27        2959.50           1358          21.00        72.36
  233.30        2959.75           1362          26.00        94.16
  233.32        2960.00           1365          24.00        85.44
  233.35        2960.25           1368          30.00       111.60
  233.38        2960.50           1372          31.00       115.96
  233.40        2960.75           1375          35.00       133.39
  233.43        2961.00           1378          67.00       272.89
  233.46        2961.25           1382         375.00      1615.59
  233.49        2961.50           1385         993.00      4310.02
  233.51        2961.75           1388        2147.00      9342.46
  233.54        2962.00           1392        4467.00     19463.96
  233.57        2962.25           1395        6747.00     29416.55
  233.59        2962.50           1398        9138.00     39859.63
  233.62        2962.75           1402       12279.00     53587.76
  233.65        2963.00           1405       14871.00     64924.37
  233.68        2963.25           1408       17301.00     75559.00
  233.70        2963.50           1412       20735.00     90598.33
  233.73        2963.75           1415       23205.00    101423.60
  233.76        2964.00           1418       25466.00    111338.70
  233.79        2964.25           1422       28780.00    125881.50
  233.81        2964.50           1425       31155.00    136310.90
  233.84        2964.75           1428       33853.00    148166.20
  233.87        2965.00           1431       36358.00    159180.40
  233.90        2965.25           1435       39702.00    173894.40
  233.92        2965.50           1438       42289.00    185285.70
  233.95        2965.75           1441       45104.00    197689.30
  233.98        2966.00           1445       48140.00    211076.50
  234.00        2966.25           1448       50374.00    220933.60
  234.03        2966.50           1451       51941.00    227851.00
  234.06        2966.75           1455       53525.00    234846.10
  234.09        2967.00           1458       54029.00    237072.40
  234.11        2967.25           1461       54148.00    237598.10
  234.14        2967.50           1465       54050.00    237165.20
  234.17        2967.75           1468       54018.00    237023.90
  234.20        2968.00           1471       52943.00    232275.60
  234.22        2968.25           1475       50936.00    223414.20
  234.25        2968.50           1478       48829.00    214116.00
  234.28        2968.75           1481       46406.00    203429.20
  234.31        2969.00           1485       42987.00    188360.50
  234.33        2969.25           1488       40326.00    176641.40
  234.36        2969.50           1491       37665.00    164929.90
  234.39        2969.75           1495       34238.00    149858.60
  234.42        2970.00           1498       31808.00    139179.50
  234.44        2970.25           1501       29147.00    127492.70
  234.47        2970.50           1505       25858.00    113058.30
  234.50        2970.75           1508       23266.00    101691.10
  234.53        2971.00           1511       20526.00     89682.64
  234.55        2971.25           1515       17465.00     76276.95
  234.58        2971.50           1518       14758.00     64429.99
  234.61        2971.75           1521       12170.00     53111.18
  234.63        2972.00           1525        8994.00     39230.52
  234.66        2972.25           1528        6652.00     29001.75
  234.69        2972.50           1531        4325.00     18844.29
  234.72        2972.75           1535        1972.00      8579.22
  234.74        2973.00           1538         857.00      3717.04
  234.77        2973.25           1541         265.00      1136.04
  234.80        2973.50           1545          60.00       242.37
  234.82        2973.75           1548          36.00       137.75
  234.85        2974.00           1551          36.00       137.75
  234.88        2974.25           1555          30.00       111.60
  234.91        2974.50           1558          26.00        94.16
  234.93        2974.75           1561          24.00        85.44
  234.96        2975.00           1565          21.00        72.36
  234.99        2975.25           1568          21.00        72.36
  235.01        2975.50           1571          18.00        59.29
  235.04        2975.75           1575          21.00        72.36
  235.07        2976.00           1578          21.00        72.36
  235.10        2976.25           1581          21.00        72.36
  235.12        2976.50           1585          22.00        76.72
  235.15        2976.75           1588          20.00        68.00
  235.18        2977.00           1591          22.00        76.72
  235.20        2977.25           1595          24.00        85.44
  235.23        2977.50           1598          27.00        98.52
  235.26        2977.75           1601          18.00        59.29
  235.29        2978.00           1605          23.00        81.08
  235.31        2978.25           1608          20.00        68.00
  235.34        2978.50           1611          22.00        76.72
  235.37        2978.75           1615          21.00        72.36
  235.39        2979.00           1618          24.00        85.44
  235.42        2979.25           1621          20.00        68.00
  235.45        2979.50           1625          18.00        59.29
  235.48        2979.75           1628          23.00        81.08
  235.50        2980.00           1631          22.00        76.72
  235.53        2980.25           1635          21.00        72.36
  235.56        2980.50           1638          23.00        81.08
  235.58        2980.75           1641          20.00        68.00
  235.61        2981.00           1645          16.00        50.57
  235.64        2981.25           1648          19.00        63.64
  235.67        2981.50           1651          17.00        54.93
  235.69        2981.75           1655          22.00        76.72
  235.72        2982.00           1658          23.00        81.08
  235.75        2982.25           1661          18.00        59.29
  235.77        2982.50           1665          16.00        50.57
  235.80        2982.75           1668          19.00        63.64
  235.83        2983.00           1671          21.00        72.36
  235.86        2983.25           1675          18.00        59.29
  235.88        2983.50           1678          23.00        81.08
  235.91        2983.75           1681          23.00        81.08
  235.94        2984.00           1685          17.00        54.93
HS scan finished at 03:56:08
end
