************************************************************
  HS Scan of (1) Internal mercury lamp
************************************************************
Integration time is 0.2294 seconds per sample
dh171018Tamanrasset 22.79-5.529 4.974364pr865
************************************************************
Dead Time -------------------------  2.8E-08 
Number of Cycles Used -------------  4 
Starting Wavelength (Angstroms) ---  2950 
Final Wavelength (Angstoms) -------  2984 
Wavelength Increment (Angstroms) --  .25 
Filter Wheel #1 Position ---------- (1) Ground quartz diffuser (ND=2.32)
Filter Wheel #2 Position ---------- (1) Neutral Density 0.494



************************************************************
HS scan start time = 03:47:15
Dark Count =  4 


Time (GMT)  Wavelength (Ang)  Step Number  Raw Counts  Counts/Second

  227.60        2950.00           1233          21.00        74.11
  227.66        2950.25           1236          24.00        87.18
  227.69        2950.50           1239          19.00        65.39
  227.72        2950.75           1242          21.00        74.11
  227.75        2951.00           1246          21.00        74.11
  227.77        2951.25           1249          21.00        74.11
  227.80        2951.50           1252          17.00        56.67
  227.83        2951.75           1256          23.00        82.82
  227.85        2952.00           1259          18.00        61.03
  227.88        2952.25           1262          21.00        74.11
  227.91        2952.50           1266          22.00        78.47
  227.93        2952.75           1269          19.00        65.39
  227.96        2953.00           1272          19.00        65.39
  227.99        2953.25           1276          15.00        47.95
  228.02        2953.50           1279          21.00        74.11
  228.04        2953.75           1282          21.00        74.11
  228.07        2954.00           1286          15.00        47.95
  228.10        2954.25           1289          19.00        65.39
  228.13        2954.50           1292          21.00        74.11
  228.15        2954.75           1295          19.00        65.39
  228.18        2955.00           1299          19.00        65.39
  228.21        2955.25           1302          19.00        65.39
  228.23        2955.50           1305          21.00        74.11
  228.26        2955.75           1309          17.00        56.67
  228.29        2956.00           1312          17.00        56.67
  228.31        2956.25           1315          18.00        61.03
  228.34        2956.50           1319          19.00        65.39
  228.37        2956.75           1322          17.00        56.67
  228.40        2957.00           1325          20.00        69.75
  228.42        2957.25           1329          21.00        74.11
  228.45        2957.50           1332          22.00        78.47
  228.48        2957.75           1335          18.00        61.03
  228.51        2958.00           1339          17.00        56.67
  228.53        2958.25           1342          19.00        65.39
  228.56        2958.50           1345          19.00        65.39
  228.59        2958.75           1348          19.00        65.39
  228.61        2959.00           1352          20.00        69.75
  228.64        2959.25           1355          22.00        78.47
  228.67        2959.50           1358          25.00        91.54
  228.70        2959.75           1362          19.00        65.39
  228.72        2960.00           1365          25.00        91.54
  228.75        2960.25           1368          27.00       100.26
  228.78        2960.50           1372          32.00       122.06
  228.80        2960.75           1375          41.00       161.29
  228.83        2961.00           1378         136.00       575.42
  228.86        2961.25           1382         672.00      2912.18
  228.89        2961.50           1385        1536.00      6679.54
  228.91        2961.75           1388        3010.00     13108.56
  228.94        2962.00           1392        5884.00     25650.50
  228.97        2962.25           1395        8367.00     36493.24
  228.99        2962.50           1398       10857.00     47373.17
  229.02        2962.75           1402       14321.00     62519.99
  229.05        2963.00           1405       16842.00     73551.50
  229.08        2963.25           1408       19605.00     85649.81
  229.10        2963.50           1412       22923.00    100189.10
  229.13        2963.75           1415       25360.00    110875.50
  229.16        2964.00           1418       27842.00    121765.80
  229.19        2964.25           1422       31522.00    137924.80
  229.21        2964.50           1425       34020.00    148902.00
  229.24        2964.75           1428       36798.00    161117.50
  229.27        2965.00           1431       39358.00    172381.90
  229.30        2965.25           1435       42806.00    187564.90
  229.32        2965.50           1438       45578.00    199780.50
  229.35        2965.75           1441       48262.00    211616.40
  229.38        2966.00           1445       51498.00    225896.90
  229.40        2966.25           1448       53701.00    235625.30
  229.43        2966.50           1451       54906.00    240948.80
  229.46        2966.75           1455       55977.00    245681.70
  229.49        2967.00           1458       56659.00    248696.20
  229.51        2967.25           1461       56796.00    249301.80
  229.54        2967.50           1465       56278.00    247012.10
  229.57        2967.75           1468       55765.00    244744.70
  229.60        2968.00           1471       54699.00    240034.20
  229.62        2968.25           1475       52002.00    228122.10
  229.65        2968.50           1478       49972.00    219161.20
  229.68        2968.75           1481       47143.00    206680.90
  229.71        2969.00           1485       43240.00    189476.90
  229.73        2969.25           1488       40635.00    178003.60
  229.76        2969.50           1491       37813.00    165582.90
  229.79        2969.75           1495       34162.00    149526.20
  229.82        2970.00           1498       31705.00    138728.80
  229.84        2970.25           1501       28854.00    126208.10
  229.87        2970.50           1505       25390.00    111007.10
  229.90        2970.75           1508       22614.00     98834.61
  229.92        2971.00           1511       20110.00     87861.93
  229.95        2971.25           1515       16522.00     72150.85
  229.98        2971.50           1518       13931.00     60814.02
  230.01        2971.75           1521       11427.00     49864.69
  230.03        2972.00           1525        7972.00     34767.92
  230.06        2972.25           1528        5552.00     24201.22
  230.09        2972.50           1531        3366.00     14661.64
  230.11        2972.75           1535        1340.00      5824.84
  230.14        2973.00           1538         513.00      2218.97
  230.17        2973.25           1541         137.00       579.78
  230.20        2973.50           1545          48.00       191.81
  230.22        2973.75           1548          36.00       139.49
  230.25        2974.00           1551          30.00       113.34
  230.28        2974.25           1555          26.00        95.90
  230.30        2974.50           1558          27.00       100.26
  230.33        2974.75           1561          20.00        69.75
  230.36        2975.00           1565          14.00        43.59
  230.39        2975.25           1568          24.00        87.18
  230.41        2975.50           1571          23.00        82.82
  230.44        2975.75           1575          17.00        56.67
  230.47        2976.00           1578          22.00        78.47
  230.49        2976.25           1581          25.00        91.54
  230.52        2976.50           1585          24.00        87.18
  230.55        2976.75           1588          21.00        74.11
  230.58        2977.00           1591          20.00        69.75
  230.60        2977.25           1595          22.00        78.47
  230.63        2977.50           1598          23.00        82.82
  230.66        2977.75           1601          19.00        65.39
  230.68        2978.00           1605          21.00        74.11
  230.71        2978.25           1608          19.00        65.39
  230.74        2978.50           1611          22.00        78.47
  230.77        2978.75           1615          20.00        69.75
  230.79        2979.00           1618          21.00        74.11
  230.82        2979.25           1621          23.00        82.82
  230.85        2979.50           1625          20.00        69.75
  230.87        2979.75           1628          20.00        69.75
  230.90        2980.00           1631          23.00        82.82
  230.93        2980.25           1635          25.00        91.54
  230.96        2980.50           1638          23.00        82.82
  230.98        2980.75           1641          24.00        87.18
  231.01        2981.00           1645          16.00        52.31
  231.04        2981.25           1648          22.00        78.47
  231.06        2981.50           1651          18.00        61.03
  231.09        2981.75           1655          21.00        74.11
  231.12        2982.00           1658          16.00        52.31
  231.15        2982.25           1661          20.00        69.75
  231.17        2982.50           1665          23.00        82.82
  231.20        2982.75           1668          21.00        74.11
  231.23        2983.00           1671          22.00        78.47
  231.25        2983.25           1675          22.00        78.47
  231.28        2983.50           1678          16.00        52.31
  231.31        2983.75           1681          19.00        65.39
  231.34        2984.00           1685          19.00        65.39
HS scan finished at 03:51:31
end
