************************************************************
  HS Scan of (1) Internal mercury lamp
************************************************************
Integration time is 0.2294 seconds per sample
dh261018Tamanrasset 22.79-5.529 4.974364pr865
************************************************************
Dead Time -------------------------  2.8E-08 
Number of Cycles Used -------------  4 
Starting Wavelength (Angstroms) ---  2950 
Final Wavelength (Angstoms) -------  2984 
Wavelength Increment (Angstroms) --  .25 
Filter Wheel #1 Position ---------- (1) Ground quartz diffuser (ND=2.32)
Filter Wheel #2 Position ---------- (1) Neutral Density 0.494



************************************************************
HS scan start time = 03:51:59
Dark Count =  4.2 


Time (GMT)  Wavelength (Ang)  Step Number  Raw Counts  Counts/Second

  232.34        2950.00           1233          17.00        55.80
  232.40        2950.25           1236          18.00        60.16
  232.43        2950.50           1239          23.00        81.95
  232.46        2950.75           1242          23.00        81.95
  232.48        2951.00           1246          18.00        60.16
  232.51        2951.25           1249          25.00        90.67
  232.54        2951.50           1252          16.00        51.44
  232.57        2951.75           1256          20.00        68.88
  232.59        2952.00           1259          16.00        51.44
  232.62        2952.25           1262          20.00        68.88
  232.65        2952.50           1266          21.00        73.23
  232.67        2952.75           1269          22.00        77.59
  232.70        2953.00           1272          21.00        73.23
  232.73        2953.25           1276          22.00        77.59
  232.75        2953.50           1279          21.00        73.23
  232.78        2953.75           1282          21.00        73.23
  232.81        2954.00           1286          21.00        73.23
  232.84        2954.25           1289          17.00        55.80
  232.86        2954.50           1292          18.00        60.16
  232.89        2954.75           1295          19.00        64.52
  232.92        2955.00           1299          17.00        55.80
  232.94        2955.25           1302          17.00        55.80
  232.97        2955.50           1305          21.00        73.23
  233.00        2955.75           1309          17.00        55.80
  233.03        2956.00           1312          17.00        55.80
  233.05        2956.25           1315          18.00        60.16
  233.08        2956.50           1319          19.00        64.52
  233.11        2956.75           1322          17.00        55.80
  233.14        2957.00           1325          19.00        64.52
  233.16        2957.25           1329          18.00        60.16
  233.19        2957.50           1332          21.00        73.23
  233.22        2957.75           1335          19.00        64.52
  233.24        2958.00           1339          22.00        77.59
  233.27        2958.25           1342          18.00        60.16
  233.30        2958.50           1345          21.00        73.23
  233.33        2958.75           1348          22.00        77.59
  233.35        2959.00           1352          16.00        51.44
  233.38        2959.25           1355          21.00        73.23
  233.41        2959.50           1358          14.00        42.72
  233.43        2959.75           1362          20.00        68.88
  233.46        2960.00           1365          22.00        77.59
  233.49        2960.25           1368          30.00       112.47
  233.52        2960.50           1372          29.00       108.11
  233.54        2960.75           1375          36.00       138.62
  233.57        2961.00           1378          50.00       199.65
  233.60        2961.25           1382         309.00      1328.73
  233.62        2961.50           1385         817.00      3543.51
  233.65        2961.75           1388        1776.00      7725.30
  233.68        2962.00           1392        3930.00     17121.55
  233.71        2962.25           1395        6112.00     26644.98
  233.73        2962.50           1398        8486.00     37012.18
  233.76        2962.75           1402       11601.00     50624.46
  233.79        2963.00           1405       14043.00     61303.05
  233.82        2963.25           1408       16404.00     71633.51
  233.84        2963.50           1412       19635.00     85780.33
  233.87        2963.75           1415       22177.00     96918.28
  233.90        2964.00           1418       24432.00    106804.60
  233.92        2964.25           1422       27665.00    120988.10
  233.95        2964.50           1425       30047.00    131445.40
  233.98        2964.75           1428       32418.00    141860.60
  234.01        2965.00           1431       34941.00    152950.10
  234.03        2965.25           1435       38216.00    167355.20
  234.06        2965.50           1438       40885.00    179103.40
  234.09        2965.75           1441       43289.00    189691.90
  234.12        2966.00           1445       46711.00    204775.00
  234.14        2966.25           1448       48981.00    214787.50
  234.17        2966.50           1451       50691.00    222333.60
  234.20        2966.75           1455       52582.00    230682.20
  234.23        2967.00           1458       52862.00    231918.80
  234.25        2967.25           1461       53135.00    233124.50
  234.28        2967.50           1465       53353.00    234087.30
  234.31        2967.75           1468       52813.00    231702.40
  234.34        2968.00           1471       52202.00    229004.30
  234.36        2968.25           1475       50242.00    220351.90
  234.39        2968.50           1478       48126.00    211015.60
  234.42        2968.75           1481       45754.00    200555.50
  234.45        2969.00           1485       42252.00    185123.60
  234.47        2969.25           1488       39952.00    174995.70
  234.50        2969.50           1491       36964.00    161846.90
  234.53        2969.75           1495       33743.00    147683.60
  234.55        2970.00           1498       31161.00    136338.10
  234.58        2970.25           1501       28433.00    124359.00
  234.61        2970.50           1505       25281.00    110528.10
  234.64        2970.75           1508       22537.00     98496.21
  234.66        2971.00           1511       19966.00     87230.24
  234.69        2971.25           1515       16836.00     73524.36
  234.72        2971.50           1518       14364.00     62707.22
  234.75        2971.75           1521       11990.00     52325.08
  234.77        2972.00           1525        8744.00     38139.23
  234.80        2972.25           1528        6374.00     27788.84
  234.83        2972.50           1531        4169.00     18164.42
  234.86        2972.75           1535        1935.00      8418.72
  234.88        2973.00           1538         797.00      3456.31
  234.91        2973.25           1541         239.00      1023.57
  234.94        2973.50           1545          62.00       251.96
  234.96        2973.75           1548          33.00       125.55
  234.99        2974.00           1551          28.00       103.75
  235.02        2974.25           1555          31.00       116.83
  235.05        2974.50           1558          20.00        68.88
  235.07        2974.75           1561          22.00        77.59
  235.10        2975.00           1565          23.00        81.95
  235.13        2975.25           1568          19.00        64.52
  235.15        2975.50           1571          22.00        77.59
  235.18        2975.75           1575          22.00        77.59
  235.21        2976.00           1578          24.00        86.31
  235.24        2976.25           1581          20.00        68.88
  235.26        2976.50           1585          24.00        86.31
  235.29        2976.75           1588          19.00        64.52
  235.32        2977.00           1591          24.00        86.31
  235.35        2977.25           1595          23.00        81.95
  235.37        2977.50           1598          20.00        68.88
  235.40        2977.75           1601          20.00        68.88
  235.43        2978.00           1605          15.00        47.08
  235.45        2978.25           1608          23.00        81.95
  235.48        2978.50           1611          22.00        77.59
  235.51        2978.75           1615          17.00        55.80
  235.54        2979.00           1618          20.00        68.88
  235.56        2979.25           1621          16.00        51.44
  235.59        2979.50           1625          18.00        60.16
  235.62        2979.75           1628          25.00        90.67
  235.64        2980.00           1631          23.00        81.95
  235.67        2980.25           1635          19.00        64.52
  235.70        2980.50           1638          23.00        81.95
  235.73        2980.75           1641          21.00        73.23
  235.75        2981.00           1645          21.00        73.23
  235.78        2981.25           1648          19.00        64.52
  235.81        2981.50           1651          22.00        77.59
  235.83        2981.75           1655          24.00        86.31
  235.86        2982.00           1658          20.00        68.88
  235.89        2982.25           1661          13.00        38.36
  235.92        2982.50           1665          18.00        60.16
  235.94        2982.75           1668          24.00        86.31
  235.97        2983.00           1671          22.00        77.59
  236.00        2983.25           1675          20.00        68.88
  236.02        2983.50           1678          23.00        81.95
  236.05        2983.75           1681          19.00        64.52
  236.08        2984.00           1685          19.00        64.52
HS scan finished at 03:56:16
end
