************************************************************
  HS Scan of (1) Internal mercury lamp
************************************************************
Integration time is 0.2294 seconds per sample
dh181018Tamanrasset 22.79-5.529 4.974364pr865
************************************************************
Dead Time -------------------------  2.8E-08 
Number of Cycles Used -------------  4 
Starting Wavelength (Angstroms) ---  2950 
Final Wavelength (Angstoms) -------  2984 
Wavelength Increment (Angstroms) --  .25 
Filter Wheel #1 Position ---------- (1) Ground quartz diffuser (ND=2.32)
Filter Wheel #2 Position ---------- (1) Neutral Density 0.494



************************************************************
HS scan start time = 03:48:41
Dark Count =  6.2 


Time (GMT)  Wavelength (Ang)  Step Number  Raw Counts  Counts/Second

  229.05        2950.00           1233          13.00        29.64
  229.11        2950.25           1236          20.00        60.16
  229.14        2950.50           1239          23.00        73.23
  229.16        2950.75           1242          17.00        47.08
  229.19        2951.00           1246          15.00        38.36
  229.22        2951.25           1249          22.00        68.88
  229.25        2951.50           1252          21.00        64.52
  229.27        2951.75           1256          24.00        77.59
  229.30        2952.00           1259          24.00        77.59
  229.33        2952.25           1262          15.00        38.36
  229.35        2952.50           1266          16.00        42.72
  229.38        2952.75           1269          22.00        68.88
  229.41        2953.00           1272          20.00        60.16
  229.44        2953.25           1276          23.00        73.23
  229.46        2953.50           1279          19.00        55.80
  229.49        2953.75           1282          22.00        68.88
  229.52        2954.00           1286          21.00        64.52
  229.55        2954.25           1289          24.00        77.59
  229.57        2954.50           1292          17.00        47.08
  229.60        2954.75           1295          18.00        51.44
  229.63        2955.00           1299          19.00        55.80
  229.65        2955.25           1302          20.00        60.16
  229.68        2955.50           1305          22.00        68.88
  229.71        2955.75           1309          20.00        60.16
  229.74        2956.00           1312          18.00        51.44
  229.76        2956.25           1315          21.00        64.52
  229.79        2956.50           1319          16.00        42.72
  229.82        2956.75           1322          16.00        42.72
  229.84        2957.00           1325          21.00        64.52
  229.87        2957.25           1329          19.00        55.80
  229.90        2957.50           1332          19.00        55.80
  229.92        2957.75           1335          18.00        51.44
  229.95        2958.00           1339          21.00        64.52
  229.98        2958.25           1342          22.00        68.88
  230.01        2958.50           1345          24.00        77.59
  230.03        2958.75           1348          19.00        55.80
  230.06        2959.00           1352          20.00        60.16
  230.09        2959.25           1355          23.00        73.23
  230.11        2959.50           1358          19.00        55.80
  230.14        2959.75           1362          23.00        73.23
  230.17        2960.00           1365          31.00       108.11
  230.20        2960.25           1368          26.00        86.31
  230.22        2960.50           1372          34.00       121.19
  230.25        2960.75           1375          38.00       138.62
  230.28        2961.00           1378         107.00       439.41
  230.30        2961.25           1382         518.00      2231.18
  230.33        2961.50           1385        1315.00      5706.23
  230.36        2961.75           1388        2594.00     11284.30
  230.39        2962.00           1392        5086.00     22157.60
  230.41        2962.25           1395        7522.00     32792.96
  230.44        2962.50           1398       10228.00     44614.55
  230.47        2962.75           1402       13395.00     58460.04
  230.50        2963.00           1405       16039.00     70027.32
  230.52        2963.25           1408       18865.00     82399.15
  230.55        2963.50           1412       22232.00     97150.58
  230.58        2963.75           1415       24873.00    108729.80
  230.60        2964.00           1418       27616.00    120764.20
  230.63        2964.25           1422       30669.00    134168.30
  230.66        2964.50           1425       33336.00    145885.90
  230.69        2964.75           1428       36081.00    157954.30
  230.71        2965.00           1431       38769.00    169779.90
  230.74        2965.25           1435       42356.00    185572.90
  230.77        2965.50           1438       45039.00    197394.90
  230.80        2965.75           1441       47732.00    209268.90
  230.82        2966.00           1445       51409.00    225494.20
  230.85        2966.25           1448       53241.00    233583.80
  230.88        2966.50           1451       55035.00    241509.10
  230.91        2966.75           1455       56791.00    249270.00
  230.93        2967.00           1458       57302.00    251529.00
  230.96        2967.25           1461       57082.00    250556.40
  230.99        2967.50           1465       57194.00    251051.50
  231.02        2967.75           1468       56316.00    247170.30
  231.04        2968.00           1471       55642.00    244191.40
  231.07        2968.25           1475       53407.00    234317.00
  231.10        2968.50           1478       51026.00    223803.50
  231.12        2968.75           1481       48491.00    212616.90
  231.15        2969.00           1485       44694.00    195874.30
  231.18        2969.25           1488       41785.00    183057.90
  231.21        2969.50           1491       38892.00    170321.20
  231.23        2969.75           1495       35403.00    154972.70
  231.26        2970.00           1498       32516.00    142282.40
  231.29        2970.25           1501       29954.00    131028.20
  231.32        2970.50           1505       26226.00    114664.90
  231.34        2970.75           1508       23561.00    102976.50
  231.37        2971.00           1511       20904.00     91330.91
  231.40        2971.25           1515       17337.00     75708.71
  231.43        2971.50           1518       14527.00     63411.53
  231.45        2971.75           1521       12038.00     52526.19
  231.48        2972.00           1525        8611.00     37549.49
  231.51        2972.25           1528        5877.00     25610.34
  231.53        2972.50           1531        3675.00     16000.19
  231.56        2972.75           1535        1477.00      6412.66
  231.59        2973.00           1538         551.00      2375.05
  231.62        2973.25           1541         172.00       722.77
  231.64        2973.50           1545          50.00       190.93
  231.67        2973.75           1548          37.00       134.26
  231.70        2974.00           1551          38.00       138.62
  231.73        2974.25           1555          27.00        90.67
  231.75        2974.50           1558          25.00        81.95
  231.78        2974.75           1561          23.00        73.23
  231.81        2975.00           1565          25.00        81.95
  231.83        2975.25           1568          25.00        81.95
  231.86        2975.50           1571          23.00        73.23
  231.89        2975.75           1575          23.00        73.23
  231.92        2976.00           1578          24.00        77.59
  231.94        2976.25           1581          24.00        77.59
  231.97        2976.50           1585          26.00        86.31
  232.00        2976.75           1588          20.00        60.16
  232.02        2977.00           1591          24.00        77.59
  232.05        2977.25           1595          21.00        64.52
  232.08        2977.50           1598          19.00        55.80
  232.11        2977.75           1601          25.00        81.95
  232.13        2978.00           1605          15.00        38.36
  232.16        2978.25           1608          26.00        86.31
  232.19        2978.50           1611          23.00        73.23
  232.21        2978.75           1615          22.00        68.88
  232.24        2979.00           1618          20.00        60.16
  232.27        2979.25           1621          18.00        51.44
  232.30        2979.50           1625          18.00        51.44
  232.32        2979.75           1628          26.00        86.31
  232.35        2980.00           1631          18.00        51.44
  232.38        2980.25           1635          16.00        42.72
  232.40        2980.50           1638          17.00        47.08
  232.43        2980.75           1641          20.00        60.16
  232.46        2981.00           1645          23.00        73.23
  232.49        2981.25           1648          28.00        95.03
  232.51        2981.50           1651          20.00        60.16
  232.54        2981.75           1655          18.00        51.44
  232.57        2982.00           1658          25.00        81.95
  232.59        2982.25           1661          22.00        68.88
  232.62        2982.50           1665          19.00        55.80
  232.65        2982.75           1668          22.00        68.88
  232.68        2983.00           1671          20.00        60.16
  232.70        2983.25           1675          22.00        68.88
  232.73        2983.50           1678          23.00        73.23
  232.76        2983.75           1681          23.00        73.23
  232.78        2984.00           1685          18.00        51.44
HS scan finished at 03:52:58
end
