************************************************************
  HS Scan of (1) Internal mercury lamp
************************************************************
Integration time is 0.2294 seconds per sample
dh201018Tamanrasset 22.79-5.529 4.974364pr865
************************************************************
Dead Time -------------------------  2.8E-08 
Number of Cycles Used -------------  4 
Starting Wavelength (Angstroms) ---  2950 
Final Wavelength (Angstoms) -------  2984 
Wavelength Increment (Angstroms) --  .25 
Filter Wheel #1 Position ---------- (1) Ground quartz diffuser (ND=2.32)
Filter Wheel #2 Position ---------- (1) Neutral Density 0.494



************************************************************
HS scan start time = 03:49:10
Dark Count =  4.5 


Time (GMT)  Wavelength (Ang)  Step Number  Raw Counts  Counts/Second

  229.52        2950.00           1233          19.00        63.21
  229.58        2950.25           1236          21.00        71.93
  229.61        2950.50           1239          19.00        63.21
  229.64        2950.75           1242          24.00        85.00
  229.67        2951.00           1246          20.00        67.57
  229.69        2951.25           1249          20.00        67.57
  229.72        2951.50           1252          18.00        58.85
  229.75        2951.75           1256          22.00        76.29
  229.77        2952.00           1259          22.00        76.29
  229.80        2952.25           1262          19.00        63.21
  229.83        2952.50           1266          17.00        54.49
  229.86        2952.75           1269          17.00        54.49
  229.88        2953.00           1272          17.00        54.49
  229.91        2953.25           1276          19.00        63.21
  229.94        2953.50           1279          22.00        76.29
  229.96        2953.75           1282          19.00        63.21
  229.99        2954.00           1286          19.00        63.21
  230.02        2954.25           1289          19.00        63.21
  230.05        2954.50           1292          20.00        67.57
  230.07        2954.75           1295          21.00        71.93
  230.10        2955.00           1299          21.00        71.93
  230.13        2955.25           1302          22.00        76.29
  230.15        2955.50           1305          21.00        71.93
  230.18        2955.75           1309          19.00        63.21
  230.21        2956.00           1312          19.00        63.21
  230.24        2956.25           1315          21.00        71.93
  230.26        2956.50           1319          19.00        63.21
  230.29        2956.75           1322          19.00        63.21
  230.32        2957.00           1325          21.00        71.93
  230.35        2957.25           1329          19.00        63.21
  230.37        2957.50           1332          20.00        67.57
  230.40        2957.75           1335          25.00        89.36
  230.43        2958.00           1339          21.00        71.93
  230.45        2958.25           1342          23.00        80.65
  230.48        2958.50           1345          15.00        45.77
  230.51        2958.75           1348          21.00        71.93
  230.54        2959.00           1352          23.00        80.65
  230.56        2959.25           1355          25.00        89.36
  230.59        2959.50           1358          18.00        58.85
  230.62        2959.75           1362          27.00        98.08
  230.64        2960.00           1365          25.00        89.36
  230.67        2960.25           1368          35.00       132.96
  230.70        2960.50           1372          31.00       115.52
  230.73        2960.75           1375          46.00       180.91
  230.75        2961.00           1378         121.00       507.85
  230.78        2961.25           1382         643.00      2783.57
  230.81        2961.50           1385        1426.00      6197.68
  230.83        2961.75           1388        2923.00     12726.85
  230.86        2962.00           1392        5674.00     24731.60
  230.89        2962.25           1395        8177.00     35661.14
  230.92        2962.50           1398       10951.00     47781.85
  230.94        2962.75           1402       14186.00     61927.25
  230.97        2963.00           1405       16738.00     73094.09
  231.00        2963.25           1408       19554.00     85424.22
  231.03        2963.50           1412       22937.00    100248.30
  231.05        2963.75           1415       25295.00    110588.20
  231.08        2964.00           1418       28150.00    123115.50
  231.11        2964.25           1422       31746.00    138906.70
  231.13        2964.50           1425       34351.00    150354.90
  231.16        2964.75           1428       37144.00    162637.40
  231.19        2965.00           1431       39581.00    173361.30
  231.22        2965.25           1435       43324.00    189844.80
  231.24        2965.50           1438       46393.00    203371.40
  231.27        2965.75           1441       48872.00    214305.20
  231.30        2966.00           1445       52384.00    229806.60
  231.33        2966.25           1448       54433.00    238856.80
  231.35        2966.50           1451       56258.00    246921.40
  231.38        2966.75           1455       57491.00    252372.10
  231.41        2967.00           1458       58323.00    256051.10
  231.44        2967.25           1461       58079.00    254972.10
  231.46        2967.50           1465       58178.00    255409.90
  231.49        2967.75           1468       57419.00    252053.80
  231.52        2968.00           1471       56240.00    246841.90
  231.54        2968.25           1475       53915.00    236568.40
  231.57        2968.50           1478       51695.00    226764.40
  231.60        2968.75           1481       48838.00    214155.20
  231.63        2969.00           1485       45307.00    198583.70
  231.65        2969.25           1488       42252.00    185122.30
  231.68        2969.50           1491       39502.00    173013.50
  231.71        2969.75           1495       35660.00    156110.30
  231.74        2970.00           1498       33227.00    145414.30
  231.76        2970.25           1501       30633.00    134017.70
  231.79        2970.50           1505       26823.00    117291.70
  231.82        2970.75           1508       24013.00    104965.90
  231.85        2971.00           1511       21359.00     93332.08
  231.87        2971.25           1515       17932.00     78321.09
  231.90        2971.50           1518       15060.00     65750.85
  231.93        2971.75           1521       12464.00     54396.22
  231.95        2972.00           1525        8740.00     38120.44
  231.98        2972.25           1528        6088.00     26538.90
  232.01        2972.50           1531        3851.00     16775.53
  232.04        2972.75           1535        1637.00      7117.81
  232.06        2973.00           1538         642.00      2779.21
  232.09        2973.25           1541         199.00       847.88
  232.12        2973.50           1545          45.00       176.55
  232.15        2973.75           1548          37.00       141.67
  232.17        2974.00           1551          27.00        98.08
  232.20        2974.25           1555          26.00        93.72
  232.23        2974.50           1558          25.00        89.36
  232.26        2974.75           1561          25.00        89.36
  232.28        2975.00           1565          27.00        98.08
  232.31        2975.25           1568          25.00        89.36
  232.34        2975.50           1571          23.00        80.65
  232.36        2975.75           1575          23.00        80.65
  232.39        2976.00           1578          28.00       102.44
  232.42        2976.25           1581          18.00        58.85
  232.45        2976.50           1585          22.00        76.29
  232.47        2976.75           1588          23.00        80.65
  232.50        2977.00           1591          19.00        63.21
  232.53        2977.25           1595          21.00        71.93
  232.55        2977.50           1598          21.00        71.93
  232.58        2977.75           1601          27.00        98.08
  232.61        2978.00           1605          23.00        80.65
  232.64        2978.25           1608          16.00        50.13
  232.66        2978.50           1611          24.00        85.00
  232.69        2978.75           1615          20.00        67.57
  232.72        2979.00           1618          21.00        71.93
  232.74        2979.25           1621          21.00        71.93
  232.77        2979.50           1625          22.00        76.29
  232.80        2979.75           1628          24.00        85.00
  232.83        2980.00           1631          17.00        54.49
  232.85        2980.25           1635          23.00        80.65
  232.88        2980.50           1638          24.00        85.00
  232.91        2980.75           1641          20.00        67.57
  232.93        2981.00           1645          21.00        71.93
  232.96        2981.25           1648          24.00        85.00
  232.99        2981.50           1651          22.00        76.29
  233.02        2981.75           1655          21.00        71.93
  233.04        2982.00           1658          19.00        63.21
  233.07        2982.25           1661          23.00        80.65
  233.10        2982.50           1665          15.00        45.77
  233.13        2982.75           1668          20.00        67.57
  233.15        2983.00           1671          18.00        58.85
  233.18        2983.25           1675          23.00        80.65
  233.21        2983.50           1678          20.00        67.57
  233.23        2983.75           1681          19.00        63.21
  233.26        2984.00           1685          17.00        54.49
HS scan finished at 03:53:27
end
