************************************************************
  HS Scan of (1) Internal mercury lamp
************************************************************
Integration time is 0.2294 seconds per sample
dh231018Tamanrasset 22.79-5.529 4.974364pr865
************************************************************
Dead Time -------------------------  2.8E-08 
Number of Cycles Used -------------  4 
Starting Wavelength (Angstroms) ---  2950 
Final Wavelength (Angstoms) -------  2984 
Wavelength Increment (Angstroms) --  .25 
Filter Wheel #1 Position ---------- (1) Ground quartz diffuser (ND=2.32)
Filter Wheel #2 Position ---------- (1) Neutral Density 0.494



************************************************************
HS scan start time = 03:51:19
Dark Count =  4.4 


Time (GMT)  Wavelength (Ang)  Step Number  Raw Counts  Counts/Second

  231.68        2950.00           1233          18.00        59.29
  231.74        2950.25           1236          22.00        76.72
  231.77        2950.50           1239          19.00        63.64
  231.80        2950.75           1242          19.00        63.64
  231.82        2951.00           1246          21.00        72.36
  231.85        2951.25           1249          16.00        50.57
  231.88        2951.50           1252          19.00        63.64
  231.91        2951.75           1256          21.00        72.36
  231.93        2952.00           1259          21.00        72.36
  231.96        2952.25           1262          20.00        68.00
  231.99        2952.50           1266          26.00        94.16
  232.01        2952.75           1269          19.00        63.64
  232.04        2953.00           1272          25.00        89.80
  232.07        2953.25           1276          20.00        68.00
  232.10        2953.50           1279          21.00        72.36
  232.12        2953.75           1282          20.00        68.00
  232.15        2954.00           1286          20.00        68.00
  232.18        2954.25           1289          16.00        50.57
  232.20        2954.50           1292          22.00        76.72
  232.23        2954.75           1295          19.00        63.64
  232.26        2955.00           1299          21.00        72.36
  232.29        2955.25           1302          14.00        41.85
  232.31        2955.50           1305          20.00        68.00
  232.34        2955.75           1309          20.00        68.00
  232.37        2956.00           1312          20.00        68.00
  232.39        2956.25           1315          19.00        63.64
  232.42        2956.50           1319          20.00        68.00
  232.45        2956.75           1322          23.00        81.08
  232.48        2957.00           1325          18.00        59.29
  232.50        2957.25           1329          22.00        76.72
  232.53        2957.50           1332          19.00        63.64
  232.56        2957.75           1335          19.00        63.64
  232.58        2958.00           1339          25.00        89.80
  232.61        2958.25           1342          15.00        46.21
  232.64        2958.50           1345          24.00        85.44
  232.66        2958.75           1348          21.00        72.36
  232.69        2959.00           1352          19.00        63.64
  232.72        2959.25           1355          21.00        72.36
  232.75        2959.50           1358          17.00        54.93
  232.77        2959.75           1362          26.00        94.16
  232.80        2960.00           1365          29.00       107.24
  232.83        2960.25           1368          31.00       115.96
  232.86        2960.50           1372          32.00       120.31
  232.88        2960.75           1375          41.00       159.55
  232.91        2961.00           1378         102.00       425.46
  232.94        2961.25           1382         507.00      2191.07
  232.96        2961.50           1385        1328.00      5770.77
  232.99        2961.75           1388        2728.00     11876.66
  233.02        2962.00           1392        5593.00     24378.45
  233.05        2962.25           1395        8037.00     35050.08
  233.07        2962.50           1398       10716.00     46755.15
  233.10        2962.75           1402       14103.00     61564.62
  233.13        2963.00           1405       16825.00     73475.34
  233.16        2963.25           1408       19430.00     84881.54
  233.18        2963.50           1412       23095.00    100941.40
  233.21        2963.75           1415       25886.00    113181.10
  233.24        2964.00           1418       28276.00    123669.00
  233.27        2964.25           1422       31762.00    138977.40
  233.29        2964.50           1425       34858.00    152584.30
  233.32        2964.75           1428       37410.00    163808.00
  233.35        2965.00           1431       40243.00    176275.90
  233.37        2965.25           1435       43852.00    192171.60
  233.40        2965.50           1438       46823.00    205268.00
  233.43        2965.75           1441       49254.00    215991.10
  233.46        2966.00           1445       52905.00    232107.80
  233.48        2966.25           1448       55278.00    242590.80
  233.51        2966.50           1451       56992.00    250166.50
  233.54        2966.75           1455       58411.00    256440.70
  233.57        2967.00           1458       59115.00    259554.30
  233.59        2967.25           1461       59136.00    259647.20
  233.62        2967.50           1465       59053.00    259280.10
  233.65        2967.75           1468       58660.00    257541.90
  233.67        2968.00           1471       57708.00    253332.00
  233.70        2968.25           1475       55199.00    242241.70
  233.73        2968.50           1478       52673.00    231083.20
  233.76        2968.75           1481       50348.00    220818.80
  233.78        2969.00           1485       46442.00    203588.00
  233.81        2969.25           1488       43452.00    190409.20
  233.84        2969.50           1491       40727.00    178406.90
  233.87        2969.75           1495       36744.00    160878.30
  233.89        2970.00           1498       34009.00    148851.90
  233.92        2970.25           1501       31172.00    136385.60
  233.95        2970.50           1505       27412.00    119876.90
  233.97        2970.75           1508       24631.00    107676.40
  234.00        2971.00           1511       21901.00     95707.75
  234.03        2971.25           1515       18314.00     79994.15
  234.06        2971.50           1518       15523.00     67777.16
  234.08        2971.75           1521       12938.00     56469.34
  234.11        2972.00           1525        9266.00     40418.87
  234.14        2972.25           1528        6853.00     29879.39
  234.17        2972.50           1531        4463.00     19446.51
  234.19        2972.75           1535        1844.00      8020.98
  234.22        2973.00           1538         772.00      3346.43
  234.25        2973.25           1541         235.00      1005.26
  234.27        2973.50           1545          51.00       203.14
  234.30        2973.75           1548          41.00       159.55
  234.33        2974.00           1551          35.00       133.39
  234.36        2974.25           1555          29.00       107.24
  234.38        2974.50           1558          25.00        89.80
  234.41        2974.75           1561          28.00       102.88
  234.44        2975.00           1565          27.00        98.52
  234.46        2975.25           1568          24.00        85.44
  234.49        2975.50           1571          20.00        68.00
  234.52        2975.75           1575          20.00        68.00
  234.55        2976.00           1578          23.00        81.08
  234.57        2976.25           1581          21.00        72.36
  234.60        2976.50           1585          20.00        68.00
  234.63        2976.75           1588          26.00        94.16
  234.65        2977.00           1591          25.00        89.80
  234.68        2977.25           1595          21.00        72.36
  234.71        2977.50           1598          21.00        72.36
  234.74        2977.75           1601          28.00       102.88
  234.76        2978.00           1605          22.00        76.72
  234.79        2978.25           1608          20.00        68.00
  234.82        2978.50           1611          17.00        54.93
  234.84        2978.75           1615          19.00        63.64
  234.87        2979.00           1618          23.00        81.08
  234.90        2979.25           1621          18.00        59.29
  234.93        2979.50           1625          24.00        85.44
  234.95        2979.75           1628          24.00        85.44
  234.98        2980.00           1631          22.00        76.72
  235.01        2980.25           1635          25.00        89.80
  235.03        2980.50           1638          20.00        68.00
  235.06        2980.75           1641          21.00        72.36
  235.09        2981.00           1645          25.00        89.80
  235.12        2981.25           1648          23.00        81.08
  235.14        2981.50           1651          21.00        72.36
  235.17        2981.75           1655          22.00        76.72
  235.20        2982.00           1658          24.00        85.44
  235.22        2982.25           1661          22.00        76.72
  235.25        2982.50           1665          20.00        68.00
  235.28        2982.75           1668          25.00        89.80
  235.31        2983.00           1671          20.00        68.00
  235.33        2983.25           1675          21.00        72.36
  235.36        2983.50           1678          21.00        72.36
  235.39        2983.75           1681          20.00        68.00
  235.41        2984.00           1685          18.00        59.29
HS scan finished at 03:55:36
end
