************************************************************
  HS Scan of (1) Internal mercury lamp
************************************************************
Integration time is 0.2294 seconds per sample
dh211018Tamanrasset 22.79-5.529 4.974364pr865
************************************************************
Dead Time -------------------------  2.8E-08 
Number of Cycles Used -------------  4 
Starting Wavelength (Angstroms) ---  2950 
Final Wavelength (Angstoms) -------  2984 
Wavelength Increment (Angstroms) --  .25 
Filter Wheel #1 Position ---------- (1) Ground quartz diffuser (ND=2.32)
Filter Wheel #2 Position ---------- (1) Neutral Density 0.494



************************************************************
HS scan start time = 03:49:43
Dark Count =  5.3 


Time (GMT)  Wavelength (Ang)  Step Number  Raw Counts  Counts/Second

  230.07        2950.00           1233          18.00        55.36
  230.13        2950.25           1236          19.00        59.72
  230.16        2950.50           1239          20.00        64.08
  230.19        2950.75           1242          27.00        94.59
  230.22        2951.00           1246          19.00        59.72
  230.24        2951.25           1249          21.00        68.44
  230.27        2951.50           1252          17.00        51.00
  230.30        2951.75           1256          20.00        64.08
  230.32        2952.00           1259          23.00        77.16
  230.35        2952.25           1262          21.00        68.44
  230.38        2952.50           1266          18.00        55.36
  230.41        2952.75           1269          17.00        51.00
  230.43        2953.00           1272          20.00        64.08
  230.46        2953.25           1276          24.00        81.52
  230.49        2953.50           1279          15.00        42.28
  230.51        2953.75           1282          20.00        64.08
  230.54        2954.00           1286          25.00        85.88
  230.57        2954.25           1289          18.00        55.36
  230.60        2954.50           1292          18.00        55.36
  230.62        2954.75           1295          17.00        51.00
  230.65        2955.00           1299          24.00        81.52
  230.68        2955.25           1302          23.00        77.16
  230.70        2955.50           1305          18.00        55.36
  230.73        2955.75           1309          24.00        81.52
  230.76        2956.00           1312          27.00        94.59
  230.79        2956.25           1315          21.00        68.44
  230.81        2956.50           1319          18.00        55.36
  230.84        2956.75           1322          18.00        55.36
  230.87        2957.00           1325          19.00        59.72
  230.89        2957.25           1329          17.00        51.00
  230.92        2957.50           1332          20.00        64.08
  230.95        2957.75           1335          22.00        72.80
  230.98        2958.00           1339          21.00        68.44
  231.00        2958.25           1342          23.00        77.16
  231.03        2958.50           1345          21.00        68.44
  231.06        2958.75           1348          19.00        59.72
  231.08        2959.00           1352          18.00        55.36
  231.11        2959.25           1355          20.00        64.08
  231.14        2959.50           1358          22.00        72.80
  231.17        2959.75           1362          21.00        68.44
  231.19        2960.00           1365          24.00        81.52
  231.22        2960.25           1368          26.00        90.24
  231.25        2960.50           1372          34.00       125.11
  231.27        2960.75           1375          45.00       173.06
  231.30        2961.00           1378         144.00       604.63
  231.33        2961.25           1382         674.00      2915.23
  231.36        2961.50           1385        1604.00      6970.41
  231.38        2961.75           1388        3108.00     13530.41
  231.41        2962.00           1392        5989.00     26103.21
  231.44        2962.25           1395        8575.00     37396.16
  231.47        2962.50           1398       11326.00     49417.51
  231.49        2962.75           1402       14831.00     64745.43
  231.52        2963.00           1405       17513.00     76483.15
  231.55        2963.25           1408       20490.00     89520.97
  231.57        2963.50           1412       24032.00    105045.70
  231.60        2963.75           1415       26815.00    117253.10
  231.63        2964.00           1418       29562.00    129310.90
  231.66        2964.25           1422       33331.00    145867.90
  231.68        2964.50           1425       35954.00    157399.70
  231.71        2964.75           1428       38726.00    169594.60
  231.74        2965.00           1431       41770.00    182995.90
  231.77        2965.25           1435       45396.00    198972.50
  231.79        2965.50           1438       48109.00    210935.70
  231.82        2965.75           1441       50961.00    223520.50
  231.85        2966.00           1445       54609.00    239630.80
  231.88        2966.25           1448       57035.00    250352.60
  231.90        2966.50           1451       58507.00    256861.20
  231.93        2966.75           1455       59847.00    262788.40
  231.96        2967.00           1458       60829.00    267133.20
  231.99        2967.25           1461       60694.00    266535.80
  232.01        2967.50           1465       60412.00    265288.00
  232.04        2967.75           1468       59755.00    262381.30
  232.07        2968.00           1471       58566.00    257122.20
  232.09        2968.25           1475       56194.00    246635.00
  232.12        2968.50           1478       53654.00    235411.90
  232.15        2968.75           1481       50799.00    222805.50
  232.18        2969.00           1485       47175.00    206816.20
  232.20        2969.25           1488       43986.00    192758.10
  232.23        2969.50           1491       41226.00    180600.10
  232.26        2969.75           1495       37471.00    164072.40
  232.29        2970.00           1498       34642.00    151630.60
  232.31        2970.25           1501       31620.00    138349.60
  232.34        2970.50           1505       27763.00    121413.40
  232.37        2970.75           1508       24808.00    108448.70
  232.40        2971.00           1511       22139.00     96746.91
  232.42        2971.25           1515       18341.00     80108.43
  232.45        2971.50           1518       15600.00     68110.15
  232.48        2971.75           1521       12798.00     55853.19
  232.50        2972.00           1525        9086.00     39628.52
  232.53        2972.25           1528        6168.00     26884.66
  232.56        2972.50           1531        3991.00     17382.91
  232.59        2972.75           1535        1651.00      7175.37
  232.61        2973.00           1538         645.00      2788.80
  232.64        2973.25           1541         187.00       792.08
  232.67        2973.50           1545          54.00       212.29
  232.70        2973.75           1548          38.00       142.55
  232.72        2974.00           1551          36.00       133.83
  232.75        2974.25           1555          29.00       103.31
  232.78        2974.50           1558          27.00        94.59
  232.80        2974.75           1561          20.00        64.08
  232.83        2975.00           1565          22.00        72.80
  232.86        2975.25           1568          22.00        72.80
  232.89        2975.50           1571          19.00        59.72
  232.91        2975.75           1575          26.00        90.24
  232.94        2976.00           1578          23.00        77.16
  232.97        2976.25           1581          24.00        81.52
  232.99        2976.50           1585          22.00        72.80
  233.02        2976.75           1588          24.00        81.52
  233.05        2977.00           1591          24.00        81.52
  233.08        2977.25           1595          19.00        59.72
  233.10        2977.50           1598          22.00        72.80
  233.13        2977.75           1601          22.00        72.80
  233.16        2978.00           1605          22.00        72.80
  233.18        2978.25           1608          23.00        77.16
  233.21        2978.50           1611          21.00        68.44
  233.24        2978.75           1615          20.00        64.08
  233.27        2979.00           1618          25.00        85.88
  233.29        2979.25           1621          17.00        51.00
  233.32        2979.50           1625          21.00        68.44
  233.35        2979.75           1628          23.00        77.16
  233.37        2980.00           1631          22.00        72.80
  233.40        2980.25           1635          20.00        64.08
  233.43        2980.50           1638          22.00        72.80
  233.46        2980.75           1641          23.00        77.16
  233.48        2981.00           1645          22.00        72.80
  233.51        2981.25           1648          15.00        42.28
  233.54        2981.50           1651          19.00        59.72
  233.56        2981.75           1655          16.00        46.64
  233.59        2982.00           1658          18.00        55.36
  233.62        2982.25           1661          19.00        59.72
  233.65        2982.50           1665          19.00        59.72
  233.67        2982.75           1668          23.00        77.16
  233.70        2983.00           1671          22.00        72.80
  233.73        2983.25           1675          21.00        68.44
  233.76        2983.50           1678          22.00        72.80
  233.78        2983.75           1681          17.00        51.00
  233.81        2984.00           1685          20.00        64.08
HS scan finished at 03:54:00
end
