************************************************************
  HS Scan of (1) Internal mercury lamp
************************************************************
Integration time is 0.2294 seconds per sample
dh221018Tamanrasset 22.79-5.529 4.974364pr865
************************************************************
Dead Time -------------------------  2.8E-08 
Number of Cycles Used -------------  4 
Starting Wavelength (Angstroms) ---  2950 
Final Wavelength (Angstoms) -------  2984 
Wavelength Increment (Angstroms) --  .25 
Filter Wheel #1 Position ---------- (1) Ground quartz diffuser (ND=2.32)
Filter Wheel #2 Position ---------- (1) Neutral Density 0.494



************************************************************
HS scan start time = 03:50:10
Dark Count =  5.8 


Time (GMT)  Wavelength (Ang)  Step Number  Raw Counts  Counts/Second

  230.52        2950.00           1233          22.00        70.62
  230.59        2950.25           1236          16.00        44.46
  230.61        2950.50           1239          21.00        66.26
  230.64        2950.75           1242          21.00        66.26
  230.67        2951.00           1246          17.00        48.82
  230.70        2951.25           1249          21.00        66.26
  230.72        2951.50           1252          19.00        57.54
  230.75        2951.75           1256          22.00        70.62
  230.78        2952.00           1259          19.00        57.54
  230.80        2952.25           1262          16.00        44.46
  230.83        2952.50           1266          18.00        53.18
  230.86        2952.75           1269          19.00        57.54
  230.89        2953.00           1272          19.00        57.54
  230.91        2953.25           1276          18.00        53.18
  230.94        2953.50           1279          19.00        57.54
  230.97        2953.75           1282          19.00        57.54
  231.00        2954.00           1286          21.00        66.26
  231.02        2954.25           1289          23.00        74.98
  231.05        2954.50           1292          20.00        61.90
  231.08        2954.75           1295          21.00        66.26
  231.10        2955.00           1299          17.00        48.82
  231.13        2955.25           1302          20.00        61.90
  231.16        2955.50           1305          19.00        57.54
  231.19        2955.75           1309          19.00        57.54
  231.21        2956.00           1312          17.00        48.82
  231.24        2956.25           1315          21.00        66.26
  231.27        2956.50           1319          18.00        53.18
  231.29        2956.75           1322          20.00        61.90
  231.32        2957.00           1325          17.00        48.82
  231.35        2957.25           1329          17.00        48.82
  231.37        2957.50           1332          18.00        53.18
  231.40        2957.75           1335          20.00        61.90
  231.43        2958.00           1339          20.00        61.90
  231.46        2958.25           1342          16.00        44.46
  231.48        2958.50           1345          20.00        61.90
  231.51        2958.75           1348          17.00        48.82
  231.54        2959.00           1352          16.00        44.46
  231.57        2959.25           1355          24.00        79.34
  231.59        2959.50           1358          21.00        66.26
  231.62        2959.75           1362          24.00        79.34
  231.65        2960.00           1365          26.00        88.06
  231.67        2960.25           1368          27.00        92.42
  231.70        2960.50           1372          39.00       144.73
  231.73        2960.75           1375          52.00       201.40
  231.76        2961.00           1378         177.00       746.31
  231.78        2961.25           1382         817.00      3536.53
  231.81        2961.50           1385        1832.00      7962.54
  231.84        2961.75           1388        3632.00     15814.32
  231.86        2962.00           1392        6707.00     29235.78
  231.89        2962.25           1395        9314.00     40622.47
  231.92        2962.50           1398       12500.00     54547.94
  231.95        2962.75           1402       16116.00     70366.06
  231.97        2963.00           1405       19051.00     83215.47
  232.00        2963.25           1408       21846.00     95460.56
  232.03        2963.50           1412       25666.00    112209.90
  232.06        2963.75           1415       28144.00    123083.50
  232.08        2964.00           1418       31335.00    137095.40
  232.11        2964.25           1422       34989.00    153154.10
  232.14        2964.50           1425       37819.00    165601.30
  232.16        2964.75           1428       41145.00    180241.30
  232.19        2965.00           1431       44096.00    193240.70
  232.22        2965.25           1435       47940.00    210188.10
  232.25        2965.50           1438       50634.00    222075.00
  232.27        2965.75           1441       53604.00    235188.90
  232.30        2966.00           1445       57442.00    252149.70
  232.33        2966.25           1448       59614.00    261755.40
  232.36        2966.50           1451       61198.00    268763.90
  232.38        2966.75           1455       62831.00    275992.00
  232.41        2967.00           1458       63124.00    277289.30
  232.44        2967.25           1461       63393.00    278480.30
  232.47        2967.50           1465       63027.00    276859.80
  232.49        2967.75           1468       62386.00    274022.10
  232.52        2968.00           1471       61124.00    268436.40
  232.55        2968.25           1475       58047.00    254824.80
  232.57        2968.50           1478       55711.00    244498.10
  232.60        2968.75           1481       52490.00    230268.90
  232.63        2969.00           1485       48833.00    214127.40
  232.66        2969.25           1488       45627.00    199988.60
  232.68        2969.50           1491       42257.00    185138.60
  232.71        2969.75           1495       38223.00    167378.90
  232.74        2970.00           1498       35306.00    154547.90
  232.77        2970.25           1501       32196.00    140878.10
  232.79        2970.50           1505       28377.00    124106.20
  232.82        2970.75           1508       25341.00    110784.30
  232.85        2971.00           1511       22596.00     98747.81
  232.87        2971.25           1515       18806.00     82142.50
  232.90        2971.50           1518       15790.00     68939.40
  232.93        2971.75           1521       12960.00     56559.42
  232.96        2972.00           1525        9166.00     39975.85
  232.98        2972.25           1528        6284.00     27388.92
  233.01        2972.50           1531        3987.00     17363.28
  233.04        2972.75           1535        1473.00      6396.96
  233.07        2973.00           1538         530.00      2285.24
  233.09        2973.25           1541         135.00       563.22
  233.12        2973.50           1545          48.00       183.96
  233.15        2973.75           1548          39.00       144.73
  233.17        2974.00           1551          38.00       140.37
  233.20        2974.25           1555          31.00       109.85
  233.23        2974.50           1558          26.00        88.06
  233.26        2974.75           1561          25.00        83.70
  233.28        2975.00           1565          27.00        92.42
  233.31        2975.25           1568          24.00        79.34
  233.34        2975.50           1571          22.00        70.62
  233.36        2975.75           1575          23.00        74.98
  233.39        2976.00           1578          23.00        74.98
  233.42        2976.25           1581          23.00        74.98
  233.45        2976.50           1585          20.00        61.90
  233.47        2976.75           1588          21.00        66.26
  233.50        2977.00           1591          21.00        66.26
  233.53        2977.25           1595          26.00        88.06
  233.55        2977.50           1598          20.00        61.90
  233.58        2977.75           1601          24.00        79.34
  233.61        2978.00           1605          23.00        74.98
  233.64        2978.25           1608          21.00        66.26
  233.66        2978.50           1611          21.00        66.26
  233.69        2978.75           1615          20.00        61.90
  233.72        2979.00           1618          20.00        61.90
  233.74        2979.25           1621          22.00        70.62
  233.77        2979.50           1625          24.00        79.34
  233.80        2979.75           1628          18.00        53.18
  233.83        2980.00           1631          21.00        66.26
  233.85        2980.25           1635          22.00        70.62
  233.88        2980.50           1638          20.00        61.90
  233.91        2980.75           1641          18.00        53.18
  233.93        2981.00           1645          22.00        70.62
  233.96        2981.25           1648          23.00        74.98
  233.99        2981.50           1651          22.00        70.62
  234.02        2981.75           1655          23.00        74.98
  234.04        2982.00           1658          25.00        83.70
  234.07        2982.25           1661          17.00        48.82
  234.10        2982.50           1665          22.00        70.62
  234.12        2982.75           1668          18.00        53.18
  234.15        2983.00           1671          26.00        88.06
  234.18        2983.25           1675          24.00        79.34
  234.21        2983.50           1678          23.00        74.98
  234.23        2983.75           1681          19.00        57.54
  234.26        2984.00           1685          21.00        66.26
HS scan finished at 03:54:27
end
