************************************************************
  HS Scan of (1) Internal mercury lamp
************************************************************
Integration time is 0.2294 seconds per sample
dh241018Tamanrasset 22.79-5.529 4.974364pr865
************************************************************
Dead Time -------------------------  2.8E-08 
Number of Cycles Used -------------  4 
Starting Wavelength (Angstroms) ---  2950 
Final Wavelength (Angstoms) -------  2984 
Wavelength Increment (Angstroms) --  .25 
Filter Wheel #1 Position ---------- (1) Ground quartz diffuser (ND=2.32)
Filter Wheel #2 Position ---------- (1) Neutral Density 0.494



************************************************************
HS scan start time = 03:51:11
Dark Count =  6.4 


Time (GMT)  Wavelength (Ang)  Step Number  Raw Counts  Counts/Second

  231.54        2950.00           1233          16.00        41.85
  231.61        2950.25           1236          22.00        68.00
  231.63        2950.50           1239          17.00        46.21
  231.66        2950.75           1242          20.00        59.29
  231.69        2951.00           1246          21.00        63.64
  231.72        2951.25           1249          18.00        50.57
  231.74        2951.50           1252          19.00        54.93
  231.77        2951.75           1256          20.00        59.29
  231.80        2952.00           1259          16.00        41.85
  231.83        2952.25           1262          20.00        59.29
  231.85        2952.50           1266          17.00        46.21
  231.88        2952.75           1269          21.00        63.64
  231.91        2953.00           1272          22.00        68.00
  231.93        2953.25           1276          21.00        63.64
  231.96        2953.50           1279          20.00        59.29
  231.99        2953.75           1282          20.00        59.29
  232.02        2954.00           1286          19.00        54.93
  232.04        2954.25           1289          17.00        46.21
  232.07        2954.50           1292          18.00        50.57
  232.10        2954.75           1295          16.00        41.85
  232.12        2955.00           1299          20.00        59.29
  232.15        2955.25           1302          20.00        59.29
  232.18        2955.50           1305          19.00        54.93
  232.21        2955.75           1309          20.00        59.29
  232.23        2956.00           1312          20.00        59.29
  232.26        2956.25           1315          19.00        54.93
  232.29        2956.50           1319          22.00        68.00
  232.31        2956.75           1322          15.00        37.49
  232.34        2957.00           1325          19.00        54.93
  232.37        2957.25           1329          19.00        54.93
  232.40        2957.50           1332          21.00        63.64
  232.42        2957.75           1335          15.00        37.49
  232.45        2958.00           1339          24.00        76.72
  232.48        2958.25           1342          19.00        54.93
  232.50        2958.50           1345          19.00        54.93
  232.53        2958.75           1348          18.00        50.57
  232.56        2959.00           1352          20.00        59.29
  232.59        2959.25           1355          23.00        72.36
  232.61        2959.50           1358          20.00        59.29
  232.64        2959.75           1362          19.00        54.93
  232.67        2960.00           1365          22.00        68.00
  232.69        2960.25           1368          24.00        76.72
  232.72        2960.50           1372          38.00       137.75
  232.75        2960.75           1375          40.00       146.47
  232.78        2961.00           1378          96.00       390.59
  232.80        2961.25           1382         520.00      2239.02
  232.83        2961.50           1385        1285.00      5574.54
  232.86        2961.75           1388        2565.00     11156.93
  232.88        2962.00           1392        5264.00     22933.64
  232.91        2962.25           1395        7728.00     33691.75
  232.94        2962.50           1398       10390.00     45321.65
  232.97        2962.75           1402       13639.00     59526.33
  232.99        2963.00           1405       16293.00     71138.08
  233.02        2963.25           1408       18851.00     82336.96
  233.05        2963.50           1412       22630.00     98894.22
  233.08        2963.75           1415       25059.00    109544.70
  233.10        2964.00           1418       27758.00    121386.60
  233.13        2964.25           1422       31275.00    136829.20
  233.16        2964.50           1425       33797.00    147911.20
  233.18        2964.75           1428       36535.00    159950.20
  233.21        2965.00           1431       39383.00    172481.40
  233.24        2965.25           1435       42728.00    187210.70
  233.27        2965.50           1438       45711.00    200356.30
  233.29        2965.75           1441       48250.00    211552.80
  233.32        2966.00           1445       51881.00    227577.20
  233.35        2966.25           1448       53932.00    236635.10
  233.38        2966.50           1451       55843.00    245078.80
  233.40        2966.75           1455       57368.00    251819.90
  233.43        2967.00           1458       58038.00    254782.40
  233.46        2967.25           1461       58190.00    255454.50
  233.49        2967.50           1465       57783.00    253654.80
  233.51        2967.75           1468       57295.00    251497.20
  233.54        2968.00           1471       56436.00    247699.80
  233.57        2968.25           1475       54035.00    237090.10
  233.59        2968.50           1478       51929.00    227789.20
  233.62        2968.75           1481       49324.00    216291.10
  233.65        2969.00           1485       45586.00    199805.20
  233.68        2969.25           1488       42504.00    186224.00
  233.70        2969.50           1491       39736.00    174035.20
  233.73        2969.75           1495       36031.00    157733.50
  233.76        2970.00           1498       33154.00    145085.10
  233.79        2970.25           1501       30402.00    132994.80
  233.81        2970.50           1505       26675.00    116634.00
  233.84        2970.75           1508       23802.00    104032.30
  233.87        2971.00           1511       21093.00     92158.16
  233.90        2971.25           1515       17753.00     77529.06
  233.92        2971.50           1518       14928.00     65165.00
  233.95        2971.75           1521       12383.00     54033.74
  233.98        2972.00           1525        8823.00     38474.73
  234.00        2972.25           1528        6233.00     27163.64
  234.03        2972.50           1531        3930.00     17111.95
  234.06        2972.75           1535        1596.00      6930.73
  234.09        2973.00           1538         586.00      2526.77
  234.11        2973.25           1541         154.00       643.43
  234.14        2973.50           1545          47.00       176.98
  234.17        2973.75           1548          39.00       142.11
  234.19        2974.00           1551          26.00        85.44
  234.22        2974.25           1555          29.00        98.52
  234.25        2974.50           1558          29.00        98.52
  234.28        2974.75           1561          20.00        59.29
  234.30        2975.00           1565          26.00        85.44
  234.33        2975.25           1568          23.00        72.36
  234.36        2975.50           1571          26.00        85.44
  234.39        2975.75           1575          22.00        68.00
  234.41        2976.00           1578          23.00        72.36
  234.44        2976.25           1581          30.00       102.88
  234.47        2976.50           1585          21.00        63.64
  234.49        2976.75           1588          18.00        50.57
  234.52        2977.00           1591          26.00        85.44
  234.55        2977.25           1595          22.00        68.00
  234.58        2977.50           1598          22.00        68.00
  234.60        2977.75           1601          17.00        46.21
  234.63        2978.00           1605          24.00        76.72
  234.66        2978.25           1608          24.00        76.72
  234.68        2978.50           1611          23.00        72.36
  234.71        2978.75           1615          21.00        63.64
  234.74        2979.00           1618          20.00        59.29
  234.77        2979.25           1621          23.00        72.36
  234.79        2979.50           1625          25.00        81.08
  234.82        2979.75           1628          21.00        63.64
  234.85        2980.00           1631          22.00        68.00
  234.87        2980.25           1635          17.00        46.21
  234.90        2980.50           1638          20.00        59.29
  234.93        2980.75           1641          14.00        33.13
  234.96        2981.00           1645          24.00        76.72
  234.98        2981.25           1648          18.00        50.57
  235.01        2981.50           1651          23.00        72.36
  235.04        2981.75           1655          20.00        59.29
  235.06        2982.00           1658          19.00        54.93
  235.09        2982.25           1661          23.00        72.36
  235.12        2982.50           1665          19.00        54.93
  235.15        2982.75           1668          21.00        63.64
  235.17        2983.00           1671          17.00        46.21
  235.20        2983.25           1675          18.00        50.57
  235.23        2983.50           1678          19.00        54.93
  235.25        2983.75           1681          18.00        50.57
  235.28        2984.00           1685          20.00        59.29
HS scan finished at 03:55:28
end
