************************************************************
  HS Scan of (1) Internal mercury lamp
************************************************************
Integration time is 0.2294 seconds per sample
dh191018Tamanrasset 22.79-5.529 4.974364pr865
************************************************************
Dead Time -------------------------  2.8E-08 
Number of Cycles Used -------------  4 
Starting Wavelength (Angstroms) ---  2950 
Final Wavelength (Angstoms) -------  2984 
Wavelength Increment (Angstroms) --  .25 
Filter Wheel #1 Position ---------- (1) Ground quartz diffuser (ND=2.32)
Filter Wheel #2 Position ---------- (1) Neutral Density 0.494



************************************************************
HS scan start time = 03:48:44
Dark Count =  4.2 


Time (GMT)  Wavelength (Ang)  Step Number  Raw Counts  Counts/Second

  229.08        2950.00           1233          21.00        73.23
  229.15        2950.25           1236          19.00        64.52
  229.18        2950.50           1239          16.00        51.44
  229.20        2950.75           1242          20.00        68.88
  229.23        2951.00           1246          21.00        73.23
  229.26        2951.25           1249          16.00        51.44
  229.28        2951.50           1252          19.00        64.52
  229.31        2951.75           1256          19.00        64.52
  229.34        2952.00           1259          19.00        64.52
  229.37        2952.25           1262          23.00        81.95
  229.39        2952.50           1266          20.00        68.88
  229.42        2952.75           1269          21.00        73.23
  229.45        2953.00           1272          21.00        73.23
  229.48        2953.25           1276          20.00        68.88
  229.50        2953.50           1279          19.00        64.52
  229.53        2953.75           1282          24.00        86.31
  229.56        2954.00           1286          24.00        86.31
  229.58        2954.25           1289          20.00        68.88
  229.61        2954.50           1292          25.00        90.67
  229.64        2954.75           1295          18.00        60.16
  229.67        2955.00           1299          18.00        60.16
  229.69        2955.25           1302          19.00        64.52
  229.72        2955.50           1305          20.00        68.88
  229.75        2955.75           1309          21.00        73.23
  229.77        2956.00           1312          16.00        51.44
  229.80        2956.25           1315          22.00        77.59
  229.83        2956.50           1319          18.00        60.16
  229.85        2956.75           1322          20.00        68.88
  229.88        2957.00           1325          25.00        90.67
  229.91        2957.25           1329          22.00        77.59
  229.94        2957.50           1332          25.00        90.67
  229.96        2957.75           1335          21.00        73.23
  229.99        2958.00           1339          17.00        55.80
  230.02        2958.25           1342          17.00        55.80
  230.04        2958.50           1345          19.00        64.52
  230.07        2958.75           1348          22.00        77.59
  230.10        2959.00           1352          21.00        73.23
  230.13        2959.25           1355          21.00        73.23
  230.15        2959.50           1358          21.00        73.23
  230.18        2959.75           1362          20.00        68.88
  230.21        2960.00           1365          20.00        68.88
  230.24        2960.25           1368          28.00       103.75
  230.26        2960.50           1372          35.00       134.26
  230.29        2960.75           1375          34.00       129.90
  230.32        2961.00           1378         108.00       452.49
  230.34        2961.25           1382         497.00      2148.34
  230.37        2961.50           1385        1184.00      5143.72
  230.40        2961.75           1388        2416.00     10516.61
  230.43        2962.00           1392        4937.00     21516.01
  230.45        2962.25           1395        7266.00     31683.72
  230.48        2962.50           1398        9839.00     42923.40
  230.51        2962.75           1402       13184.00     57546.00
  230.54        2963.00           1405       15681.00     68469.41
  230.56        2963.25           1408       18416.00     80441.68
  230.59        2963.50           1412       21706.00     94854.03
  230.62        2963.75           1415       24166.00    105638.10
  230.64        2964.00           1418       26791.00    117152.60
  230.67        2964.25           1422       30282.00    132477.40
  230.70        2964.50           1425       32671.00    142972.30
  230.73        2964.75           1428       35363.00    154805.60
  230.75        2965.00           1431       38020.00    166492.80
  230.78        2965.25           1435       41482.00    181732.40
  230.81        2965.50           1438       44201.00    193710.40
  230.84        2965.75           1441       46624.00    204391.30
  230.86        2966.00           1445       50315.00    220674.10
  230.89        2966.25           1448       52238.00    229163.20
  230.92        2966.50           1451       54140.00    237563.70
  230.94        2966.75           1455       55816.00    244969.20
  230.97        2967.00           1458       56145.00    246423.30
  231.00        2967.25           1461       56334.00    247258.70
  231.03        2967.50           1465       56134.00    246374.70
  231.05        2967.75           1468       55447.00    243338.50
  231.08        2968.00           1471       54496.00    239136.40
  231.11        2968.25           1475       52820.00    231733.30
  231.14        2968.50           1478       50406.00    221075.70
  231.16        2968.75           1481       47894.00    209992.20
  231.19        2969.00           1485       44307.00    194177.60
  231.22        2969.25           1488       41507.00    181842.40
  231.24        2969.50           1491       38917.00    170440.10
  231.27        2969.75           1495       35123.00    153750.30
  231.30        2970.00           1498       32511.00    142269.20
  231.33        2970.25           1501       29607.00    129513.30
  231.35        2970.50           1505       25968.00    113541.70
  231.38        2970.75           1508       23423.00    102380.30
  231.41        2971.00           1511       20867.00     91177.56
  231.44        2971.25           1515       17383.00     75918.85
  231.46        2971.50           1518       14898.00     65043.37
  231.49        2971.75           1521       12336.00     53837.86
  231.52        2972.00           1525        8901.00     38825.10
  231.55        2972.25           1528        6313.00     27522.51
  231.57        2972.50           1531        4118.00     17941.88
  231.60        2972.75           1535        1660.00      7219.42
  231.63        2973.00           1538         638.00      2763.07
  231.65        2973.25           1541         192.00       818.68
  231.68        2973.50           1545          60.00       243.24
  231.71        2973.75           1548          32.00       121.19
  231.74        2974.00           1551          30.00       112.47
  231.76        2974.25           1555          28.00       103.75
  231.79        2974.50           1558          24.00        86.31
  231.82        2974.75           1561          30.00       112.47
  231.84        2975.00           1565          25.00        90.67
  231.87        2975.25           1568          21.00        73.23
  231.90        2975.50           1571          24.00        86.31
  231.93        2975.75           1575          20.00        68.88
  231.95        2976.00           1578          23.00        81.95
  231.98        2976.25           1581          24.00        86.31
  232.01        2976.50           1585          22.00        77.59
  232.04        2976.75           1588          17.00        55.80
  232.06        2977.00           1591          20.00        68.88
  232.09        2977.25           1595          22.00        77.59
  232.12        2977.50           1598          22.00        77.59
  232.14        2977.75           1601          24.00        86.31
  232.17        2978.00           1605          21.00        73.23
  232.20        2978.25           1608          24.00        86.31
  232.22        2978.50           1611          20.00        68.88
  232.25        2978.75           1615          23.00        81.95
  232.28        2979.00           1618          22.00        77.59
  232.31        2979.25           1621          21.00        73.23
  232.33        2979.50           1625          20.00        68.88
  232.36        2979.75           1628          23.00        81.95
  232.39        2980.00           1631          20.00        68.88
  232.41        2980.25           1635          19.00        64.52
  232.44        2980.50           1638          19.00        64.52
  232.47        2980.75           1641          20.00        68.88
  232.50        2981.00           1645          22.00        77.59
  232.52        2981.25           1648          21.00        73.23
  232.55        2981.50           1651          22.00        77.59
  232.58        2981.75           1655          19.00        64.52
  232.60        2982.00           1658          17.00        55.80
  232.63        2982.25           1661          17.00        55.80
  232.66        2982.50           1665          19.00        64.52
  232.69        2982.75           1668          19.00        64.52
  232.71        2983.00           1671          16.00        51.44
  232.74        2983.25           1675          17.00        55.80
  232.77        2983.50           1678          22.00        77.59
  232.79        2983.75           1681          21.00        73.23
  232.82        2984.00           1685          17.00        55.80
HS scan finished at 03:53:01
end
