************************************************************
  HS Scan of (1) Internal mercury lamp
************************************************************
Integration time is 0.2294 seconds per sample
dh031118Tamanrasset 22.79-5.529 4.974364pr865
************************************************************
Dead Time -------------------------  2.8E-08 
Number of Cycles Used -------------  4 
Starting Wavelength (Angstroms) ---  2950 
Final Wavelength (Angstoms) -------  2984 
Wavelength Increment (Angstroms) --  .25 
Filter Wheel #1 Position ---------- (1) Ground quartz diffuser (ND=2.32)
Filter Wheel #2 Position ---------- (1) Neutral Density 0.494



************************************************************
HS scan start time = 03:56:15
Dark Count =  4.1 


Time (GMT)  Wavelength (Ang)  Step Number  Raw Counts  Counts/Second

  236.61        2950.00           1233          22.00        78.03
  236.67        2950.25           1236          18.00        60.59
  236.70        2950.50           1239          20.00        69.31
  236.73        2950.75           1242          21.00        73.67
  236.76        2951.00           1246          24.00        86.75
  236.78        2951.25           1249          19.00        64.95
  236.81        2951.50           1252          18.00        60.59
  236.84        2951.75           1256          20.00        69.31
  236.86        2952.00           1259          19.00        64.95
  236.89        2952.25           1262          23.00        82.39
  236.92        2952.50           1266          18.00        60.59
  236.95        2952.75           1269          18.00        60.59
  236.97        2953.00           1272          18.00        60.59
  237.00        2953.25           1276          18.00        60.59
  237.03        2953.50           1279          20.00        69.31
  237.06        2953.75           1282          23.00        82.39
  237.08        2954.00           1286          21.00        73.67
  237.11        2954.25           1289          19.00        64.95
  237.14        2954.50           1292          19.00        64.95
  237.16        2954.75           1295          21.00        73.67
  237.19        2955.00           1299          19.00        64.95
  237.22        2955.25           1302          23.00        82.39
  237.25        2955.50           1305          18.00        60.59
  237.27        2955.75           1309          20.00        69.31
  237.30        2956.00           1312          18.00        60.59
  237.33        2956.25           1315          20.00        69.31
  237.35        2956.50           1319          18.00        60.59
  237.38        2956.75           1322          22.00        78.03
  237.41        2957.00           1325          20.00        69.31
  237.44        2957.25           1329          22.00        78.03
  237.46        2957.50           1332          21.00        73.67
  237.49        2957.75           1335          24.00        86.75
  237.52        2958.00           1339          23.00        82.39
  237.54        2958.25           1342          21.00        73.67
  237.57        2958.50           1345          23.00        82.39
  237.60        2958.75           1348          20.00        69.31
  237.62        2959.00           1352          19.00        64.95
  237.65        2959.25           1355          18.00        60.59
  237.68        2959.50           1358          19.00        64.95
  237.71        2959.75           1362          20.00        69.31
  237.73        2960.00           1365          27.00        99.83
  237.76        2960.25           1368          22.00        78.03
  237.79        2960.50           1372          31.00       117.26
  237.82        2960.75           1375          30.00       112.90
  237.84        2961.00           1378          90.00       374.46
  237.87        2961.25           1382         461.00      1991.83
  237.90        2961.50           1385        1146.00      4978.46
  237.92        2961.75           1388        2355.00     10250.98
  237.95        2962.00           1392        4752.00     20709.04
  237.98        2962.25           1395        6992.00     30487.65
  238.01        2962.50           1398        9416.00     41075.55
  238.03        2962.75           1402       12548.00     54765.26
  238.06        2963.00           1405       14977.00     65389.45
  238.09        2963.25           1408       17277.00     75455.25
  238.12        2963.50           1412       20422.00     89228.32
  238.14        2963.75           1415       22600.00     98772.80
  238.17        2964.00           1418       25006.00    109322.40
  238.20        2964.25           1422       28160.00    123161.10
  238.22        2964.50           1425       30494.00    133408.90
  238.25        2964.75           1428       33201.00    145301.80
  238.28        2965.00           1431       35631.00    155984.50
  238.31        2965.25           1435       38787.00    169868.40
  238.33        2965.50           1438       41169.00    180354.40
  238.36        2965.75           1441       43614.00    191124.30
  238.39        2966.00           1445       46777.00    205066.40
  238.42        2966.25           1448       48795.00    213967.30
  238.44        2966.50           1451       50040.00    219460.80
  238.47        2966.75           1455       51582.00    226267.30
  238.50        2967.00           1458       51913.00    227728.70
  238.52        2967.25           1461       52127.00    228673.50
  238.55        2967.50           1465       51725.00    226898.60
  238.58        2967.75           1468       51450.00    225684.50
  238.61        2968.00           1471       50252.00    220396.50
  238.63        2968.25           1475       48246.00    211545.30
  238.66        2968.50           1478       46350.00    203183.60
  238.69        2968.75           1481       43935.00    192538.70
  238.72        2969.00           1485       40626.00    177963.50
  238.74        2969.25           1488       37947.00    166172.00
  238.77        2969.50           1491       35019.00    153293.40
  238.80        2969.75           1495       32090.00    140419.80
  238.82        2970.00           1498       29629.00    129610.30
  238.85        2970.25           1501       27350.00    119606.10
  238.88        2970.50           1505       23902.00    104480.90
  238.91        2970.75           1508       21517.00     94026.21
  238.93        2971.00           1511       19188.00     83822.93
  238.96        2971.25           1515       16073.00     70185.31
  238.99        2971.50           1518       13498.00     58919.71
  239.02        2971.75           1521       11182.00     48793.30
  239.04        2972.00           1525        7981.00     34806.79
  239.07        2972.25           1528        5842.00     25466.72
  239.10        2972.50           1531        3712.00     16170.79
  239.12        2972.75           1535        1559.00      6779.40
  239.15        2973.00           1538         641.00      2776.59
  239.18        2973.25           1541         186.00       792.96
  239.21        2973.50           1545          48.00       191.37
  239.23        2973.75           1548          40.00       156.50
  239.26        2974.00           1551          35.00       134.70
  239.29        2974.25           1555          24.00        86.75
  239.32        2974.50           1558          26.00        95.47
  239.34        2974.75           1561          25.00        91.11
  239.37        2975.00           1565          22.00        78.03
  239.40        2975.25           1568          18.00        60.59
  239.42        2975.50           1571          24.00        86.75
  239.45        2975.75           1575          21.00        73.67
  239.48        2976.00           1578          17.00        56.23
  239.51        2976.25           1581          22.00        78.03
  239.53        2976.50           1585          20.00        69.31
  239.56        2976.75           1588          21.00        73.67
  239.59        2977.00           1591          22.00        78.03
  239.61        2977.25           1595          21.00        73.67
  239.64        2977.50           1598          25.00        91.11
  239.67        2977.75           1601          22.00        78.03
  239.70        2978.00           1605          22.00        78.03
  239.72        2978.25           1608          21.00        73.67
  239.75        2978.50           1611          21.00        73.67
  239.78        2978.75           1615          19.00        64.95
  239.80        2979.00           1618          22.00        78.03
  239.83        2979.25           1621          16.00        51.87
  239.86        2979.50           1625          23.00        82.39
  239.89        2979.75           1628          24.00        86.75
  239.91        2980.00           1631          16.00        51.87
  239.94        2980.25           1635          17.00        56.23
  239.97        2980.50           1638          26.00        95.47
  239.99        2980.75           1641          21.00        73.67
  240.02        2981.00           1645          24.00        86.75
  240.05        2981.25           1648          22.00        78.03
  240.08        2981.50           1651          21.00        73.67
  240.10        2981.75           1655          20.00        69.31
  240.13        2982.00           1658          20.00        69.31
  240.16        2982.25           1661          23.00        82.39
  240.18        2982.50           1665          23.00        82.39
  240.21        2982.75           1668          17.00        56.23
  240.24        2983.00           1671          21.00        73.67
  240.27        2983.25           1675          17.00        56.23
  240.29        2983.50           1678          15.00        47.52
  240.32        2983.75           1681          22.00        78.03
  240.35        2984.00           1685          20.00        69.31
HS scan finished at 04:00:32
end
