************************************************************
  HS Scan of (1) Internal mercury lamp
************************************************************
Integration time is 0.2294 seconds per sample
dh011118Tamanrasset 22.79-5.529 4.974364pr865
************************************************************
Dead Time -------------------------  2.8E-08 
Number of Cycles Used -------------  4 
Starting Wavelength (Angstroms) ---  2950 
Final Wavelength (Angstoms) -------  2984 
Wavelength Increment (Angstroms) --  .25 
Filter Wheel #1 Position ---------- (1) Ground quartz diffuser (ND=2.32)
Filter Wheel #2 Position ---------- (1) Neutral Density 0.494



************************************************************
HS scan start time = 03:55:08
Dark Count =  3.7 


Time (GMT)  Wavelength (Ang)  Step Number  Raw Counts  Counts/Second

  235.50        2950.00           1233          19.00        66.70
  235.56        2950.25           1236          19.00        66.70
  235.59        2950.50           1239          20.00        71.06
  235.62        2950.75           1242          24.00        88.49
  235.64        2951.00           1246          17.00        57.98
  235.67        2951.25           1249          20.00        71.06
  235.70        2951.50           1252          22.00        79.77
  235.73        2951.75           1256          23.00        84.13
  235.75        2952.00           1259          21.00        75.41
  235.78        2952.25           1262          20.00        71.06
  235.81        2952.50           1266          22.00        79.77
  235.83        2952.75           1269          21.00        75.41
  235.86        2953.00           1272          20.00        71.06
  235.89        2953.25           1276          20.00        71.06
  235.92        2953.50           1279          21.00        75.41
  235.94        2953.75           1282          19.00        66.70
  235.97        2954.00           1286          18.00        62.34
  236.00        2954.25           1289          18.00        62.34
  236.02        2954.50           1292          17.00        57.98
  236.05        2954.75           1295          19.00        66.70
  236.08        2955.00           1299          18.00        62.34
  236.11        2955.25           1302          16.00        53.62
  236.13        2955.50           1305          17.00        57.98
  236.16        2955.75           1309          23.00        84.13
  236.19        2956.00           1312          18.00        62.34
  236.21        2956.25           1315          22.00        79.77
  236.24        2956.50           1319          21.00        75.41
  236.27        2956.75           1322          17.00        57.98
  236.30        2957.00           1325          20.00        71.06
  236.32        2957.25           1329          18.00        62.34
  236.35        2957.50           1332          22.00        79.77
  236.38        2957.75           1335          20.00        71.06
  236.40        2958.00           1339          17.00        57.98
  236.43        2958.25           1342          19.00        66.70
  236.46        2958.50           1345          20.00        71.06
  236.49        2958.75           1348          19.00        66.70
  236.51        2959.00           1352          20.00        71.06
  236.54        2959.25           1355          21.00        75.41
  236.57        2959.50           1358          19.00        66.70
  236.60        2959.75           1362          25.00        92.85
  236.62        2960.00           1365          27.00       101.57
  236.65        2960.25           1368          35.00       136.44
  236.68        2960.50           1372          36.00       140.80
  236.70        2960.75           1375          40.00       158.24
  236.73        2961.00           1378         128.00       541.86
  236.76        2961.25           1382         620.00      2686.78
  236.79        2961.50           1385        1499.00      6519.50
  236.81        2961.75           1388        2988.00     13013.90
  236.84        2962.00           1392        5684.00     24778.74
  236.87        2962.25           1395        8224.00     35869.92
  236.89        2962.50           1398       11098.00     48427.88
  236.92        2962.75           1402       14461.00     63133.74
  236.95        2963.00           1405       17144.00     74874.78
  236.98        2963.25           1408       19929.00     87070.34
  237.00        2963.50           1412       23165.00    101251.30
  237.03        2963.75           1415       25807.00    112837.60
  237.06        2964.00           1418       28712.00    125586.00
  237.09        2964.25           1422       32130.00    140597.30
  237.11        2964.50           1425       34825.00    152442.30
  237.14        2964.75           1428       37495.00    164185.10
  237.17        2965.00           1431       40222.00    176186.60
  237.20        2965.25           1435       43937.00    192549.30
  237.22        2965.50           1438       46619.00    204371.50
  237.25        2965.75           1441       48968.00    214732.30
  237.28        2966.00           1445       52761.00    231475.00
  237.30        2966.25           1448       55008.00    241400.80
  237.33        2966.50           1451       56413.00    247610.10
  237.36        2966.75           1455       57944.00    254378.70
  237.39        2967.00           1458       58485.00    256771.00
  237.41        2967.25           1461       58412.00    256448.20
  237.44        2967.50           1465       58136.00    255227.70
  237.47        2967.75           1468       57841.00    253923.20
  237.50        2968.00           1471       56637.00    248600.20
  237.52        2968.25           1475       53972.00    236823.70
  237.55        2968.50           1478       51440.00    225642.10
  237.58        2968.75           1481       48673.00    213430.80
  237.61        2969.00           1485       45161.00    197943.70
  237.63        2969.25           1488       42213.00    184954.10
  237.66        2969.50           1491       39640.00    173624.50
  237.69        2969.75           1495       35755.00    156531.60
  237.71        2970.00           1498       32798.00    143532.50
  237.74        2970.25           1501       30201.00    132123.90
  237.77        2970.50           1505       26308.00    115035.60
  237.80        2970.75           1508       23669.00    103461.00
  237.82        2971.00           1511       21079.00     92108.65
  237.85        2971.25           1515       17660.00     77133.72
  237.88        2971.50           1518       14825.00     64726.18
  237.91        2971.75           1521       11992.00     52336.01
  237.93        2972.00           1525        8553.00     37307.04
  237.96        2972.25           1528        6064.00     26437.61
  237.99        2972.50           1531        3873.00     16875.02
  238.01        2972.75           1535        1526.00      6637.24
  238.04        2973.00           1538         549.00      2377.23
  238.07        2973.25           1541         163.00       694.43
  238.10        2973.50           1545          48.00       193.11
  238.12        2973.75           1548          39.00       153.88
  238.15        2974.00           1551          34.00       132.08
  238.18        2974.25           1555          30.00       114.65
  238.20        2974.50           1558          32.00       123.37
  238.23        2974.75           1561          21.00        75.41
  238.26        2975.00           1565          21.00        75.41
  238.29        2975.25           1568          24.00        88.49
  238.31        2975.50           1571          22.00        79.77
  238.34        2975.75           1575          24.00        88.49
  238.37        2976.00           1578          22.00        79.77
  238.39        2976.25           1581          22.00        79.77
  238.42        2976.50           1585          25.00        92.85
  238.45        2976.75           1588          25.00        92.85
  238.48        2977.00           1591          26.00        97.21
  238.50        2977.25           1595          24.00        88.49
  238.53        2977.50           1598          20.00        71.06
  238.56        2977.75           1601          25.00        92.85
  238.58        2978.00           1605          22.00        79.77
  238.61        2978.25           1608          19.00        66.70
  238.64        2978.50           1611          20.00        71.06
  238.67        2978.75           1615          21.00        75.41
  238.69        2979.00           1618          21.00        75.41
  238.72        2979.25           1621          26.00        97.21
  238.75        2979.50           1625          20.00        71.06
  238.78        2979.75           1628          22.00        79.77
  238.80        2980.00           1631          24.00        88.49
  238.83        2980.25           1635          18.00        62.34
  238.86        2980.50           1638          21.00        75.41
  238.89        2980.75           1641          24.00        88.49
  238.91        2981.00           1645          20.00        71.06
  238.94        2981.25           1648          22.00        79.77
  238.97        2981.50           1651          21.00        75.41
  238.99        2981.75           1655          21.00        75.41
  239.02        2982.00           1658          23.00        84.13
  239.05        2982.25           1661          21.00        75.41
  239.08        2982.50           1665          18.00        62.34
  239.10        2982.75           1668          19.00        66.70
  239.13        2983.00           1671          17.00        57.98
  239.16        2983.25           1675          26.00        97.21
  239.18        2983.50           1678          16.00        53.62
  239.21        2983.75           1681          20.00        71.06
  239.24        2984.00           1685          20.00        71.06
HS scan finished at 03:59:26
end
