************************************************************
  HS Scan of (1) Internal mercury lamp
************************************************************
Integration time is 0.2294 seconds per sample
dh271018Tamanrasset 22.79-5.529 4.974364pr865
************************************************************
Dead Time -------------------------  2.8E-08 
Number of Cycles Used -------------  4 
Starting Wavelength (Angstroms) ---  2950 
Final Wavelength (Angstoms) -------  2984 
Wavelength Increment (Angstroms) --  .25 
Filter Wheel #1 Position ---------- (1) Ground quartz diffuser (ND=2.32)
Filter Wheel #2 Position ---------- (1) Neutral Density 0.494



************************************************************
HS scan start time = 03:52:09
Dark Count =  3.9 


Time (GMT)  Wavelength (Ang)  Step Number  Raw Counts  Counts/Second

  232.50        2950.00           1233          20.00        70.18
  232.57        2950.25           1236          21.00        74.54
  232.59        2950.50           1239          19.00        65.82
  232.62        2950.75           1242          24.00        87.62
  232.65        2951.00           1246          23.00        83.26
  232.67        2951.25           1249          22.00        78.90
  232.70        2951.50           1252          20.00        70.18
  232.73        2951.75           1256          17.00        57.11
  232.76        2952.00           1259          20.00        70.18
  232.78        2952.25           1262          20.00        70.18
  232.81        2952.50           1266          22.00        78.90
  232.84        2952.75           1269          21.00        74.54
  232.86        2953.00           1272          19.00        65.82
  232.89        2953.25           1276          24.00        87.62
  232.92        2953.50           1279          23.00        83.26
  232.95        2953.75           1282          17.00        57.11
  232.97        2954.00           1286          21.00        74.54
  233.00        2954.25           1289          24.00        87.62
  233.03        2954.50           1292          24.00        87.62
  233.05        2954.75           1295          18.00        61.46
  233.08        2955.00           1299          20.00        70.18
  233.11        2955.25           1302          19.00        65.82
  233.14        2955.50           1305          19.00        65.82
  233.16        2955.75           1309          19.00        65.82
  233.19        2956.00           1312          17.00        57.11
  233.22        2956.25           1315          24.00        87.62
  233.24        2956.50           1319          20.00        70.18
  233.27        2956.75           1322          21.00        74.54
  233.30        2957.00           1325          18.00        61.46
  233.33        2957.25           1329          21.00        74.54
  233.35        2957.50           1332          18.00        61.46
  233.38        2957.75           1335          19.00        65.82
  233.41        2958.00           1339          22.00        78.90
  233.43        2958.25           1342          20.00        70.18
  233.46        2958.50           1345          23.00        83.26
  233.49        2958.75           1348          22.00        78.90
  233.52        2959.00           1352          21.00        74.54
  233.54        2959.25           1355          21.00        74.54
  233.57        2959.50           1358          22.00        78.90
  233.60        2959.75           1362          21.00        74.54
  233.62        2960.00           1365          18.00        61.46
  233.65        2960.25           1368          27.00       100.70
  233.68        2960.50           1372          23.00        83.26
  233.71        2960.75           1375          31.00       118.13
  233.73        2961.00           1378          51.00       205.32
  233.76        2961.25           1382         248.00      1064.11
  233.79        2961.50           1385         728.00      3156.77
  233.81        2961.75           1388        1571.00      6832.61
  233.84        2962.00           1392        3559.00     15504.11
  233.87        2962.25           1395        5401.00     23542.54
  233.90        2962.50           1398        7673.00     33462.46
  233.92        2962.75           1402       10826.00     47238.12
  233.95        2963.00           1405       13050.00     56961.31
  233.98        2963.25           1408       15129.00     66055.37
  234.00        2963.50           1412       18261.00     79764.26
  234.03        2963.75           1415       20762.00     90718.81
  234.06        2964.00           1418       22861.00     99917.78
  234.09        2964.25           1422       25863.00    113082.40
  234.11        2964.50           1425       28265.00    123622.90
  234.14        2964.75           1428       30451.00    133221.00
  234.17        2965.00           1431       32897.00    143966.70
  234.20        2965.25           1435       35963.00    157445.40
  234.22        2965.50           1438       38211.00    167334.50
  234.25        2965.75           1441       40627.00    177968.80
  234.28        2966.00           1445       43754.00    191742.00
  234.31        2966.25           1448       45884.00    201130.00
  234.33        2966.50           1451       47521.00    208348.40
  234.36        2966.75           1455       49162.00    215587.40
  234.39        2967.00           1458       49812.00    218455.50
  234.41        2967.25           1461       49771.00    218274.60
  234.44        2967.50           1465       50042.00    219470.60
  234.47        2967.75           1468       49867.00    218698.30
  234.50        2968.00           1471       49037.00    215035.90
  234.52        2968.25           1475       47519.00    208339.60
  234.55        2968.50           1478       45845.00    200958.00
  234.58        2968.75           1481       43377.00    190080.90
  234.61        2969.00           1485       40028.00    175331.60
  234.63        2969.25           1488       37745.00    165284.10
  234.66        2969.50           1491       35460.00    155233.40
  234.69        2969.75           1495       32279.00    141251.10
  234.72        2970.00           1498       29895.00    130779.20
  234.74        2970.25           1501       27314.00    119449.00
  234.77        2970.50           1505       24322.00    106323.50
  234.80        2970.75           1508       21905.00     95727.47
  234.82        2971.00           1511       19599.00     85623.96
  234.85        2971.25           1515       16388.00     71564.79
  234.88        2971.50           1518       14009.00     61155.64
  234.91        2971.75           1521       11685.00     50992.99
  234.93        2972.00           1525        8653.00     37743.01
  234.96        2972.25           1528        6485.00     28274.78
  234.99        2972.50           1531        4313.00     18794.11
  235.02        2972.75           1535        2078.00      9043.70
  235.04        2973.00           1538         967.00      4198.84
  235.07        2973.25           1541         310.00      1334.40
  235.10        2973.50           1545          60.00       244.55
  235.13        2973.75           1548          40.00       157.37
  235.15        2974.00           1551          29.00       109.42
  235.18        2974.25           1555          29.00       109.42
  235.21        2974.50           1558          23.00        83.26
  235.23        2974.75           1561          19.00        65.82
  235.26        2975.00           1565          22.00        78.90
  235.29        2975.25           1568          21.00        74.54
  235.32        2975.50           1571          19.00        65.82
  235.34        2975.75           1575          21.00        74.54
  235.37        2976.00           1578          18.00        61.46
  235.40        2976.25           1581          21.00        74.54
  235.42        2976.50           1585          25.00        91.98
  235.45        2976.75           1588          23.00        83.26
  235.48        2977.00           1591          24.00        87.62
  235.51        2977.25           1595          17.00        57.11
  235.53        2977.50           1598          21.00        74.54
  235.56        2977.75           1601          18.00        61.46
  235.59        2978.00           1605          18.00        61.46
  235.61        2978.25           1608          22.00        78.90
  235.64        2978.50           1611          19.00        65.82
  235.67        2978.75           1615          23.00        83.26
  235.69        2979.00           1618          20.00        70.18
  235.72        2979.25           1621          18.00        61.46
  235.75        2979.50           1625          22.00        78.90
  235.78        2979.75           1628          22.00        78.90
  235.80        2980.00           1631          19.00        65.82
  235.83        2980.25           1635          19.00        65.82
  235.86        2980.50           1638          19.00        65.82
  235.88        2980.75           1641          19.00        65.82
  235.91        2981.00           1645          20.00        70.18
  235.94        2981.25           1648          23.00        83.26
  235.97        2981.50           1651          20.00        70.18
  235.99        2981.75           1655          18.00        61.46
  236.02        2982.00           1658          22.00        78.90
  236.05        2982.25           1661          21.00        74.54
  236.07        2982.50           1665          16.00        52.75
  236.10        2982.75           1668          19.00        65.82
  236.13        2983.00           1671          21.00        74.54
  236.16        2983.25           1675          20.00        70.18
  236.18        2983.50           1678          20.00        70.18
  236.21        2983.75           1681          17.00        57.11
  236.24        2984.00           1685          19.00        65.82
HS scan finished at 03:56:26
end
