************************************************************
  HS Scan of (1) Internal mercury lamp
************************************************************
Integration time is 0.2294 seconds per sample
dh051118Tamanrasset 22.79-5.529 4.974364pr865
************************************************************
Dead Time -------------------------  2.8E-08 
Number of Cycles Used -------------  4 
Starting Wavelength (Angstroms) ---  2950 
Final Wavelength (Angstoms) -------  2984 
Wavelength Increment (Angstroms) --  .25 
Filter Wheel #1 Position ---------- (1) Ground quartz diffuser (ND=2.32)
Filter Wheel #2 Position ---------- (1) Neutral Density 0.494



************************************************************
HS scan start time = 03:57:28
Dark Count =  3.8 


Time (GMT)  Wavelength (Ang)  Step Number  Raw Counts  Counts/Second

  237.82        2950.00           1233          21.00        74.98
  237.88        2950.25           1236          18.00        61.90
  237.91        2950.50           1239          19.00        66.26
  237.94        2950.75           1242          19.00        66.26
  237.97        2951.00           1246          19.00        66.26
  237.99        2951.25           1249          20.00        70.62
  238.02        2951.50           1252          18.00        61.90
  238.05        2951.75           1256          19.00        66.26
  238.07        2952.00           1259          23.00        83.70
  238.10        2952.25           1262          19.00        66.26
  238.13        2952.50           1266          18.00        61.90
  238.16        2952.75           1269          21.00        74.98
  238.18        2953.00           1272          22.00        79.34
  238.21        2953.25           1276          19.00        66.26
  238.24        2953.50           1279          17.00        57.54
  238.27        2953.75           1282          21.00        74.98
  238.29        2954.00           1286          18.00        61.90
  238.32        2954.25           1289          21.00        74.98
  238.35        2954.50           1292          20.00        70.62
  238.37        2954.75           1295          21.00        74.98
  238.40        2955.00           1299          18.00        61.90
  238.43        2955.25           1302          20.00        70.62
  238.46        2955.50           1305          19.00        66.26
  238.48        2955.75           1309          21.00        74.98
  238.51        2956.00           1312          18.00        61.90
  238.54        2956.25           1315          19.00        66.26
  238.56        2956.50           1319          23.00        83.70
  238.59        2956.75           1322          16.00        53.18
  238.62        2957.00           1325          22.00        79.34
  238.65        2957.25           1329          16.00        53.18
  238.67        2957.50           1332          19.00        66.26
  238.70        2957.75           1335          20.00        70.62
  238.73        2958.00           1339          19.00        66.26
  238.75        2958.25           1342          24.00        88.06
  238.78        2958.50           1345          19.00        66.26
  238.81        2958.75           1348          18.00        61.90
  238.84        2959.00           1352          17.00        57.54
  238.86        2959.25           1355          16.00        53.18
  238.89        2959.50           1358          20.00        70.62
  238.92        2959.75           1362          23.00        83.70
  238.95        2960.00           1365          26.00        96.77
  238.97        2960.25           1368          29.00       109.85
  239.00        2960.50           1372          29.00       109.85
  239.03        2960.75           1375          35.00       136.01
  239.05        2961.00           1378          68.00       279.86
  239.08        2961.25           1382         332.00      1430.75
  239.11        2961.50           1385         878.00      3811.22
  239.14        2961.75           1388        1886.00      8206.77
  239.16        2962.00           1392        4159.00     18122.53
  239.19        2962.25           1395        6283.00     27393.28
  239.22        2962.50           1398        8578.00     37415.82
  239.24        2962.75           1402       11528.00     50307.09
  239.27        2963.00           1405       13920.00     60766.78
  239.30        2963.25           1408       16337.00     71342.03
  239.33        2963.50           1412       19235.00     84030.09
  239.35        2963.75           1415       21530.00     94084.50
  239.38        2964.00           1418       23815.00    104100.70
  239.41        2964.25           1422       26966.00    117922.30
  239.44        2964.50           1425       29070.00    127157.20
  239.46        2964.75           1428       32028.00    140148.70
  239.49        2965.00           1431       34186.00    149632.60
  239.52        2965.25           1435       37526.00    164321.00
  239.54        2965.50           1438       39958.00    175023.90
  239.57        2965.75           1441       42457.00    186028.40
  239.60        2966.00           1445       45667.00    200173.70
  239.63        2966.25           1448       47600.00    208697.20
  239.65        2966.50           1451       49276.00    216090.80
  239.68        2966.75           1455       50836.00    222975.40
  239.71        2967.00           1458       51429.00    225593.10
  239.74        2967.25           1461       51398.00    225456.30
  239.76        2967.50           1465       51434.00    225615.20
  239.79        2967.75           1468       50994.00    223672.80
  239.82        2968.00           1471       50275.00    220499.30
  239.85        2968.25           1475       48210.00    211387.90
  239.87        2968.50           1478       46456.00    203652.30
  239.90        2968.75           1481       43962.00    192659.00
  239.93        2969.00           1485       40625.00    177960.40
  239.95        2969.25           1488       37932.00    166107.30
  239.98        2969.50           1491       35514.00    155471.30
  240.01        2969.75           1495       32084.00    140394.80
  240.04        2970.00           1498       29873.00    130683.10
  240.06        2970.25           1501       27401.00    119831.20
  240.09        2970.50           1505       24236.00    105946.80
  240.12        2970.75           1508       21723.00     94930.28
  240.15        2971.00           1511       19064.00     83281.16
  240.17        2971.25           1515       16036.00     70024.71
  240.20        2971.50           1518       13584.00     59297.15
  240.23        2971.75           1521       11217.00     48947.60
  240.26        2972.00           1525        8234.00     35913.17
  240.28        2972.25           1528        5821.00     25376.35
  240.31        2972.50           1531        3773.00     16438.25
  240.34        2972.75           1535        1615.00      7024.92
  240.36        2973.00           1538         644.00      2790.98
  240.39        2973.25           1541         214.00       916.33
  240.42        2973.50           1545          49.00       197.04
  240.45        2973.75           1548          38.00       149.09
  240.47        2974.00           1551          30.00       114.21
  240.50        2974.25           1555          28.00       105.49
  240.53        2974.50           1558          22.00        79.34
  240.55        2974.75           1561          23.00        83.70
  240.58        2975.00           1565          22.00        79.34
  240.61        2975.25           1568          17.00        57.54
  240.64        2975.50           1571          17.00        57.54
  240.66        2975.75           1575          22.00        79.34
  240.69        2976.00           1578          20.00        70.62
  240.72        2976.25           1581          17.00        57.54
  240.74        2976.50           1585          20.00        70.62
  240.77        2976.75           1588          18.00        61.90
  240.80        2977.00           1591          23.00        83.70
  240.83        2977.25           1595          21.00        74.98
  240.85        2977.50           1598          20.00        70.62
  240.88        2977.75           1601          21.00        74.98
  240.91        2978.00           1605          21.00        74.98
  240.93        2978.25           1608          18.00        61.90
  240.96        2978.50           1611          25.00        92.42
  240.99        2978.75           1615          17.00        57.54
  241.02        2979.00           1618          23.00        83.70
  241.04        2979.25           1621          16.00        53.18
  241.07        2979.50           1625          23.00        83.70
  241.10        2979.75           1628          19.00        66.26
  241.12        2980.00           1631          18.00        61.90
  241.15        2980.25           1635          16.00        53.18
  241.18        2980.50           1638          20.00        70.62
  241.21        2980.75           1641          21.00        74.98
  241.23        2981.00           1645          18.00        61.90
  241.26        2981.25           1648          20.00        70.62
  241.29        2981.50           1651          19.00        66.26
  241.31        2981.75           1655          21.00        74.98
  241.34        2982.00           1658          21.00        74.98
  241.37        2982.25           1661          22.00        79.34
  241.40        2982.50           1665          18.00        61.90
  241.42        2982.75           1668          18.00        61.90
  241.45        2983.00           1671          18.00        61.90
  241.48        2983.25           1675          18.00        61.90
  241.51        2983.50           1678          20.00        70.62
  241.53        2983.75           1681          21.00        74.98
  241.56        2984.00           1685          20.00        70.62
HS scan finished at 04:01:45
end
