************************************************************
  HS Scan of (1) Internal mercury lamp
************************************************************
Integration time is 0.2294 seconds per sample
dh041118Tamanrasset 22.79-5.529 4.974364pr865
************************************************************
Dead Time -------------------------  2.8E-08 
Number of Cycles Used -------------  4 
Starting Wavelength (Angstroms) ---  2950 
Final Wavelength (Angstoms) -------  2984 
Wavelength Increment (Angstroms) --  .25 
Filter Wheel #1 Position ---------- (1) Ground quartz diffuser (ND=2.32)
Filter Wheel #2 Position ---------- (1) Neutral Density 0.494



************************************************************
HS scan start time = 03:56:39
Dark Count =  4.6 


Time (GMT)  Wavelength (Ang)  Step Number  Raw Counts  Counts/Second

  237.01        2950.00           1233          19.00        62.77
  237.08        2950.25           1236          20.00        67.13
  237.10        2950.50           1239          17.00        54.05
  237.13        2950.75           1242          20.00        67.13
  237.16        2951.00           1246          23.00        80.21
  237.19        2951.25           1249          21.00        71.49
  237.21        2951.50           1252          19.00        62.77
  237.24        2951.75           1256          25.00        88.93
  237.27        2952.00           1259          20.00        67.13
  237.30        2952.25           1262          16.00        49.69
  237.32        2952.50           1266          16.00        49.69
  237.35        2952.75           1269          23.00        80.21
  237.38        2953.00           1272          17.00        54.05
  237.40        2953.25           1276          21.00        71.49
  237.43        2953.50           1279          21.00        71.49
  237.46        2953.75           1282          18.00        58.41
  237.49        2954.00           1286          18.00        58.41
  237.51        2954.25           1289          21.00        71.49
  237.54        2954.50           1292          16.00        49.69
  237.57        2954.75           1295          22.00        75.85
  237.59        2955.00           1299          19.00        62.77
  237.62        2955.25           1302          20.00        67.13
  237.65        2955.50           1305          18.00        58.41
  237.68        2955.75           1309          21.00        71.49
  237.70        2956.00           1312          20.00        67.13
  237.73        2956.25           1315          17.00        54.05
  237.76        2956.50           1319          16.00        49.69
  237.79        2956.75           1322          19.00        62.77
  237.81        2957.00           1325          19.00        62.77
  237.84        2957.25           1329          16.00        49.69
  237.87        2957.50           1332          22.00        75.85
  237.89        2957.75           1335          17.00        54.05
  237.92        2958.00           1339          20.00        67.13
  237.95        2958.25           1342          21.00        71.49
  237.98        2958.50           1345          19.00        62.77
  238.00        2958.75           1348          25.00        88.93
  238.03        2959.00           1352          18.00        58.41
  238.06        2959.25           1355          18.00        58.41
  238.08        2959.50           1358          20.00        67.13
  238.11        2959.75           1362          25.00        88.93
  238.14        2960.00           1365          23.00        80.21
  238.17        2960.25           1368          24.00        84.57
  238.19        2960.50           1372          33.00       123.80
  238.22        2960.75           1375          31.00       115.08
  238.25        2961.00           1378          87.00       359.20
  238.27        2961.25           1382         451.00      1946.05
  238.30        2961.50           1385        1112.00      4828.03
  238.33        2961.75           1388        2246.00      9773.38
  238.36        2962.00           1392        4536.00     19764.21
  238.38        2962.25           1395        6737.00     29372.01
  238.41        2962.50           1398        9164.00     39972.35
  238.44        2962.75           1402       12129.00     52931.06
  238.46        2963.00           1405       14488.00     63247.92
  238.49        2963.25           1408       16867.00     73658.30
  238.52        2963.50           1412       19977.00     87276.68
  238.55        2963.75           1415       22268.00     97315.38
  238.57        2964.00           1418       24601.00    107543.90
  238.60        2964.25           1422       27782.00    121499.80
  238.63        2964.50           1425       29979.00    131145.00
  238.66        2964.75           1428       32851.00    143761.50
  238.68        2965.00           1431       35027.00    153326.40
  238.71        2965.25           1435       38407.00    168193.90
  238.74        2965.50           1438       40846.00    178930.00
  238.77        2965.75           1441       43241.00    189478.60
  238.79        2966.00           1445       46661.00    204552.70
  238.82        2966.25           1448       48490.00    212619.50
  238.85        2966.50           1451       50058.00    219538.10
  238.88        2966.75           1455       51493.00    225872.10
  238.90        2967.00           1458       52155.00    228795.00
  238.93        2967.25           1461       52448.00    230088.70
  238.96        2967.50           1465       52164.00    228834.70
  238.98        2967.75           1468       51742.00    226971.50
  239.01        2968.00           1471       51051.00    223920.90
  239.04        2968.25           1475       49058.00    215125.40
  239.07        2968.50           1478       47022.00    206144.60
  239.09        2968.75           1481       44651.00    195691.80
  239.12        2969.00           1485       41510.00    181853.90
  239.15        2969.25           1488       38810.00    169967.40
  239.18        2969.50           1491       35958.00    157420.40
  239.20        2969.75           1495       32842.00    143721.90
  239.23        2970.00           1498       30458.00    133248.60
  239.26        2970.25           1501       27865.00    121864.10
  239.29        2970.50           1505       24477.00    107000.10
  239.31        2970.75           1508       22153.00     96811.34
  239.34        2971.00           1511       19522.00     85283.62
  239.37        2971.25           1515       16219.00     70822.08
  239.39        2971.50           1518       13795.00     60216.53
  239.42        2971.75           1521       11507.00     50211.79
  239.45        2972.00           1525        8310.00     36241.65
  239.48        2972.25           1528        5888.00     25665.34
  239.50        2972.50           1531        3849.00     16766.37
  239.53        2972.75           1535        1647.00      7160.98
  239.56        2973.00           1538         614.00      2656.69
  239.59        2973.25           1541         200.00       851.81
  239.61        2973.50           1545          52.00       206.63
  239.64        2973.75           1548          46.00       180.47
  239.67        2974.00           1551          28.00       102.01
  239.69        2974.25           1555          24.00        84.57
  239.72        2974.50           1558          26.00        93.29
  239.75        2974.75           1561          23.00        80.21
  239.78        2975.00           1565          20.00        67.13
  239.80        2975.25           1568          20.00        67.13
  239.83        2975.50           1571          22.00        75.85
  239.86        2975.75           1575          23.00        80.21
  239.88        2976.00           1578          22.00        75.85
  239.91        2976.25           1581          22.00        75.85
  239.94        2976.50           1585          16.00        49.69
  239.97        2976.75           1588          19.00        62.77
  239.99        2977.00           1591          17.00        54.05
  240.02        2977.25           1595          17.00        54.05
  240.05        2977.50           1598          17.00        54.05
  240.07        2977.75           1601          19.00        62.77
  240.10        2978.00           1605          25.00        88.93
  240.13        2978.25           1608          24.00        84.57
  240.16        2978.50           1611          20.00        67.13
  240.18        2978.75           1615          17.00        54.05
  240.21        2979.00           1618          25.00        88.93
  240.24        2979.25           1621          20.00        67.13
  240.26        2979.50           1625          23.00        80.21
  240.29        2979.75           1628          25.00        88.93
  240.32        2980.00           1631          21.00        71.49
  240.35        2980.25           1635          19.00        62.77
  240.37        2980.50           1638          22.00        75.85
  240.40        2980.75           1641          22.00        75.85
  240.43        2981.00           1645          23.00        80.21
  240.45        2981.25           1648          18.00        58.41
  240.48        2981.50           1651          23.00        80.21
  240.51        2981.75           1655          25.00        88.93
  240.54        2982.00           1658          24.00        84.57
  240.56        2982.25           1661          17.00        54.05
  240.59        2982.50           1665          18.00        58.41
  240.62        2982.75           1668          18.00        58.41
  240.64        2983.00           1671          20.00        67.13
  240.67        2983.25           1675          23.00        80.21
  240.70        2983.50           1678          16.00        49.69
  240.73        2983.75           1681          18.00        58.41
  240.75        2984.00           1685          20.00        67.13
HS scan finished at 04:00:56
end
