************************************************************
  HS Scan of (1) Internal mercury lamp
************************************************************
Integration time is 0.2294 seconds per sample
dh311018Tamanrasset 22.79-5.529 4.974364pr865
************************************************************
Dead Time -------------------------  2.8E-08 
Number of Cycles Used -------------  4 
Starting Wavelength (Angstroms) ---  2950 
Final Wavelength (Angstoms) -------  2984 
Wavelength Increment (Angstroms) --  .25 
Filter Wheel #1 Position ---------- (1) Ground quartz diffuser (ND=2.32)
Filter Wheel #2 Position ---------- (1) Neutral Density 0.494



************************************************************
HS scan start time = 03:54:44
Dark Count =  2.6 


Time (GMT)  Wavelength (Ang)  Step Number  Raw Counts  Counts/Second

  235.10        2950.00           1233          20.00        75.85
  235.16        2950.25           1236          21.00        80.21
  235.19        2950.50           1239          18.00        67.13
  235.22        2950.75           1242          19.00        71.49
  235.24        2951.00           1246          15.00        54.05
  235.27        2951.25           1249          22.00        84.57
  235.30        2951.50           1252          25.00        97.65
  235.32        2951.75           1256          18.00        67.13
  235.35        2952.00           1259          19.00        71.49
  235.38        2952.25           1262          21.00        80.21
  235.41        2952.50           1266          15.00        54.05
  235.43        2952.75           1269          18.00        67.13
  235.46        2953.00           1272          20.00        75.85
  235.49        2953.25           1276          22.00        84.57
  235.51        2953.50           1279          21.00        80.21
  235.54        2953.75           1282          20.00        75.85
  235.57        2954.00           1286          17.00        62.77
  235.60        2954.25           1289          23.00        88.93
  235.62        2954.50           1292          23.00        88.93
  235.65        2954.75           1295          20.00        75.85
  235.68        2955.00           1299          18.00        67.13
  235.70        2955.25           1302          17.00        62.77
  235.73        2955.50           1305          20.00        75.85
  235.76        2955.75           1309          21.00        80.21
  235.79        2956.00           1312          16.00        58.41
  235.81        2956.25           1315          19.00        71.49
  235.84        2956.50           1319          19.00        71.49
  235.87        2956.75           1322          20.00        75.85
  235.89        2957.00           1325          17.00        62.77
  235.92        2957.25           1329          22.00        84.57
  235.95        2957.50           1332          17.00        62.77
  235.98        2957.75           1335          20.00        75.85
  236.00        2958.00           1339          21.00        80.21
  236.03        2958.25           1342          18.00        67.13
  236.06        2958.50           1345          21.00        80.21
  236.08        2958.75           1348          21.00        80.21
  236.11        2959.00           1352          20.00        75.85
  236.14        2959.25           1355          19.00        71.49
  236.17        2959.50           1358          21.00        80.21
  236.19        2959.75           1362          21.00        80.21
  236.22        2960.00           1365          24.00        93.29
  236.25        2960.25           1368          25.00        97.65
  236.28        2960.50           1372          32.00       128.16
  236.30        2960.75           1375          44.00       180.47
  236.33        2961.00           1378         118.00       503.06
  236.36        2961.25           1382         578.00      2508.46
  236.39        2961.50           1385        1392.00      6057.70
  236.41        2961.75           1388        2839.00     12368.71
  236.44        2962.00           1392        5510.00     24024.01
  236.47        2962.25           1395        8160.00     35595.18
  236.49        2962.50           1398       10907.00     47597.83
  236.52        2962.75           1402       14339.00     62604.86
  236.55        2963.00           1405       16862.00     73645.18
  236.58        2963.25           1408       19553.00     85428.16
  236.60        2963.50           1412       22902.00    100103.20
  236.63        2963.75           1415       25418.00    111136.10
  236.66        2964.00           1418       28361.00    124050.00
  236.69        2964.25           1422       31844.00    139345.60
  236.71        2964.50           1425       34414.00    150640.10
  236.74        2964.75           1428       37308.00    163367.20
  236.77        2965.00           1431       40020.00    175302.10
  236.79        2965.25           1435       43437.00    190351.00
  236.82        2965.50           1438       46187.00    202471.60
  236.85        2965.75           1441       48974.00    214763.60
  236.88        2966.00           1445       52533.00    230472.90
  236.90        2966.25           1448       54752.00    240274.50
  236.93        2966.50           1451       56116.00    246302.20
  236.96        2966.75           1455       57646.00    253065.80
  236.99        2967.00           1458       58137.00    255237.00
  237.01        2967.25           1461       58345.00    256156.80
  237.04        2967.50           1465       57863.00    254025.30
  237.07        2967.75           1468       57159.00    250912.70
  237.10        2968.00           1471       56064.00    246072.40
  237.12        2968.25           1475       53866.00    236360.30
  237.15        2968.50           1478       51307.00    225059.80
  237.18        2968.75           1481       48630.00    213245.90
  237.21        2969.00           1485       45210.00    198164.50
  237.23        2969.25           1488       42047.00    184227.70
  237.26        2969.50           1491       39294.00    172106.40
  237.29        2969.75           1495       35542.00    155599.70
  237.31        2970.00           1498       32907.00    144016.40
  237.34        2970.25           1501       30147.00    131891.60
  237.37        2970.50           1505       26613.00    116378.60
  237.40        2970.75           1508       23813.00    104097.20
  237.42        2971.00           1511       20935.00     91482.51
  237.45        2971.25           1515       17465.00     76284.83
  237.48        2971.50           1518       14868.00     64919.12
  237.51        2971.75           1521       12349.00     53901.69
  237.53        2972.00           1525        8763.00     38229.22
  237.56        2972.25           1528        6169.00     26900.81
  237.59        2972.50           1531        3995.00     17412.15
  237.61        2972.75           1535        1618.00      7043.24
  237.64        2973.00           1538         637.00      2765.69
  237.67        2973.25           1541         190.00       816.93
  237.70        2973.50           1545          56.00       232.78
  237.72        2973.75           1548          36.00       145.60
  237.75        2974.00           1551          29.00       115.08
  237.78        2974.25           1555          31.00       123.80
  237.81        2974.50           1558          25.00        97.65
  237.83        2974.75           1561          26.00       102.01
  237.86        2975.00           1565          22.00        84.57
  237.89        2975.25           1568          22.00        84.57
  237.91        2975.50           1571          27.00       106.36
  237.94        2975.75           1575          22.00        84.57
  237.97        2976.00           1578          20.00        75.85
  238.00        2976.25           1581          21.00        80.21
  238.02        2976.50           1585          21.00        80.21
  238.05        2976.75           1588          21.00        80.21
  238.08        2977.00           1591          20.00        75.85
  238.11        2977.25           1595          20.00        75.85
  238.13        2977.50           1598          18.00        67.13
  238.16        2977.75           1601          18.00        67.13
  238.19        2978.00           1605          21.00        80.21
  238.21        2978.25           1608          24.00        93.29
  238.24        2978.50           1611          20.00        75.85
  238.27        2978.75           1615          23.00        88.93
  238.30        2979.00           1618          22.00        84.57
  238.32        2979.25           1621          25.00        97.65
  238.35        2979.50           1625          23.00        88.93
  238.38        2979.75           1628          18.00        67.13
  238.40        2980.00           1631          20.00        75.85
  238.43        2980.25           1635          17.00        62.77
  238.46        2980.50           1638          20.00        75.85
  238.49        2980.75           1641          19.00        71.49
  238.51        2981.00           1645          20.00        75.85
  238.54        2981.25           1648          21.00        80.21
  238.57        2981.50           1651          23.00        88.93
  238.60        2981.75           1655          18.00        67.13
  238.62        2982.00           1658          19.00        71.49
  238.65        2982.25           1661          23.00        88.93
  238.68        2982.50           1665          18.00        67.13
  238.70        2982.75           1668          22.00        84.57
  238.73        2983.00           1671          18.00        67.13
  238.76        2983.25           1675          21.00        80.21
  238.79        2983.50           1678          21.00        80.21
  238.81        2983.75           1681          18.00        67.13
  238.84        2984.00           1685          18.00        67.13
HS scan finished at 03:59:02
end
