************************************************************
  HS Scan of (1) Internal mercury lamp
************************************************************
Integration time is 0.2294 seconds per sample
dh021118Tamanrasset 22.79-5.529 4.974364pr865
************************************************************
Dead Time -------------------------  2.8E-08 
Number of Cycles Used -------------  4 
Starting Wavelength (Angstroms) ---  2950 
Final Wavelength (Angstoms) -------  2984 
Wavelength Increment (Angstroms) --  .25 
Filter Wheel #1 Position ---------- (1) Ground quartz diffuser (ND=2.32)
Filter Wheel #2 Position ---------- (1) Neutral Density 0.494



************************************************************
HS scan start time = 03:54:40
Dark Count =  3 


Time (GMT)  Wavelength (Ang)  Step Number  Raw Counts  Counts/Second

  235.03        2950.00           1233          22.00        82.82
  235.09        2950.25           1236          19.00        69.75
  235.12        2950.50           1239          19.00        69.75
  235.14        2950.75           1242          24.00        91.54
  235.17        2951.00           1246          14.00        47.95
  235.20        2951.25           1249          23.00        87.18
  235.22        2951.50           1252          20.00        74.11
  235.25        2951.75           1256          17.00        61.03
  235.28        2952.00           1259          20.00        74.11
  235.31        2952.25           1262          18.00        65.39
  235.33        2952.50           1266          23.00        87.18
  235.36        2952.75           1269          17.00        61.03
  235.39        2953.00           1272          19.00        69.75
  235.41        2953.25           1276          19.00        69.75
  235.44        2953.50           1279          22.00        82.82
  235.47        2953.75           1282          22.00        82.82
  235.50        2954.00           1286          17.00        61.03
  235.52        2954.25           1289          17.00        61.03
  235.55        2954.50           1292          17.00        61.03
  235.58        2954.75           1295          28.00       108.98
  235.61        2955.00           1299          15.00        52.31
  235.63        2955.25           1302          21.00        78.47
  235.66        2955.50           1305          20.00        74.11
  235.69        2955.75           1309          15.00        52.31
  235.71        2956.00           1312          24.00        91.54
  235.74        2956.25           1315          18.00        65.39
  235.77        2956.50           1319          19.00        69.75
  235.80        2956.75           1322          18.00        65.39
  235.82        2957.00           1325          16.00        56.67
  235.85        2957.25           1329          22.00        82.82
  235.88        2957.50           1332          22.00        82.82
  235.90        2957.75           1335          15.00        52.31
  235.93        2958.00           1339          19.00        69.75
  235.96        2958.25           1342          19.00        69.75
  235.99        2958.50           1345          22.00        82.82
  236.01        2958.75           1348          23.00        87.18
  236.04        2959.00           1352          20.00        74.11
  236.07        2959.25           1355          20.00        74.11
  236.09        2959.50           1358          20.00        74.11
  236.12        2959.75           1362          19.00        69.75
  236.15        2960.00           1365          22.00        82.82
  236.18        2960.25           1368          20.00        74.11
  236.20        2960.50           1372          28.00       108.98
  236.23        2960.75           1375          35.00       139.49
  236.26        2961.00           1378          80.00       335.66
  236.29        2961.25           1382         410.00      1774.28
  236.31        2961.50           1385        1086.00      4721.64
  236.34        2961.75           1388        2306.00     10042.06
  236.37        2962.00           1392        4667.00     20342.88
  236.39        2962.25           1395        6919.00     30173.69
  236.42        2962.50           1398        9463.00     41285.71
  236.45        2962.75           1402       12525.00     54669.50
  236.48        2963.00           1405       14986.00     65433.64
  236.50        2963.25           1408       17625.00     76983.55
  236.53        2963.50           1412       20788.00     90836.68
  236.56        2963.75           1415       23210.00    101451.70
  236.59        2964.00           1418       25650.00    112152.00
  236.61        2964.25           1422       28855.00    126216.90
  236.64        2964.50           1425       31040.00    135811.90
  236.67        2964.75           1428       33964.00    148660.20
  236.70        2965.00           1431       36469.00    159674.80
  236.72        2965.25           1435       39652.00    173680.40
  236.75        2965.50           1438       42418.00    185860.10
  236.78        2965.75           1441       44858.00    196611.20
  236.81        2966.00           1445       47929.00    210151.90
  236.83        2966.25           1448       50120.00    219818.70
  236.86        2966.50           1451       51606.00    226378.10
  236.89        2966.75           1455       53043.00    232723.40
  236.91        2967.00           1458       53314.00    233920.30
  236.94        2967.25           1461       53531.00    234878.80
  236.97        2967.50           1465       53688.00    235572.30
  237.00        2967.75           1468       52777.00    231548.70
  237.02        2968.00           1471       51954.00    227914.50
  237.05        2968.25           1475       49729.00    218093.30
  237.08        2968.50           1478       47451.00    208043.60
  237.11        2968.75           1481       45229.00    198246.50
  237.13        2969.00           1485       41871.00    183450.80
  237.16        2969.25           1488       39295.00    172109.00
  237.19        2969.50           1491       36717.00    160765.60
  237.21        2969.75           1495       33201.00    145306.60
  237.24        2970.00           1498       30778.00    134661.10
  237.27        2970.25           1501       28017.00    122538.30
  237.30        2970.50           1505       24719.00    108068.50
  237.32        2970.75           1508       22199.00     97019.96
  237.35        2971.00           1511       19589.00     85584.09
  237.38        2971.25           1515       16470.00     71927.63
  237.41        2971.50           1518       13893.00     60652.18
  237.43        2971.75           1521       11517.00     50262.49
  237.46        2972.00           1525        8450.00     36860.17
  237.49        2972.25           1528        5981.00     26078.32
  237.52        2972.50           1531        3779.00     16467.92
  237.54        2972.75           1535        1636.00      7119.99
  237.57        2973.00           1538         636.00      2759.59
  237.60        2973.25           1541         199.00       854.42
  237.62        2973.50           1545          49.00       200.52
  237.65        2973.75           1548          40.00       161.29
  237.68        2974.00           1551          32.00       126.42
  237.71        2974.25           1555          31.00       122.06
  237.73        2974.50           1558          23.00        87.18
  237.76        2974.75           1561          21.00        78.47
  237.79        2975.00           1565          26.00       100.26
  237.82        2975.25           1568          29.00       113.34
  237.84        2975.50           1571          21.00        78.47
  237.87        2975.75           1575          22.00        82.82
  237.90        2976.00           1578          19.00        69.75
  237.92        2976.25           1581          22.00        82.82
  237.95        2976.50           1585          21.00        78.47
  237.98        2976.75           1588          20.00        74.11
  238.01        2977.00           1591          23.00        87.18
  238.03        2977.25           1595          18.00        65.39
  238.06        2977.50           1598          18.00        65.39
  238.09        2977.75           1601          22.00        82.82
  238.12        2978.00           1605          23.00        87.18
  238.14        2978.25           1608          24.00        91.54
  238.17        2978.50           1611          23.00        87.18
  238.20        2978.75           1615          21.00        78.47
  238.22        2979.00           1618          23.00        87.18
  238.25        2979.25           1621          19.00        69.75
  238.28        2979.50           1625          25.00        95.90
  238.31        2979.75           1628          19.00        69.75
  238.33        2980.00           1631          22.00        82.82
  238.36        2980.25           1635          22.00        82.82
  238.39        2980.50           1638          21.00        78.47
  238.41        2980.75           1641          17.00        61.03
  238.44        2981.00           1645          24.00        91.54
  238.47        2981.25           1648          24.00        91.54
  238.50        2981.50           1651          20.00        74.11
  238.52        2981.75           1655          23.00        87.18
  238.55        2982.00           1658          21.00        78.47
  238.58        2982.25           1661          17.00        61.03
  238.60        2982.50           1665          18.00        65.39
  238.63        2982.75           1668          21.00        78.47
  238.66        2983.00           1671          18.00        65.39
  238.69        2983.25           1675          20.00        74.11
  238.71        2983.50           1678          18.00        65.39
  238.74        2983.75           1681          18.00        65.39
  238.77        2984.00           1685          19.00        69.75
HS scan finished at 03:58:57
end
