************************************************************
  HS Scan of (1) Internal mercury lamp
************************************************************
Integration time is 0.2294 seconds per sample
dh301018Tamanrasset 22.79-5.529 4.974364pr865
************************************************************
Dead Time -------------------------  2.8E-08 
Number of Cycles Used -------------  4 
Starting Wavelength (Angstroms) ---  2950 
Final Wavelength (Angstoms) -------  2984 
Wavelength Increment (Angstroms) --  .25 
Filter Wheel #1 Position ---------- (1) Ground quartz diffuser (ND=2.32)
Filter Wheel #2 Position ---------- (1) Neutral Density 0.494



************************************************************
HS scan start time = 03:54:11
Dark Count =  5 


Time (GMT)  Wavelength (Ang)  Step Number  Raw Counts  Counts/Second

  234.55        2950.00           1233          22.00        74.11
  234.61        2950.25           1236          21.00        69.75
  234.64        2950.50           1239          24.00        82.82
  234.67        2950.75           1242          20.00        65.39
  234.69        2951.00           1246          22.00        74.11
  234.72        2951.25           1249          21.00        69.75
  234.75        2951.50           1252          16.00        47.95
  234.78        2951.75           1256          19.00        61.03
  234.80        2952.00           1259          17.00        52.31
  234.83        2952.25           1262          26.00        91.54
  234.86        2952.50           1266          18.00        56.67
  234.88        2952.75           1269          20.00        65.39
  234.91        2953.00           1272          24.00        82.82
  234.94        2953.25           1276          15.00        43.59
  234.97        2953.50           1279          18.00        56.67
  234.99        2953.75           1282          21.00        69.75
  235.02        2954.00           1286          28.00       100.26
  235.05        2954.25           1289          21.00        69.75
  235.07        2954.50           1292          20.00        65.39
  235.10        2954.75           1295          16.00        47.95
  235.13        2955.00           1299          22.00        74.11
  235.16        2955.25           1302          20.00        65.39
  235.18        2955.50           1305          22.00        74.11
  235.21        2955.75           1309          17.00        52.31
  235.24        2956.00           1312          19.00        61.03
  235.26        2956.25           1315          20.00        65.39
  235.29        2956.50           1319          16.00        47.95
  235.32        2956.75           1322          24.00        82.82
  235.35        2957.00           1325          23.00        78.47
  235.37        2957.25           1329          19.00        61.03
  235.40        2957.50           1332          20.00        65.39
  235.43        2957.75           1335          20.00        65.39
  235.45        2958.00           1339          22.00        74.11
  235.48        2958.25           1342          18.00        56.67
  235.51        2958.50           1345          17.00        52.31
  235.54        2958.75           1348          22.00        74.11
  235.56        2959.00           1352          18.00        56.67
  235.59        2959.25           1355          24.00        82.82
  235.62        2959.50           1358          22.00        74.11
  235.64        2959.75           1362          21.00        69.75
  235.67        2960.00           1365          24.00        82.82
  235.70        2960.25           1368          27.00        95.90
  235.73        2960.50           1372          34.00       126.42
  235.75        2960.75           1375          40.00       152.57
  235.78        2961.00           1378         110.00       457.72
  235.81        2961.25           1382         480.00      2070.74
  235.83        2961.50           1385        1163.00      5048.67
  235.86        2961.75           1388        2472.00     10757.38
  235.89        2962.00           1392        4992.00     21752.57
  235.92        2962.25           1395        7306.00     31854.90
  235.94        2962.50           1398        9980.00     43536.04
  235.97        2962.75           1402       13205.00     57634.35
  236.00        2963.00           1405       15920.00     69511.80
  236.02        2963.25           1408       18582.00     81165.07
  236.05        2963.50           1412       21845.00     95459.69
  236.08        2963.75           1415       24364.00    106502.80
  236.11        2964.00           1418       26897.00    117614.30
  236.13        2964.25           1422       30434.00    133141.50
  236.16        2964.50           1425       33149.00    145069.30
  236.19        2964.75           1428       35911.00    157211.90
  236.22        2965.00           1431       38258.00    167536.50
  236.24        2965.25           1435       42071.00    184322.90
  236.27        2965.50           1438       44651.00    195690.10
  236.30        2965.75           1441       47370.00    207677.60
  236.32        2966.00           1445       51045.00    223892.70
  236.35        2966.25           1448       53083.00    232891.20
  236.38        2966.50           1451       54811.00    240524.60
  236.41        2966.75           1455       56253.00    246897.10
  236.43        2967.00           1458       56703.00    248886.20
  236.46        2967.25           1461       57247.00    251291.20
  236.49        2967.50           1465       56779.00    249222.20
  236.52        2967.75           1468       56251.00    246888.30
  236.54        2968.00           1471       55467.00    243423.40
  236.57        2968.25           1475       53403.00    234304.60
  236.60        2968.50           1478       50915.00    223318.80
  236.63        2968.75           1481       48317.00    211854.60
  236.65        2969.00           1485       45051.00    197453.10
  236.68        2969.25           1488       41938.00    183737.10
  236.71        2969.50           1491       39350.00    172342.30
  236.73        2969.75           1495       35648.00    156055.30
  236.76        2970.00           1498       32746.00    143298.30
  236.79        2970.25           1501       30343.00    132741.80
  236.82        2970.50           1505       26609.00    116350.50
  236.84        2970.75           1508       24021.00    104998.70
  236.87        2971.00           1511       21385.00     93443.83
  236.90        2971.25           1515       17797.00     77727.84
  236.93        2971.50           1518       14924.00     65153.63
  236.95        2971.75           1521       12385.00     54048.61
  236.98        2972.00           1525        9058.00     39507.50
  237.01        2972.25           1528        6605.00     28793.91
  237.04        2972.50           1531        4208.00     18331.12
  237.06        2972.75           1535        1874.00      8149.20
  237.09        2973.00           1538         768.00      3326.38
  237.12        2973.25           1541         255.00      1089.83
  237.14        2973.50           1545          66.00       265.91
  237.17        2973.75           1548          35.00       130.78
  237.20        2974.00           1551          31.00       113.34
  237.23        2974.25           1555          29.00       104.62
  237.25        2974.50           1558          26.00        91.54
  237.28        2974.75           1561          25.00        87.18
  237.31        2975.00           1565          25.00        87.18
  237.33        2975.25           1568          25.00        87.18
  237.36        2975.50           1571          23.00        78.47
  237.39        2975.75           1575          22.00        74.11
  237.42        2976.00           1578          26.00        91.54
  237.44        2976.25           1581          28.00       100.26
  237.47        2976.50           1585          22.00        74.11
  237.50        2976.75           1588          21.00        69.75
  237.53        2977.00           1591          22.00        74.11
  237.55        2977.25           1595          20.00        65.39
  237.58        2977.50           1598          18.00        56.67
  237.61        2977.75           1601          21.00        69.75
  237.63        2978.00           1605          18.00        56.67
  237.66        2978.25           1608          19.00        61.03
  237.69        2978.50           1611          18.00        56.67
  237.72        2978.75           1615          22.00        74.11
  237.74        2979.00           1618          23.00        78.47
  237.77        2979.25           1621          18.00        56.67
  237.80        2979.50           1625          19.00        61.03
  237.82        2979.75           1628          18.00        56.67
  237.85        2980.00           1631          22.00        74.11
  237.88        2980.25           1635          24.00        82.82
  237.91        2980.50           1638          22.00        74.11
  237.93        2980.75           1641          21.00        69.75
  237.96        2981.00           1645          20.00        65.39
  237.99        2981.25           1648          21.00        69.75
  238.01        2981.50           1651          18.00        56.67
  238.04        2981.75           1655          18.00        56.67
  238.07        2982.00           1658          16.00        47.95
  238.10        2982.25           1661          17.00        52.31
  238.12        2982.50           1665          17.00        52.31
  238.15        2982.75           1668          17.00        52.31
  238.18        2983.00           1671          19.00        61.03
  238.20        2983.25           1675          23.00        78.47
  238.23        2983.50           1678          18.00        56.67
  238.26        2983.75           1681          18.00        56.67
  238.29        2984.00           1685          20.00        65.39
HS scan finished at 03:58:28
end
