************************************************************
  HS Scan of (1) Internal mercury lamp
************************************************************
Integration time is 0.2294 seconds per sample
dh281018Tamanrasset 22.79-5.529 4.974364pr865
************************************************************
Dead Time -------------------------  2.8E-08 
Number of Cycles Used -------------  4 
Starting Wavelength (Angstroms) ---  2950 
Final Wavelength (Angstoms) -------  2984 
Wavelength Increment (Angstroms) --  .25 
Filter Wheel #1 Position ---------- (1) Ground quartz diffuser (ND=2.32)
Filter Wheel #2 Position ---------- (1) Neutral Density 0.494



************************************************************
HS scan start time = 03:53:02
Dark Count =  5.1 


Time (GMT)  Wavelength (Ang)  Step Number  Raw Counts  Counts/Second

  233.38        2950.00           1233          20.00        64.95
  233.45        2950.25           1236          19.00        60.59
  233.47        2950.50           1239          22.00        73.67
  233.50        2950.75           1242          20.00        64.95
  233.53        2951.00           1246          22.00        73.67
  233.56        2951.25           1249          19.00        60.59
  233.58        2951.50           1252          22.00        73.67
  233.61        2951.75           1256          20.00        64.95
  233.64        2952.00           1259          16.00        47.52
  233.66        2952.25           1262          17.00        51.87
  233.69        2952.50           1266          21.00        69.31
  233.72        2952.75           1269          19.00        60.59
  233.74        2953.00           1272          22.00        73.67
  233.77        2953.25           1276          22.00        73.67
  233.80        2953.50           1279          13.00        34.44
  233.83        2953.75           1282          18.00        56.23
  233.85        2954.00           1286          21.00        69.31
  233.88        2954.25           1289          21.00        69.31
  233.91        2954.50           1292          20.00        64.95
  233.93        2954.75           1295          19.00        60.59
  233.96        2955.00           1299          19.00        60.59
  233.99        2955.25           1302          21.00        69.31
  234.02        2955.50           1305          21.00        69.31
  234.04        2955.75           1309          21.00        69.31
  234.07        2956.00           1312          22.00        73.67
  234.10        2956.25           1315          18.00        56.23
  234.12        2956.50           1319          23.00        78.03
  234.15        2956.75           1322          26.00        91.11
  234.18        2957.00           1325          22.00        73.67
  234.21        2957.25           1329          19.00        60.59
  234.23        2957.50           1332          16.00        47.52
  234.26        2957.75           1335          20.00        64.95
  234.29        2958.00           1339          21.00        69.31
  234.32        2958.25           1342          20.00        64.95
  234.34        2958.50           1345          16.00        47.52
  234.37        2958.75           1348          18.00        56.23
  234.40        2959.00           1352          17.00        51.87
  234.42        2959.25           1355          21.00        69.31
  234.45        2959.50           1358          25.00        86.75
  234.48        2959.75           1362          23.00        78.03
  234.51        2960.00           1365          22.00        73.67
  234.53        2960.25           1368          27.00        95.47
  234.56        2960.50           1372          32.00       117.26
  234.59        2960.75           1375          36.00       134.70
  234.61        2961.00           1378          71.00       287.27
  234.64        2961.25           1382         345.00      1481.75
  234.67        2961.50           1385         920.00      3988.68
  234.70        2961.75           1388        1981.00      8615.42
  234.72        2962.00           1392        4201.00     18300.13
  234.75        2962.25           1395        6335.00     27614.63
  234.78        2962.50           1398        8598.00     37497.51
  234.80        2962.75           1402       11542.00     50362.61
  234.83        2963.00           1405       13960.00     60936.06
  234.86        2963.25           1408       16305.00     71196.28
  234.89        2963.50           1412       19416.00     84817.16
  234.91        2963.75           1415       21669.00     94687.94
  234.94        2964.00           1418       23953.00    104700.10
  234.97        2964.25           1422       26937.00    117789.30
  235.00        2964.50           1425       29178.00    127625.70
  235.02        2964.75           1428       31715.00    138767.90
  235.05        2965.00           1431       34089.00    149200.50
  235.08        2965.25           1435       37332.00    163461.80
  235.10        2965.50           1438       39925.00    174872.90
  235.13        2965.75           1441       41950.00    183789.50
  235.16        2966.00           1445       45671.00    200185.60
  235.19        2966.25           1448       47340.00    207544.80
  235.21        2966.50           1451       49090.00    215264.40
  235.24        2966.75           1455       50152.00    219950.70
  235.27        2967.00           1458       50761.00    222638.60
  235.30        2967.25           1461       51053.00    223927.50
  235.32        2967.50           1465       50698.00    222360.50
  235.35        2967.75           1468       50324.00    220709.80
  235.38        2968.00           1471       49260.00    216014.50
  235.41        2968.25           1475       47531.00    208387.20
  235.43        2968.50           1478       45384.00    198920.50
  235.46        2968.75           1481       43010.00    188458.70
  235.49        2969.00           1485       40013.00    175260.30
  235.51        2969.25           1488       37394.00    163734.50
  235.54        2969.50           1491       34785.00    152260.20
  235.57        2969.75           1495       31429.00    137511.40
  235.60        2970.00           1498       29190.00    127678.40
  235.62        2970.25           1501       26691.00    116709.90
  235.65        2970.50           1505       23547.00    102920.00
  235.68        2970.75           1508       21182.00     92553.84
  235.71        2971.00           1511       18912.00     82609.78
  235.73        2971.25           1515       15709.00     68588.00
  235.76        2971.50           1518       13253.00     57843.83
  235.79        2971.75           1521       11139.00     48600.97
  235.82        2972.00           1525        8078.00     35226.10
  235.84        2972.25           1528        5925.00     25824.68
  235.87        2972.50           1531        3775.00     16441.31
  235.90        2972.75           1535        1546.00      6718.35
  235.92        2973.00           1538         605.00      2615.27
  235.95        2973.25           1541         218.00       928.10
  235.98        2973.50           1545          52.00       204.45
  236.01        2973.75           1548          36.00       134.70
  236.03        2974.00           1551          26.00        91.11
  236.06        2974.25           1555          29.00       104.19
  236.09        2974.50           1558          24.00        82.39
  236.12        2974.75           1561          28.00        99.83
  236.14        2975.00           1565          22.00        73.67
  236.17        2975.25           1568          21.00        69.31
  236.20        2975.50           1571          23.00        78.03
  236.22        2975.75           1575          19.00        60.59
  236.25        2976.00           1578          25.00        86.75
  236.28        2976.25           1581          24.00        82.39
  236.31        2976.50           1585          22.00        73.67
  236.33        2976.75           1588          27.00        95.47
  236.36        2977.00           1591          17.00        51.87
  236.39        2977.25           1595          21.00        69.31
  236.41        2977.50           1598          24.00        82.39
  236.44        2977.75           1601          21.00        69.31
  236.47        2978.00           1605          18.00        56.23
  236.50        2978.25           1608          18.00        56.23
  236.52        2978.50           1611          17.00        51.87
  236.55        2978.75           1615          21.00        69.31
  236.58        2979.00           1618          23.00        78.03
  236.61        2979.25           1621          21.00        69.31
  236.63        2979.50           1625          17.00        51.87
  236.66        2979.75           1628          20.00        64.95
  236.69        2980.00           1631          23.00        78.03
  236.72        2980.25           1635          16.00        47.52
  236.74        2980.50           1638          22.00        73.67
  236.77        2980.75           1641          18.00        56.23
  236.80        2981.00           1645          20.00        64.95
  236.82        2981.25           1648          19.00        60.59
  236.85        2981.50           1651          18.00        56.23
  236.88        2981.75           1655          16.00        47.52
  236.91        2982.00           1658          17.00        51.87
  236.93        2982.25           1661          15.00        43.16
  236.96        2982.50           1665          24.00        82.39
  236.99        2982.75           1668          18.00        56.23
  237.01        2983.00           1671          25.00        86.75
  237.04        2983.25           1675          18.00        56.23
  237.07        2983.50           1678          17.00        51.87
  237.10        2983.75           1681          18.00        56.23
  237.12        2984.00           1685          17.00        51.87
HS scan finished at 03:57:19
end
