************************************************************
  HS Scan of (1) Internal mercury lamp
************************************************************
Integration time is 0.2294 seconds per sample
dh091118Tamanrasset 22.79-5.529 4.974364pr865
************************************************************
Dead Time -------------------------  2.8E-08 
Number of Cycles Used -------------  4 
Starting Wavelength (Angstroms) ---  2950 
Final Wavelength (Angstoms) -------  2984 
Wavelength Increment (Angstroms) --  .25 
Filter Wheel #1 Position ---------- (1) Ground quartz diffuser (ND=2.32)
Filter Wheel #2 Position ---------- (1) Neutral Density 0.494



************************************************************
HS scan start time = 03:59:52
Dark Count =  3.6 


Time (GMT)  Wavelength (Ang)  Step Number  Raw Counts  Counts/Second

  240.22        2950.00           1233          19.00        67.13
  240.28        2950.25           1236          22.00        80.21
  240.31        2950.50           1239          20.00        71.49
  240.33        2950.75           1242          21.00        75.85
  240.36        2951.00           1246          24.00        88.93
  240.39        2951.25           1249          18.00        62.77
  240.42        2951.50           1252          18.00        62.77
  240.44        2951.75           1256          22.00        80.21
  240.47        2952.00           1259          20.00        71.49
  240.50        2952.25           1262          16.00        54.05
  240.52        2952.50           1266          18.00        62.77
  240.55        2952.75           1269          20.00        71.49
  240.58        2953.00           1272          18.00        62.77
  240.61        2953.25           1276          19.00        67.13
  240.63        2953.50           1279          19.00        67.13
  240.66        2953.75           1282          20.00        71.49
  240.69        2954.00           1286          16.00        54.05
  240.71        2954.25           1289          18.00        62.77
  240.74        2954.50           1292          20.00        71.49
  240.77        2954.75           1295          19.00        67.13
  240.80        2955.00           1299          18.00        62.77
  240.82        2955.25           1302          20.00        71.49
  240.85        2955.50           1305          21.00        75.85
  240.88        2955.75           1309          19.00        67.13
  240.90        2956.00           1312          19.00        67.13
  240.93        2956.25           1315          20.00        71.49
  240.96        2956.50           1319          20.00        71.49
  240.99        2956.75           1322          19.00        67.13
  241.01        2957.00           1325          17.00        58.41
  241.04        2957.25           1329          19.00        67.13
  241.07        2957.50           1332          18.00        62.77
  241.09        2957.75           1335          18.00        62.77
  241.12        2958.00           1339          20.00        71.49
  241.15        2958.25           1342          17.00        58.41
  241.18        2958.50           1345          17.00        58.41
  241.20        2958.75           1348          17.00        58.41
  241.23        2959.00           1352          19.00        67.13
  241.26        2959.25           1355          18.00        62.77
  241.28        2959.50           1358          23.00        84.57
  241.31        2959.75           1362          23.00        84.57
  241.34        2960.00           1365          19.00        67.13
  241.37        2960.25           1368          25.00        93.29
  241.39        2960.50           1372          33.00       128.16
  241.42        2960.75           1375          37.00       145.60
  241.45        2961.00           1378         102.00       428.95
  241.48        2961.25           1382         473.00      2046.32
  241.50        2961.50           1385        1198.00      5207.39
  241.53        2961.75           1388        2455.00     10689.34
  241.56        2962.00           1392        4910.00     21400.79
  241.58        2962.25           1395        7076.00     30856.64
  241.61        2962.50           1398        9301.00     40575.29
  241.64        2962.75           1402       12281.00     53600.01
  241.67        2963.00           1405       14543.00     63492.91
  241.69        2963.25           1408       16909.00     73846.52
  241.72        2963.50           1412       20148.00     88030.14
  241.75        2963.75           1415       22322.00     97556.44
  241.78        2964.00           1418       24720.00    108070.20
  241.80        2964.25           1422       27940.00    122197.70
  241.83        2964.50           1425       30085.00    131614.90
  241.86        2964.75           1428       32852.00    143770.30
  241.88        2965.00           1431       34966.00    153062.60
  241.91        2965.25           1435       38443.00    168356.70
  241.94        2965.50           1438       40614.00    177912.90
  241.97        2965.75           1441       42932.00    188121.70
  241.99        2966.00           1445       46214.00    202586.20
  242.02        2966.25           1448       47992.00    210427.10
  242.05        2966.50           1451       49730.00    218095.00
  242.08        2966.75           1455       51013.00    223757.60
  242.10        2967.00           1458       51452.00    225695.50
  242.13        2967.25           1461       51329.00    225152.50
  242.16        2967.50           1465       51365.00    225311.50
  242.18        2967.75           1468       50817.00    222892.40
  242.21        2968.00           1471       49856.00    218651.00
  242.24        2968.25           1475       47920.00    210109.50
  242.27        2968.50           1478       45650.00    200099.70
  242.30        2968.75           1481       43241.00    189483.00
  242.32        2969.00           1485       40321.00    176622.90
  242.35        2969.25           1488       37690.00    165043.40
  242.38        2969.50           1491       35200.00    154091.50
  242.40        2969.75           1495       31880.00    139499.40
  242.43        2970.00           1498       29602.00    129494.00
  242.46        2970.25           1501       27019.00    118155.70
  242.49        2970.50           1505       23802.00    104044.60
  242.51        2970.75           1508       21304.00     93095.02
  242.54        2971.00           1511       18789.00     82077.70
  242.57        2971.25           1515       15648.00     68327.63
  242.60        2971.50           1518       13344.00     58248.37
  242.62        2971.75           1521       11048.00     48209.76
  242.65        2972.00           1525        8040.00     35066.67
  242.68        2972.25           1528        5679.00     24757.35
  242.70        2972.50           1531        3597.00     15671.22
  242.73        2972.75           1535        1574.00      6847.00
  242.76        2973.00           1538         664.00      2879.05
  242.79        2973.25           1541         213.00       912.84
  242.81        2973.50           1545          59.00       241.50
  242.84        2973.75           1548          31.00       119.44
  242.87        2974.00           1551          32.00       123.80
  242.89        2974.25           1555          25.00        93.29
  242.92        2974.50           1558          21.00        75.85
  242.95        2974.75           1561          22.00        80.21
  242.98        2975.00           1565          21.00        75.85
  243.00        2975.25           1568          25.00        93.29
  243.03        2975.50           1571          23.00        84.57
  243.06        2975.75           1575          23.00        84.57
  243.08        2976.00           1578          30.00       115.08
  243.11        2976.25           1581          24.00        88.93
  243.14        2976.50           1585          18.00        62.77
  243.17        2976.75           1588          23.00        84.57
  243.19        2977.00           1591          18.00        62.77
  243.22        2977.25           1595          23.00        84.57
  243.25        2977.50           1598          21.00        75.85
  243.27        2977.75           1601          25.00        93.29
  243.30        2978.00           1605          26.00        97.65
  243.33        2978.25           1608          21.00        75.85
  243.36        2978.50           1611          23.00        84.57
  243.38        2978.75           1615          19.00        67.13
  243.41        2979.00           1618          20.00        71.49
  243.44        2979.25           1621          23.00        84.57
  243.47        2979.50           1625          22.00        80.21
  243.49        2979.75           1628          25.00        93.29
  243.52        2980.00           1631          20.00        71.49
  243.55        2980.25           1635          22.00        80.21
  243.57        2980.50           1638          22.00        80.21
  243.60        2980.75           1641          25.00        93.29
  243.63        2981.00           1645          23.00        84.57
  243.66        2981.25           1648          18.00        62.77
  243.68        2981.50           1651          21.00        75.85
  243.71        2981.75           1655          24.00        88.93
  243.74        2982.00           1658          18.00        62.77
  243.76        2982.25           1661          17.00        58.41
  243.79        2982.50           1665          19.00        67.13
  243.82        2982.75           1668          22.00        80.21
  243.85        2983.00           1671          14.00        45.34
  243.87        2983.25           1675          22.00        80.21
  243.90        2983.50           1678          18.00        62.77
  243.93        2983.75           1681          21.00        75.85
  243.95        2984.00           1685          19.00        67.13
HS scan finished at 04:04:08
end
