************************************************************
  HS Scan of (1) Internal mercury lamp
************************************************************
Integration time is 0.2294 seconds per sample
dh081118Tamanrasset 22.79-5.529 4.974364pr865
************************************************************
Dead Time -------------------------  2.8E-08 
Number of Cycles Used -------------  4 
Starting Wavelength (Angstroms) ---  2950 
Final Wavelength (Angstoms) -------  2984 
Wavelength Increment (Angstroms) --  .25 
Filter Wheel #1 Position ---------- (1) Ground quartz diffuser (ND=2.32)
Filter Wheel #2 Position ---------- (1) Neutral Density 0.494



************************************************************
HS scan start time = 03:59:08
Dark Count =  3.3 


Time (GMT)  Wavelength (Ang)  Step Number  Raw Counts  Counts/Second

  239.48        2950.00           1233          22.00        81.52
  239.55        2950.25           1236          22.00        81.52
  239.57        2950.50           1239          20.00        72.80
  239.60        2950.75           1242          23.00        85.88
  239.63        2951.00           1246          20.00        72.80
  239.66        2951.25           1249          17.00        59.72
  239.68        2951.50           1252          22.00        81.52
  239.71        2951.75           1256          21.00        77.16
  239.74        2952.00           1259          20.00        72.80
  239.76        2952.25           1262          24.00        90.24
  239.79        2952.50           1266          18.00        64.08
  239.82        2952.75           1269          17.00        59.72
  239.85        2953.00           1272          16.00        55.36
  239.87        2953.25           1276          19.00        68.44
  239.90        2953.50           1279          24.00        90.24
  239.93        2953.75           1282          23.00        85.88
  239.95        2954.00           1286          20.00        72.80
  239.98        2954.25           1289          19.00        68.44
  240.01        2954.50           1292          16.00        55.36
  240.04        2954.75           1295          20.00        72.80
  240.06        2955.00           1299          21.00        77.16
  240.09        2955.25           1302          16.00        55.36
  240.12        2955.50           1305          20.00        72.80
  240.14        2955.75           1309          25.00        94.59
  240.17        2956.00           1312          19.00        68.44
  240.20        2956.25           1315          20.00        72.80
  240.23        2956.50           1319          23.00        85.88
  240.25        2956.75           1322          21.00        77.16
  240.28        2957.00           1325          18.00        64.08
  240.31        2957.25           1329          18.00        64.08
  240.33        2957.50           1332          18.00        64.08
  240.36        2957.75           1335          18.00        64.08
  240.39        2958.00           1339          18.00        64.08
  240.42        2958.25           1342          20.00        72.80
  240.44        2958.50           1345          24.00        90.24
  240.47        2958.75           1348          20.00        72.80
  240.50        2959.00           1352          19.00        68.44
  240.53        2959.25           1355          20.00        72.80
  240.55        2959.50           1358          20.00        72.80
  240.58        2959.75           1362          25.00        94.59
  240.61        2960.00           1365          19.00        68.44
  240.63        2960.25           1368          26.00        98.95
  240.66        2960.50           1372          30.00       116.39
  240.69        2960.75           1375          32.00       125.11
  240.72        2961.00           1378         105.00       443.34
  240.74        2961.25           1382         486.00      2104.31
  240.77        2961.50           1385        1116.00      4851.14
  240.80        2961.75           1388        2330.00     10145.43
  240.82        2962.00           1392        4719.00     20568.52
  240.85        2962.25           1395        6836.00     29809.97
  240.88        2962.50           1398        9076.00     39593.57
  240.91        2962.75           1402       11983.00     52298.42
  240.93        2963.00           1405       14191.00     61954.38
  240.96        2963.25           1408       16584.00     72425.28
  240.99        2963.50           1412       19559.00     85451.38
  241.02        2963.75           1415       21816.00     95340.04
  241.04        2964.00           1418       24247.00    105997.20
  241.07        2964.25           1422       27279.00    119298.00
  241.10        2964.50           1425       29750.00    130145.10
  241.13        2964.75           1428       32187.00    140849.50
  241.15        2965.00           1431       34413.00    150632.70
  241.18        2965.25           1435       37528.00    164332.00
  241.21        2965.50           1438       40102.00    175660.00
  241.24        2965.75           1441       42262.00    185171.60
  241.26        2966.00           1445       45400.00    198998.90
  241.29        2966.25           1448       47524.00    208364.30
  241.32        2966.50           1451       49022.00    214972.30
  241.34        2966.75           1455       50326.00    220726.60
  241.37        2967.00           1458       50836.00    222977.60
  241.40        2967.25           1461       51154.00    224381.30
  241.43        2967.50           1465       50897.00    223246.90
  241.45        2967.75           1468       50377.00    220951.70
  241.48        2968.00           1471       49742.00    218149.30
  241.51        2968.25           1475       47552.00    208487.70
  241.54        2968.50           1478       45438.00    199166.40
  241.56        2968.75           1481       43148.00    189074.60
  241.59        2969.00           1485       40158.00    175906.60
  241.62        2969.25           1488       37466.00    164059.20
  241.65        2969.50           1491       35070.00    153521.20
  241.67        2969.75           1495       31811.00    139197.50
  241.70        2970.00           1498       29584.00    129416.20
  241.73        2970.25           1501       27149.00    118727.50
  241.75        2970.50           1505       23982.00    104835.20
  241.78        2970.75           1508       21458.00     93771.16
  241.81        2971.00           1511       19231.00     84014.76
  241.84        2971.25           1515       15859.00     69252.30
  241.86        2971.50           1518       13554.00     59168.13
  241.89        2971.75           1521       11160.00     48700.64
  241.92        2972.00           1525        7921.00     34548.23
  241.95        2972.25           1528        5691.00     24811.04
  241.97        2972.50           1531        3613.00     15742.33
  242.00        2972.75           1535        1688.00      7345.45
  242.03        2973.00           1538         681.00      2954.47
  242.06        2973.25           1541         216.00       927.23
  242.08        2973.50           1545          52.00       212.29
  242.11        2973.75           1548          37.00       146.91
  242.14        2974.00           1551          31.00       120.75
  242.16        2974.25           1555          27.00       103.31
  242.19        2974.50           1558          22.00        81.52
  242.22        2974.75           1561          25.00        94.59
  242.25        2975.00           1565          22.00        81.52
  242.27        2975.25           1568          22.00        81.52
  242.30        2975.50           1571          24.00        90.24
  242.33        2975.75           1575          20.00        72.80
  242.36        2976.00           1578          23.00        85.88
  242.38        2976.25           1581          22.00        81.52
  242.41        2976.50           1585          25.00        94.59
  242.44        2976.75           1588          19.00        68.44
  242.46        2977.00           1591          21.00        77.16
  242.49        2977.25           1595          16.00        55.36
  242.52        2977.50           1598          22.00        81.52
  242.55        2977.75           1601          24.00        90.24
  242.57        2978.00           1605          21.00        77.16
  242.60        2978.25           1608          18.00        64.08
  242.63        2978.50           1611          22.00        81.52
  242.65        2978.75           1615          23.00        85.88
  242.68        2979.00           1618          22.00        81.52
  242.71        2979.25           1621          22.00        81.52
  242.74        2979.50           1625          21.00        77.16
  242.76        2979.75           1628          19.00        68.44
  242.79        2980.00           1631          18.00        64.08
  242.82        2980.25           1635          24.00        90.24
  242.85        2980.50           1638          23.00        85.88
  242.87        2980.75           1641          21.00        77.16
  242.90        2981.00           1645          19.00        68.44
  242.93        2981.25           1648          19.00        68.44
  242.95        2981.50           1651          19.00        68.44
  242.98        2981.75           1655          19.00        68.44
  243.01        2982.00           1658          17.00        59.72
  243.03        2982.25           1661          23.00        85.88
  243.06        2982.50           1665          19.00        68.44
  243.09        2982.75           1668          19.00        68.44
  243.12        2983.00           1671          18.00        64.08
  243.14        2983.25           1675          21.00        77.16
  243.17        2983.50           1678          24.00        90.24
  243.20        2983.75           1681          21.00        77.16
  243.23        2984.00           1685          18.00        64.08
HS scan finished at 04:03:25
end
