************************************************************
  HS Scan of (1) Internal mercury lamp
************************************************************
Integration time is 0.2294 seconds per sample
dh121118Tamanrasset 22.79-5.529 4.974364pr865
************************************************************
Dead Time -------------------------  2.8E-08 
Number of Cycles Used -------------  4 
Starting Wavelength (Angstroms) ---  2950 
Final Wavelength (Angstoms) -------  2984 
Wavelength Increment (Angstroms) --  .25 
Filter Wheel #1 Position ---------- (1) Ground quartz diffuser (ND=2.32)
Filter Wheel #2 Position ---------- (1) Neutral Density 0.494



************************************************************
HS scan start time = 04:00:38
Dark Count =  4.3 


Time (GMT)  Wavelength (Ang)  Step Number  Raw Counts  Counts/Second

  241.00        2950.00           1233          20.00        68.44
  241.06        2950.25           1236          21.00        72.80
  241.09        2950.50           1239          20.00        68.44
  241.11        2950.75           1242          19.00        64.08
  241.14        2951.00           1246          21.00        72.80
  241.17        2951.25           1249          16.00        51.00
  241.20        2951.50           1252          18.00        59.72
  241.22        2951.75           1256          20.00        68.44
  241.25        2952.00           1259          18.00        59.72
  241.28        2952.25           1262          15.00        46.64
  241.30        2952.50           1266          16.00        51.00
  241.33        2952.75           1269          21.00        72.80
  241.36        2953.00           1272          18.00        59.72
  241.39        2953.25           1276          20.00        68.44
  241.41        2953.50           1279          23.00        81.52
  241.44        2953.75           1282          20.00        68.44
  241.47        2954.00           1286          21.00        72.80
  241.49        2954.25           1289          21.00        72.80
  241.52        2954.50           1292          22.00        77.16
  241.55        2954.75           1295          14.00        42.28
  241.58        2955.00           1299          20.00        68.44
  241.60        2955.25           1302          19.00        64.08
  241.63        2955.50           1305          22.00        77.16
  241.66        2955.75           1309          20.00        68.44
  241.68        2956.00           1312          18.00        59.72
  241.71        2956.25           1315          24.00        85.88
  241.74        2956.50           1319          18.00        59.72
  241.77        2956.75           1322          25.00        90.24
  241.79        2957.00           1325          16.00        51.00
  241.82        2957.25           1329          22.00        77.16
  241.85        2957.50           1332          20.00        68.44
  241.87        2957.75           1335          19.00        64.08
  241.90        2958.00           1339          21.00        72.80
  241.93        2958.25           1342          17.00        55.36
  241.96        2958.50           1345          19.00        64.08
  241.98        2958.75           1348          16.00        51.00
  242.01        2959.00           1352          19.00        64.08
  242.04        2959.25           1355          19.00        64.08
  242.06        2959.50           1358          22.00        77.16
  242.09        2959.75           1362          22.00        77.16
  242.12        2960.00           1365          26.00        94.59
  242.15        2960.25           1368          21.00        72.80
  242.17        2960.50           1372          34.00       129.47
  242.20        2960.75           1375          27.00        98.95
  242.23        2961.00           1378          67.00       273.32
  242.25        2961.25           1382         380.00      1637.83
  242.28        2961.50           1385         893.00      3874.44
  242.31        2961.75           1388        1931.00      8400.84
  242.34        2962.00           1392        4069.00     17727.63
  242.36        2962.25           1395        6103.00     26605.25
  242.39        2962.50           1398        8229.00     35889.15
  242.42        2962.75           1402       10916.00     47629.74
  242.44        2963.00           1405       13157.00     57427.49
  242.47        2963.25           1408       15499.00     67672.58
  242.50        2963.50           1412       18288.00     79880.73
  242.53        2963.75           1415       20497.00     89556.02
  242.55        2964.00           1418       22742.00     99394.36
  242.58        2964.25           1422       25387.00    110992.60
  242.61        2964.50           1425       27711.00    121189.50
  242.64        2964.75           1428       30095.00    131655.70
  242.66        2965.00           1431       32409.00    141820.60
  242.69        2965.25           1435       35438.00    155134.90
  242.72        2965.50           1438       37835.00    165678.30
  242.74        2965.75           1441       39822.00    174423.00
  242.77        2966.00           1445       43242.00    189484.40
  242.80        2966.25           1448       44730.00    196041.30
  242.83        2966.50           1451       46233.00    202666.90
  242.85        2966.75           1455       47594.00    208668.60
  242.88        2967.00           1458       48296.00    211765.00
  242.91        2967.25           1461       48253.00    211575.40
  242.94        2967.50           1465       48297.00    211769.40
  242.96        2967.75           1468       48055.00    210701.90
  242.99        2968.00           1471       47137.00    206653.10
  243.02        2968.25           1475       45444.00    199188.50
  243.05        2968.50           1478       43435.00    190334.70
  243.07        2968.75           1481       41370.00    181238.70
  243.10        2969.00           1485       38288.00    167671.60
  243.13        2969.25           1488       35777.00    156625.70
  243.15        2969.50           1491       33516.00    146685.40
  243.18        2969.75           1495       30708.00    134347.90
  243.21        2970.00           1498       28298.00    123766.00
  243.24        2970.25           1501       26064.00    113962.50
  243.26        2970.50           1505       22786.00     99587.25
  243.29        2970.75           1508       20602.00     90016.05
  243.32        2971.00           1511       18168.00     79355.30
  243.35        2971.25           1515       15306.00     66828.07
  243.37        2971.50           1518       13042.00     56924.58
  243.40        2971.75           1521       10882.00     47481.14
  243.43        2972.00           1525        7876.00     34347.32
  243.46        2972.25           1528        5727.00     24963.83
  243.48        2972.50           1531        3750.00     16335.72
  243.51        2972.75           1535        1660.00      7218.98
  243.54        2973.00           1538         735.00      3185.55
  243.56        2973.25           1541         244.00      1044.93
  243.59        2973.50           1545          61.00       247.17
  243.62        2973.75           1548          33.00       125.11
  243.65        2974.00           1551          33.00       125.11
  243.67        2974.25           1555          30.00       112.03
  243.70        2974.50           1558          24.00        85.88
  243.73        2974.75           1561          24.00        85.88
  243.75        2975.00           1565          25.00        90.24
  243.78        2975.25           1568          22.00        77.16
  243.81        2975.50           1571          20.00        68.44
  243.84        2975.75           1575          19.00        64.08
  243.86        2976.00           1578          20.00        68.44
  243.89        2976.25           1581          23.00        81.52
  243.92        2976.50           1585          18.00        59.72
  243.94        2976.75           1588          19.00        64.08
  243.97        2977.00           1591          22.00        77.16
  244.00        2977.25           1595          23.00        81.52
  244.03        2977.50           1598          22.00        77.16
  244.05        2977.75           1601          17.00        55.36
  244.08        2978.00           1605          26.00        94.59
  244.11        2978.25           1608          20.00        68.44
  244.13        2978.50           1611          17.00        55.36
  244.16        2978.75           1615          19.00        64.08
  244.19        2979.00           1618          18.00        59.72
  244.22        2979.25           1621          17.00        55.36
  244.24        2979.50           1625          22.00        77.16
  244.27        2979.75           1628          22.00        77.16
  244.30        2980.00           1631          22.00        77.16
  244.32        2980.25           1635          25.00        90.24
  244.35        2980.50           1638          21.00        72.80
  244.38        2980.75           1641          20.00        68.44
  244.41        2981.00           1645          24.00        85.88
  244.43        2981.25           1648          23.00        81.52
  244.46        2981.50           1651          16.00        51.00
  244.49        2981.75           1655          23.00        81.52
  244.51        2982.00           1658          23.00        81.52
  244.54        2982.25           1661          21.00        72.80
  244.57        2982.50           1665          17.00        55.36
  244.60        2982.75           1668          22.00        77.16
  244.62        2983.00           1671          19.00        64.08
  244.65        2983.25           1675          18.00        59.72
  244.68        2983.50           1678          23.00        81.52
  244.71        2983.75           1681          20.00        68.44
  244.73        2984.00           1685          24.00        85.88
HS scan finished at 04:04:55
end
