************************************************************
  HS Scan of (1) Internal mercury lamp
************************************************************
Integration time is 0.2294 seconds per sample
dh061118Tamanrasset 22.79-5.529 4.974364pr865
************************************************************
Dead Time -------------------------  2.8E-08 
Number of Cycles Used -------------  4 
Starting Wavelength (Angstroms) ---  2950 
Final Wavelength (Angstoms) -------  2984 
Wavelength Increment (Angstroms) --  .25 
Filter Wheel #1 Position ---------- (1) Ground quartz diffuser (ND=2.32)
Filter Wheel #2 Position ---------- (1) Neutral Density 0.494



************************************************************
HS scan start time = 03:58:03
Dark Count =  6.1 


Time (GMT)  Wavelength (Ang)  Step Number  Raw Counts  Counts/Second

  238.40        2950.00           1233          22.00        69.31
  238.47        2950.25           1236          21.00        64.95
  238.49        2950.50           1239          25.00        82.39
  238.52        2950.75           1242          17.00        47.52
  238.55        2951.00           1246          17.00        47.52
  238.57        2951.25           1249          22.00        69.31
  238.60        2951.50           1252          23.00        73.67
  238.63        2951.75           1256          16.00        43.16
  238.66        2952.00           1259          18.00        51.87
  238.68        2952.25           1262          21.00        64.95
  238.71        2952.50           1266          23.00        73.67
  238.74        2952.75           1269          18.00        51.87
  238.76        2953.00           1272          19.00        56.23
  238.79        2953.25           1276          18.00        51.87
  238.82        2953.50           1279          21.00        64.95
  238.85        2953.75           1282          22.00        69.31
  238.87        2954.00           1286          23.00        73.67
  238.90        2954.25           1289          17.00        47.52
  238.93        2954.50           1292          18.00        51.87
  238.96        2954.75           1295          19.00        56.23
  238.98        2955.00           1299          21.00        64.95
  239.01        2955.25           1302          18.00        51.87
  239.04        2955.50           1305          21.00        64.95
  239.06        2955.75           1309          25.00        82.39
  239.09        2956.00           1312          19.00        56.23
  239.12        2956.25           1315          20.00        60.59
  239.15        2956.50           1319          16.00        43.16
  239.17        2956.75           1322          22.00        69.31
  239.20        2957.00           1325          19.00        56.23
  239.23        2957.25           1329          18.00        51.87
  239.25        2957.50           1332          15.00        38.80
  239.28        2957.75           1335          17.00        47.52
  239.31        2958.00           1339          18.00        51.87
  239.34        2958.25           1342          15.00        38.80
  239.36        2958.50           1345          19.00        56.23
  239.39        2958.75           1348          19.00        56.23
  239.42        2959.00           1352          19.00        56.23
  239.45        2959.25           1355          22.00        69.31
  239.47        2959.50           1358          25.00        82.39
  239.50        2959.75           1362          20.00        60.59
  239.53        2960.00           1365          24.00        78.03
  239.56        2960.25           1368          30.00       104.19
  239.58        2960.50           1372          31.00       108.54
  239.61        2960.75           1375          35.00       125.98
  239.64        2961.00           1378         107.00       439.85
  239.66        2961.25           1382         537.00      2314.45
  239.69        2961.50           1385        1277.00      5540.97
  239.72        2961.75           1388        2530.00     11005.57
  239.75        2962.00           1392        5001.00     21787.05
  239.77        2962.25           1395        7345.00     32020.42
  239.80        2962.50           1398        9748.00     42517.46
  239.83        2962.75           1402       12784.00     55788.48
  239.86        2963.00           1405       15090.00     65875.10
  239.88        2963.25           1408       17684.00     77228.28
  239.91        2963.50           1412       20948.00     91524.14
  239.94        2963.75           1415       23072.00    100833.10
  239.96        2964.00           1418       25609.00    111958.50
  239.99        2964.25           1422       28786.00    125900.30
  240.02        2964.50           1425       31183.00    136426.40
  240.05        2964.75           1428       33913.00    148422.40
  240.07        2965.00           1431       36299.00    158913.50
  240.10        2965.25           1435       39553.00    173231.00
  240.13        2965.50           1438       41999.00    184000.90
  240.16        2965.75           1441       44460.00    194843.40
  240.18        2966.00           1445       47737.00    209291.30
  240.21        2966.25           1448       49647.00    217717.70
  240.24        2966.50           1451       51110.00    224174.70
  240.27        2966.75           1455       52423.00    229971.70
  240.29        2967.00           1458       52911.00    232126.80
  240.32        2967.25           1461       53155.00    233204.40
  240.35        2967.50           1465       52640.00    230930.00
  240.38        2967.75           1468       52177.00    228885.50
  240.40        2968.00           1471       51410.00    225499.10
  240.43        2968.25           1475       48998.00    214854.10
  240.46        2968.50           1478       47197.00    206909.70
  240.48        2968.75           1481       44890.00    196738.60
  240.51        2969.00           1485       41505.00    181825.30
  240.54        2969.25           1488       38759.00    169736.40
  240.57        2969.50           1491       36406.00    159384.10
  240.60        2969.75           1495       32836.00    143689.00
  240.62        2970.00           1498       30275.00    132438.30
  240.65        2970.25           1501       27871.00    121883.90
  240.68        2970.50           1505       24362.00    106489.20
  240.70        2970.75           1508       22058.00     96388.38
  240.73        2971.00           1511       19568.00     85478.53
  240.76        2971.25           1515       16265.00     71016.84
  240.79        2971.50           1518       13684.00     59724.47
  240.81        2971.75           1521       11394.00     49711.26
  240.84        2972.00           1525        8260.00     36016.69
  240.87        2972.25           1528        5777.00     25174.24
  240.90        2972.50           1531        3709.00     16148.98
  240.92        2972.75           1535        1635.00      7102.11
  240.95        2973.00           1538         638.00      2754.79
  240.98        2973.25           1541         201.00       849.63
  241.01        2973.50           1545          60.00       234.96
  241.03        2973.75           1548          37.00       134.70
  241.06        2974.00           1551          31.00       108.54
  241.09        2974.25           1555          25.00        82.39
  241.11        2974.50           1558          29.00        99.83
  241.14        2974.75           1561          22.00        69.31
  241.17        2975.00           1565          24.00        78.03
  241.20        2975.25           1568          21.00        64.95
  241.22        2975.50           1571          20.00        60.59
  241.25        2975.75           1575          19.00        56.23
  241.28        2976.00           1578          22.00        69.31
  241.30        2976.25           1581          25.00        82.39
  241.33        2976.50           1585          20.00        60.59
  241.36        2976.75           1588          23.00        73.67
  241.39        2977.00           1591          18.00        51.87
  241.41        2977.25           1595          21.00        64.95
  241.44        2977.50           1598          21.00        64.95
  241.47        2977.75           1601          25.00        82.39
  241.49        2978.00           1605          21.00        64.95
  241.52        2978.25           1608          20.00        60.59
  241.55        2978.50           1611          22.00        69.31
  241.58        2978.75           1615          19.00        56.23
  241.60        2979.00           1618          20.00        60.59
  241.63        2979.25           1621          22.00        69.31
  241.66        2979.50           1625          19.00        56.23
  241.68        2979.75           1628          21.00        64.95
  241.71        2980.00           1631          24.00        78.03
  241.74        2980.25           1635          19.00        56.23
  241.77        2980.50           1638          21.00        64.95
  241.79        2980.75           1641          19.00        56.23
  241.82        2981.00           1645          21.00        64.95
  241.85        2981.25           1648          20.00        60.59
  241.88        2981.50           1651          20.00        60.59
  241.90        2981.75           1655          19.00        56.23
  241.93        2982.00           1658          18.00        51.87
  241.96        2982.25           1661          19.00        56.23
  241.98        2982.50           1665          22.00        69.31
  242.01        2982.75           1668          21.00        64.95
  242.04        2983.00           1671          26.00        86.75
  242.07        2983.25           1675          19.00        56.23
  242.09        2983.50           1678          18.00        51.87
  242.12        2983.75           1681          17.00        47.52
  242.15        2984.00           1685          21.00        64.95
HS scan finished at 04:02:20
end
