************************************************************
  HS Scan of (1) Internal mercury lamp
************************************************************
Integration time is 0.2294 seconds per sample
dh141118Tamanrasset 22.79-5.529 4.974364pr865
************************************************************
Dead Time -------------------------  2.8E-08 
Number of Cycles Used -------------  4 
Starting Wavelength (Angstroms) ---  2950 
Final Wavelength (Angstoms) -------  2984 
Wavelength Increment (Angstroms) --  .25 
Filter Wheel #1 Position ---------- (1) Ground quartz diffuser (ND=2.32)
Filter Wheel #2 Position ---------- (1) Neutral Density 0.494



************************************************************
HS scan start time = 04:01:38
Dark Count =  6 


Time (GMT)  Wavelength (Ang)  Step Number  Raw Counts  Counts/Second

  241.98        2950.00           1233          22.00        69.75
  242.05        2950.25           1236          21.00        65.39
  242.07        2950.50           1239          19.00        56.67
  242.10        2950.75           1242          21.00        65.39
  242.13        2951.00           1246          19.00        56.67
  242.16        2951.25           1249          19.00        56.67
  242.18        2951.50           1252          18.00        52.31
  242.21        2951.75           1256          22.00        69.75
  242.24        2952.00           1259          17.00        47.95
  242.26        2952.25           1262          20.00        61.03
  242.29        2952.50           1266          23.00        74.11
  242.32        2952.75           1269          23.00        74.11
  242.34        2953.00           1272          23.00        74.11
  242.37        2953.25           1276          21.00        65.39
  242.40        2953.50           1279          23.00        74.11
  242.43        2953.75           1282          18.00        52.31
  242.45        2954.00           1286          15.00        39.23
  242.48        2954.25           1289          18.00        52.31
  242.51        2954.50           1292          16.00        43.59
  242.53        2954.75           1295          15.00        39.23
  242.56        2955.00           1299          19.00        56.67
  242.59        2955.25           1302          21.00        65.39
  242.62        2955.50           1305          21.00        65.39
  242.64        2955.75           1309          19.00        56.67
  242.67        2956.00           1312          15.00        39.23
  242.70        2956.25           1315          18.00        52.31
  242.72        2956.50           1319          23.00        74.11
  242.75        2956.75           1322          22.00        69.75
  242.78        2957.00           1325          20.00        61.03
  242.81        2957.25           1329          22.00        69.75
  242.83        2957.50           1332          19.00        56.67
  242.86        2957.75           1335          17.00        47.95
  242.89        2958.00           1339          22.00        69.75
  242.91        2958.25           1342          19.00        56.67
  242.94        2958.50           1345          18.00        52.31
  242.97        2958.75           1348          22.00        69.75
  243.00        2959.00           1352          17.00        47.95
  243.02        2959.25           1355          20.00        61.03
  243.05        2959.50           1358          21.00        65.39
  243.08        2959.75           1362          27.00        91.54
  243.10        2960.00           1365          21.00        65.39
  243.13        2960.25           1368          23.00        74.11
  243.16        2960.50           1372          24.00        78.47
  243.19        2960.75           1375          35.00       126.42
  243.21        2961.00           1378          67.00       265.91
  243.24        2961.25           1382         388.00      1665.29
  243.27        2961.50           1385         904.00      3914.99
  243.29        2961.75           1388        1924.00      8362.90
  243.32        2962.00           1392        4133.00     17999.48
  243.35        2962.25           1395        6175.00     26912.17
  243.38        2962.50           1398        8276.00     36087.01
  243.40        2962.75           1402       11042.00     48173.05
  243.43        2963.00           1405       13170.00     57476.91
  243.46        2963.25           1408       15351.00     67017.53
  243.49        2963.50           1412       18198.00     79479.21
  243.51        2963.75           1415       20484.00     89491.62
  243.54        2964.00           1418       22765.00     99487.74
  243.57        2964.25           1422       25813.00    112853.90
  243.59        2964.50           1425       27929.00    122138.90
  243.62        2964.75           1428       30252.00    132337.80
  243.65        2965.00           1431       32437.00    141936.10
  243.68        2965.25           1435       35332.00    154661.40
  243.70        2965.50           1438       37750.00    165296.90
  243.73        2965.75           1441       39956.00    175005.40
  243.76        2966.00           1445       42682.00    187009.80
  243.79        2966.25           1448       44737.00    196064.70
  243.81        2966.50           1451       46152.00    202302.30
  243.84        2966.75           1455       47543.00    208436.10
  243.87        2967.00           1458       48032.00    210593.00
  243.90        2967.25           1461       48313.00    211832.50
  243.92        2967.50           1465       48237.00    211497.30
  243.95        2967.75           1468       47759.00    209388.80
  243.98        2968.00           1471       46643.00    204467.20
  244.01        2968.25           1475       44940.00    196959.40
  244.03        2968.50           1478       43142.00    189036.30
  244.06        2968.75           1481       40832.00    178862.20
  244.09        2969.00           1485       38187.00    167219.70
  244.11        2969.25           1488       35462.00    155233.00
  244.14        2969.50           1491       33111.00    144897.90
  244.17        2969.75           1495       30104.00    131687.80
  244.20        2970.00           1498       27718.00    121212.80
  244.22        2970.25           1501       25383.00    110967.60
  244.25        2970.50           1505       22502.00     98334.90
  244.28        2970.75           1508       19914.00     86994.56
  244.31        2971.00           1511       17683.00     77224.35
  244.33        2971.25           1515       14615.00     63797.39
  244.36        2971.50           1518       12245.00     53432.11
  244.39        2971.75           1521       10309.00     44969.40
  244.42        2972.00           1525        7437.00     32422.62
  244.44        2972.25           1528        5215.00     22721.51
  244.47        2972.50           1531        3341.00     14543.85
  244.50        2972.75           1535        1372.00      5955.66
  244.52        2973.00           1538         555.00      2393.36
  244.55        2973.25           1541         185.00       780.31
  244.58        2973.50           1545          42.00       156.93
  244.61        2973.75           1548          40.00       148.21
  244.63        2974.00           1551          34.00       122.06
  244.66        2974.25           1555          26.00        87.18
  244.69        2974.50           1558          23.00        74.11
  244.71        2974.75           1561          24.00        78.47
  244.74        2975.00           1565          22.00        69.75
  244.77        2975.25           1568          23.00        74.11
  244.80        2975.50           1571          21.00        65.39
  244.82        2975.75           1575          25.00        82.82
  244.85        2976.00           1578          23.00        74.11
  244.88        2976.25           1581          17.00        47.95
  244.90        2976.50           1585          24.00        78.47
  244.93        2976.75           1588          20.00        61.03
  244.96        2977.00           1591          18.00        52.31
  244.99        2977.25           1595          15.00        39.23
  245.01        2977.50           1598          20.00        61.03
  245.04        2977.75           1601          22.00        69.75
  245.07        2978.00           1605          21.00        65.39
  245.09        2978.25           1608          20.00        61.03
  245.12        2978.50           1611          21.00        65.39
  245.15        2978.75           1615          26.00        87.18
  245.18        2979.00           1618          22.00        69.75
  245.20        2979.25           1621          22.00        69.75
  245.23        2979.50           1625          19.00        56.67
  245.26        2979.75           1628          19.00        56.67
  245.28        2980.00           1631          22.00        69.75
  245.31        2980.25           1635          17.00        47.95
  245.34        2980.50           1638          19.00        56.67
  245.37        2980.75           1641          18.00        52.31
  245.39        2981.00           1645          23.00        74.11
  245.42        2981.25           1648          22.00        69.75
  245.45        2981.50           1651          22.00        69.75
  245.47        2981.75           1655          25.00        82.82
  245.50        2982.00           1658          25.00        82.82
  245.53        2982.25           1661          22.00        69.75
  245.56        2982.50           1665          15.00        39.23
  245.58        2982.75           1668          15.00        39.23
  245.61        2983.00           1671          19.00        56.67
  245.64        2983.25           1675          18.00        52.31
  245.66        2983.50           1678          21.00        65.39
  245.69        2983.75           1681          18.00        52.31
  245.72        2984.00           1685          23.00        74.11
HS scan finished at 04:05:54
end
