************************************************************
  HS Scan of (1) Internal mercury lamp
************************************************************
Integration time is 0.2294 seconds per sample
dh151118Tamanrasset 22.79-5.529 4.974364pr865
************************************************************
Dead Time -------------------------  2.8E-08 
Number of Cycles Used -------------  4 
Starting Wavelength (Angstroms) ---  2950 
Final Wavelength (Angstoms) -------  2984 
Wavelength Increment (Angstroms) --  .25 
Filter Wheel #1 Position ---------- (1) Ground quartz diffuser (ND=2.32)
Filter Wheel #2 Position ---------- (1) Neutral Density 0.494



************************************************************
HS scan start time = 04:03:01
Dark Count =  5 


Time (GMT)  Wavelength (Ang)  Step Number  Raw Counts  Counts/Second

  243.37        2950.00           1233          19.00        61.03
  243.43        2950.25           1236          24.00        82.82
  243.46        2950.50           1239          21.00        69.75
  243.49        2950.75           1242          19.00        61.03
  243.51        2951.00           1246          19.00        61.03
  243.54        2951.25           1249          19.00        61.03
  243.57        2951.50           1252          20.00        65.39
  243.59        2951.75           1256          18.00        56.67
  243.62        2952.00           1259          20.00        65.39
  243.65        2952.25           1262          22.00        74.11
  243.68        2952.50           1266          17.00        52.31
  243.70        2952.75           1269          23.00        78.47
  243.73        2953.00           1272          19.00        61.03
  243.76        2953.25           1276          20.00        65.39
  243.78        2953.50           1279          22.00        74.11
  243.81        2953.75           1282          17.00        52.31
  243.84        2954.00           1286          15.00        43.59
  243.87        2954.25           1289          21.00        69.75
  243.89        2954.50           1292          17.00        52.31
  243.92        2954.75           1295          17.00        52.31
  243.95        2955.00           1299          17.00        52.31
  243.97        2955.25           1302          19.00        61.03
  244.00        2955.50           1305          19.00        61.03
  244.03        2955.75           1309          22.00        74.11
  244.06        2956.00           1312          16.00        47.95
  244.08        2956.25           1315          22.00        74.11
  244.11        2956.50           1319          24.00        82.82
  244.14        2956.75           1322          19.00        61.03
  244.17        2957.00           1325          22.00        74.11
  244.19        2957.25           1329          21.00        69.75
  244.22        2957.50           1332          18.00        56.67
  244.25        2957.75           1335          21.00        69.75
  244.28        2958.00           1339          18.00        56.67
  244.30        2958.25           1342          18.00        56.67
  244.33        2958.50           1345          20.00        65.39
  244.36        2958.75           1348          20.00        65.39
  244.38        2959.00           1352          20.00        65.39
  244.41        2959.25           1355          19.00        61.03
  244.44        2959.50           1358          19.00        61.03
  244.46        2959.75           1362          26.00        91.54
  244.49        2960.00           1365          24.00        82.82
  244.52        2960.25           1368          29.00       104.62
  244.55        2960.50           1372          30.00       108.98
  244.57        2960.75           1375          34.00       126.42
  244.60        2961.00           1378          94.00       387.97
  244.63        2961.25           1382         445.00      1918.15
  244.66        2961.50           1385        1078.00      4678.03
  244.68        2961.75           1388        2205.00      9592.81
  244.71        2962.00           1392        4530.00     19736.28
  244.74        2962.25           1395        6652.00     28999.13
  244.76        2962.50           1398        8837.00     38542.01
  244.79        2962.75           1402       11719.00     51136.82
  244.82        2963.00           1405       14025.00     61220.82
  244.85        2963.25           1408       16234.00     70885.98
  244.87        2963.50           1412       19038.00     83162.04
  244.90        2963.75           1415       21288.00     93018.77
  244.93        2964.00           1418       23420.00    102363.60
  244.96        2964.25           1422       26536.00    116030.20
  244.98        2964.50           1425       28699.00    125523.20
  245.01        2964.75           1428       31196.00    136488.40
  245.04        2965.00           1431       33420.00    146260.40
  245.06        2965.25           1435       36621.00    160334.60
  245.09        2965.50           1438       38798.00    169912.80
  245.12        2965.75           1441       41079.00    179954.20
  245.15        2966.00           1445       44251.00    193927.30
  245.17        2966.25           1448       46124.00    202183.20
  245.20        2966.50           1451       47473.00    208131.80
  245.23        2966.75           1455       48462.00    212494.20
  245.26        2967.00           1458       49031.00    215004.50
  245.28        2967.25           1461       49357.00    216442.90
  245.31        2967.50           1465       49163.00    215586.90
  245.34        2967.75           1468       48631.00    213239.80
  245.37        2968.00           1471       47755.00    209375.60
  245.39        2968.25           1475       45775.00    200644.60
  245.42        2968.50           1478       43861.00    192208.60
  245.45        2968.75           1481       41465.00    181654.00
  245.47        2969.00           1485       38508.00    168636.60
  245.50        2969.25           1488       35918.00    157242.70
  245.53        2969.50           1491       33359.00    145992.30
  245.56        2969.75           1495       30462.00    133264.40
  245.58        2970.00           1498       28266.00    123622.50
  245.61        2970.25           1501       25736.00    112520.50
  245.64        2970.50           1505       22658.00     99023.09
  245.67        2970.75           1508       20545.00     89763.25
  245.69        2971.00           1511       18157.00     79304.06
  245.72        2971.25           1515       15096.00     65906.16
  245.75        2971.50           1518       12706.00     55452.21
  245.77        2971.75           1521       10512.00     45860.95
  245.80        2972.00           1525        7627.00     33256.76
  245.83        2972.25           1528        5378.00     23437.35
  245.86        2972.50           1531        3298.00     14360.61
  245.88        2972.75           1535        1420.00      6169.33
  245.91        2973.00           1538         573.00      2476.20
  245.94        2973.25           1541         187.00       793.39
  245.97        2973.50           1545          49.00       191.81
  245.99        2973.75           1548          36.00       135.14
  246.02        2974.00           1551          31.00       113.34
  246.05        2974.25           1555          24.00        82.82
  246.07        2974.50           1558          24.00        82.82
  246.10        2974.75           1561          21.00        69.75
  246.13        2975.00           1565          26.00        91.54
  246.16        2975.25           1568          22.00        74.11
  246.18        2975.50           1571          21.00        69.75
  246.21        2975.75           1575          22.00        74.11
  246.24        2976.00           1578          25.00        87.18
  246.26        2976.25           1581          24.00        82.82
  246.29        2976.50           1585          18.00        56.67
  246.32        2976.75           1588          21.00        69.75
  246.35        2977.00           1591          14.00        39.23
  246.37        2977.25           1595          22.00        74.11
  246.40        2977.50           1598          17.00        52.31
  246.43        2977.75           1601          22.00        74.11
  246.45        2978.00           1605          20.00        65.39
  246.48        2978.25           1608          20.00        65.39
  246.51        2978.50           1611          20.00        65.39
  246.54        2978.75           1615          31.00       113.34
  246.56        2979.00           1618          21.00        69.75
  246.59        2979.25           1621          16.00        47.95
  246.62        2979.50           1625          20.00        65.39
  246.64        2979.75           1628          21.00        69.75
  246.67        2980.00           1631          25.00        87.18
  246.70        2980.25           1635          20.00        65.39
  246.73        2980.50           1638          19.00        61.03
  246.75        2980.75           1641          21.00        69.75
  246.78        2981.00           1645          20.00        65.39
  246.81        2981.25           1648          19.00        61.03
  246.83        2981.50           1651          17.00        52.31
  246.86        2981.75           1655          21.00        69.75
  246.89        2982.00           1658          18.00        56.67
  246.92        2982.25           1661          18.00        56.67
  246.94        2982.50           1665          16.00        47.95
  246.97        2982.75           1668          15.00        43.59
  247.00        2983.00           1671          24.00        82.82
  247.03        2983.25           1675          19.00        61.03
  247.05        2983.50           1678          18.00        56.67
  247.08        2983.75           1681          21.00        69.75
  247.11        2984.00           1685          18.00        56.67
HS scan finished at 04:07:18
end
