************************************************************
  HS Scan of (1) Internal mercury lamp
************************************************************
Integration time is 0.2294 seconds per sample
dh101118Tamanrasset 22.79-5.529 4.974364pr865
************************************************************
Dead Time -------------------------  2.8E-08 
Number of Cycles Used -------------  4 
Starting Wavelength (Angstroms) ---  2950 
Final Wavelength (Angstoms) -------  2984 
Wavelength Increment (Angstroms) --  .25 
Filter Wheel #1 Position ---------- (1) Ground quartz diffuser (ND=2.32)
Filter Wheel #2 Position ---------- (1) Neutral Density 0.494



************************************************************
HS scan start time = 03:59:40
Dark Count =  3.6 


Time (GMT)  Wavelength (Ang)  Step Number  Raw Counts  Counts/Second

  240.02        2950.00           1233          19.00        67.13
  240.08        2950.25           1236          17.00        58.41
  240.11        2950.50           1239          25.00        93.29
  240.14        2950.75           1242          22.00        80.21
  240.17        2951.00           1246          19.00        67.13
  240.19        2951.25           1249          18.00        62.77
  240.22        2951.50           1252          20.00        71.49
  240.25        2951.75           1256          20.00        71.49
  240.27        2952.00           1259          18.00        62.77
  240.30        2952.25           1262          20.00        71.49
  240.33        2952.50           1266          24.00        88.93
  240.36        2952.75           1269          20.00        71.49
  240.38        2953.00           1272          21.00        75.85
  240.41        2953.25           1276          15.00        49.69
  240.44        2953.50           1279          17.00        58.41
  240.46        2953.75           1282          17.00        58.41
  240.49        2954.00           1286          19.00        67.13
  240.52        2954.25           1289          22.00        80.21
  240.55        2954.50           1292          17.00        58.41
  240.57        2954.75           1295          18.00        62.77
  240.60        2955.00           1299          20.00        71.49
  240.63        2955.25           1302          15.00        49.69
  240.65        2955.50           1305          19.00        67.13
  240.68        2955.75           1309          21.00        75.85
  240.71        2956.00           1312          20.00        71.49
  240.74        2956.25           1315          24.00        88.93
  240.76        2956.50           1319          21.00        75.85
  240.79        2956.75           1322          22.00        80.21
  240.82        2957.00           1325          19.00        67.13
  240.84        2957.25           1329          18.00        62.77
  240.87        2957.50           1332          19.00        67.13
  240.90        2957.75           1335          17.00        58.41
  240.93        2958.00           1339          18.00        62.77
  240.95        2958.25           1342          22.00        80.21
  240.98        2958.50           1345          19.00        67.13
  241.01        2958.75           1348          19.00        67.13
  241.03        2959.00           1352          21.00        75.85
  241.06        2959.25           1355          19.00        67.13
  241.09        2959.50           1358          20.00        71.49
  241.12        2959.75           1362          22.00        80.21
  241.14        2960.00           1365          24.00        88.93
  241.17        2960.25           1368          33.00       128.16
  241.20        2960.50           1372          33.00       128.16
  241.22        2960.75           1375          39.00       154.32
  241.25        2961.00           1378         104.00       437.67
  241.28        2961.25           1382         487.00      2107.36
  241.31        2961.50           1385        1208.00      5250.99
  241.33        2961.75           1388        2426.00     10562.84
  241.36        2962.00           1392        4877.00     21256.76
  241.39        2962.25           1395        6951.00     30310.81
  241.41        2962.50           1398        9143.00     39884.97
  241.44        2962.75           1402       12068.00     52668.73
  241.47        2963.00           1405       14261.00     62259.27
  241.50        2963.25           1408       16780.00     73281.86
  241.52        2963.50           1412       19507.00     85222.31
  241.55        2963.75           1415       21916.00     95776.99
  241.58        2964.00           1418       24265.00    106074.80
  241.61        2964.25           1422       27089.00    118462.90
  241.63        2964.50           1425       29513.00    129103.20
  241.66        2964.75           1428       31829.00    139275.30
  241.69        2965.00           1431       34274.00    150020.30
  241.72        2965.25           1435       37377.00    163666.40
  241.74        2965.50           1438       39692.00    173853.90
  241.77        2965.75           1441       42107.00    184487.60
  241.80        2966.00           1445       45033.00    197379.90
  241.83        2966.25           1448       46794.00    205143.60
  241.85        2966.50           1451       48151.00    211128.50
  241.88        2966.75           1455       49145.00    215513.70
  241.91        2967.00           1458       49525.00    217190.40
  241.94        2967.25           1461       49783.00    218328.90
  241.96        2967.50           1465       49081.00    215231.30
  241.99        2967.75           1468       48805.00    214013.60
  242.02        2968.00           1471       47878.00    209924.30
  242.04        2968.25           1475       45398.00    198988.80
  242.07        2968.50           1478       43496.00    190606.60
  242.10        2968.75           1481       41074.00    179938.30
  242.13        2969.00           1485       37927.00    166086.20
  242.15        2969.25           1488       35614.00    155911.90
  242.18        2969.50           1491       33182.00    145220.50
  242.21        2969.75           1495       30128.00    131803.80
  242.24        2970.00           1498       27739.00    121315.50
  242.26        2970.25           1501       25255.00    110416.70
  242.29        2970.50           1505       22292.00     97424.96
  242.32        2970.75           1508       19915.00     87009.46
  242.35        2971.00           1511       17758.00     77563.21
  242.37        2971.25           1515       14528.00     63427.28
  242.40        2971.50           1518       12200.00     53245.85
  242.43        2971.75           1521       10065.00     43913.60
  242.45        2972.00           1525        7179.00     31306.42
  242.48        2972.25           1528        4938.00     21522.99
  242.51        2972.50           1531        3040.00     13241.18
  242.54        2972.75           1535        1244.00      5407.97
  242.56        2973.00           1538         440.00      1902.46
  242.59        2973.25           1541         138.00       585.89
  242.62        2973.50           1545          52.00       210.99
  242.65        2973.75           1548          40.00       158.68
  242.67        2974.00           1551          26.00        97.65
  242.70        2974.25           1555          31.00       119.44
  242.73        2974.50           1558          20.00        71.49
  242.75        2974.75           1561          24.00        88.93
  242.78        2975.00           1565          26.00        97.65
  242.81        2975.25           1568          25.00        93.29
  242.83        2975.50           1571          23.00        84.57
  242.86        2975.75           1575          24.00        88.93
  242.89        2976.00           1578          25.00        93.29
  242.92        2976.25           1581          20.00        71.49
  242.94        2976.50           1585          19.00        67.13
  242.97        2976.75           1588          24.00        88.93
  243.00        2977.00           1591          24.00        88.93
  243.02        2977.25           1595          20.00        71.49
  243.05        2977.50           1598          23.00        84.57
  243.08        2977.75           1601          22.00        80.21
  243.11        2978.00           1605          19.00        67.13
  243.13        2978.25           1608          21.00        75.85
  243.16        2978.50           1611          20.00        71.49
  243.19        2978.75           1615          24.00        88.93
  243.21        2979.00           1618          19.00        67.13
  243.24        2979.25           1621          18.00        62.77
  243.27        2979.50           1625          23.00        84.57
  243.30        2979.75           1628          17.00        58.41
  243.32        2980.00           1631          24.00        88.93
  243.35        2980.25           1635          21.00        75.85
  243.38        2980.50           1638          18.00        62.77
  243.40        2980.75           1641          22.00        80.21
  243.43        2981.00           1645          23.00        84.57
  243.46        2981.25           1648          18.00        62.77
  243.49        2981.50           1651          22.00        80.21
  243.51        2981.75           1655          20.00        71.49
  243.54        2982.00           1658          20.00        71.49
  243.57        2982.25           1661          18.00        62.77
  243.59        2982.50           1665          21.00        75.85
  243.62        2982.75           1668          17.00        58.41
  243.65        2983.00           1671          23.00        84.57
  243.68        2983.25           1675          20.00        71.49
  243.70        2983.50           1678          18.00        62.77
  243.73        2983.75           1681          21.00        75.85
  243.76        2984.00           1685          21.00        75.85
HS scan finished at 04:03:57
end
