************************************************************
  HS Scan of (1) Internal mercury lamp
************************************************************
Integration time is 0.2294 seconds per sample
dh131118Tamanrasset 22.79-5.529 4.974364pr865
************************************************************
Dead Time -------------------------  2.8E-08 
Number of Cycles Used -------------  4 
Starting Wavelength (Angstroms) ---  2950 
Final Wavelength (Angstoms) -------  2984 
Wavelength Increment (Angstroms) --  .25 
Filter Wheel #1 Position ---------- (1) Ground quartz diffuser (ND=2.32)
Filter Wheel #2 Position ---------- (1) Neutral Density 0.494



************************************************************
HS scan start time = 04:01:39
Dark Count =  3.6 


Time (GMT)  Wavelength (Ang)  Step Number  Raw Counts  Counts/Second

  242.01        2950.00           1233          21.00        75.85
  242.07        2950.25           1236          20.00        71.49
  242.10        2950.50           1239          20.00        71.49
  242.13        2950.75           1242          19.00        67.13
  242.16        2951.00           1246          24.00        88.93
  242.18        2951.25           1249          23.00        84.57
  242.21        2951.50           1252          22.00        80.21
  242.24        2951.75           1256          19.00        67.13
  242.26        2952.00           1259          22.00        80.21
  242.29        2952.25           1262          20.00        71.49
  242.32        2952.50           1266          18.00        62.77
  242.35        2952.75           1269          19.00        67.13
  242.37        2953.00           1272          21.00        75.85
  242.40        2953.25           1276          18.00        62.77
  242.43        2953.50           1279          20.00        71.49
  242.45        2953.75           1282          18.00        62.77
  242.48        2954.00           1286          19.00        67.13
  242.51        2954.25           1289          18.00        62.77
  242.54        2954.50           1292          20.00        71.49
  242.56        2954.75           1295          18.00        62.77
  242.59        2955.00           1299          13.00        40.98
  242.62        2955.25           1302          22.00        80.21
  242.64        2955.50           1305          14.00        45.34
  242.67        2955.75           1309          20.00        71.49
  242.70        2956.00           1312          17.00        58.41
  242.73        2956.25           1315          19.00        67.13
  242.75        2956.50           1319          19.00        67.13
  242.78        2956.75           1322          24.00        88.93
  242.81        2957.00           1325          20.00        71.49
  242.83        2957.25           1329          21.00        75.85
  242.86        2957.50           1332          20.00        71.49
  242.89        2957.75           1335          20.00        71.49
  242.92        2958.00           1339          21.00        75.85
  242.94        2958.25           1342          22.00        80.21
  242.97        2958.50           1345          22.00        80.21
  243.00        2958.75           1348          23.00        84.57
  243.02        2959.00           1352          19.00        67.13
  243.05        2959.25           1355          19.00        67.13
  243.08        2959.50           1358          22.00        80.21
  243.11        2959.75           1362          21.00        75.85
  243.13        2960.00           1365          20.00        71.49
  243.16        2960.25           1368          28.00       106.36
  243.19        2960.50           1372          27.00       102.01
  243.21        2960.75           1375          38.00       149.96
  243.24        2961.00           1378          79.00       328.69
  243.27        2961.25           1382         384.00      1658.32
  243.30        2961.50           1385         978.00      4248.11
  243.32        2961.75           1388        2040.00      8879.28
  243.35        2962.00           1392        4138.00     18031.77
  243.38        2962.25           1395        6159.00     26852.79
  243.40        2962.50           1398        8348.00     36412.00
  243.43        2962.75           1402       11128.00     48559.44
  243.46        2963.00           1405       13467.00     58786.32
  243.49        2963.25           1408       15617.00     68191.99
  243.51        2963.50           1412       18475.00     80702.65
  243.54        2963.75           1415       20711.00     90496.68
  243.57        2964.00           1418       23138.00    101133.40
  243.60        2964.25           1422       26047.00    113891.00
  243.62        2964.50           1425       28035.00    122614.70
  243.65        2964.75           1428       30566.00    133727.40
  243.68        2965.00           1431       32771.00    143414.30
  243.70        2965.25           1435       35869.00    157033.30
  243.73        2965.50           1438       38384.00    168097.10
  243.76        2965.75           1441       40556.00    177657.50
  243.79        2966.00           1445       43558.00    190879.70
  243.81        2966.25           1448       45427.00    199116.60
  243.84        2966.50           1451       46822.00    205267.10
  243.87        2966.75           1455       48139.00    211075.50
  243.90        2967.00           1458       48916.00    214503.30
  243.92        2967.25           1461       48923.00    214534.20
  243.95        2967.50           1465       48812.00    214044.50
  243.98        2967.75           1468       48540.00    212844.50
  244.01        2968.00           1471       47496.00    208239.40
  244.03        2968.25           1475       46021.00    201735.30
  244.06        2968.50           1478       43815.00    192012.10
  244.09        2968.75           1481       41747.00    182902.00
  244.12        2969.00           1485       38562.00    168880.40
  244.14        2969.25           1488       36121.00    158141.60
  244.17        2969.50           1491       33945.00    148574.10
  244.20        2969.75           1495       30707.00    134346.60
  244.23        2970.00           1498       28474.00    124541.70
  244.25        2970.25           1501       26091.00    114084.00
  244.28        2970.50           1505       23011.00    100576.70
  244.31        2970.75           1508       20721.00     90540.49
  244.33        2971.00           1511       18532.00     80952.26
  244.36        2971.25           1515       15288.00     66752.38
  244.39        2971.50           1518       12984.00     56674.00
  244.42        2971.75           1521       10662.00     46522.64
  244.44        2972.00           1525        7993.00     34861.39
  244.47        2972.25           1528        5753.00     25080.38
  244.50        2972.50           1531        3679.00     16028.99
  244.53        2972.75           1535        1655.00      7200.23
  244.55        2973.00           1538         690.00      2992.40
  244.58        2973.25           1541         218.00       934.64
  244.61        2973.50           1545          55.00       224.06
  244.63        2973.75           1548          37.00       145.60
  244.66        2974.00           1551          30.00       115.08
  244.69        2974.25           1555          25.00        93.29
  244.72        2974.50           1558          22.00        80.21
  244.74        2974.75           1561          23.00        84.57
  244.77        2975.00           1565          23.00        84.57
  244.80        2975.25           1568          22.00        80.21
  244.82        2975.50           1571          20.00        71.49
  244.85        2975.75           1575          26.00        97.65
  244.88        2976.00           1578          24.00        88.93
  244.91        2976.25           1581          25.00        93.29
  244.93        2976.50           1585          23.00        84.57
  244.96        2976.75           1588          19.00        67.13
  244.99        2977.00           1591          15.00        49.69
  245.02        2977.25           1595          21.00        75.85
  245.04        2977.50           1598          23.00        84.57
  245.07        2977.75           1601          16.00        54.05
  245.10        2978.00           1605          21.00        75.85
  245.12        2978.25           1608          21.00        75.85
  245.15        2978.50           1611          22.00        80.21
  245.18        2978.75           1615          22.00        80.21
  245.21        2979.00           1618          19.00        67.13
  245.23        2979.25           1621          22.00        80.21
  245.26        2979.50           1625          24.00        88.93
  245.29        2979.75           1628          16.00        54.05
  245.31        2980.00           1631          17.00        58.41
  245.34        2980.25           1635          22.00        80.21
  245.37        2980.50           1638          22.00        80.21
  245.40        2980.75           1641          23.00        84.57
  245.42        2981.00           1645          21.00        75.85
  245.45        2981.25           1648          17.00        58.41
  245.48        2981.50           1651          23.00        84.57
  245.50        2981.75           1655          23.00        84.57
  245.53        2982.00           1658          20.00        71.49
  245.56        2982.25           1661          20.00        71.49
  245.59        2982.50           1665          17.00        58.41
  245.61        2982.75           1668          21.00        75.85
  245.64        2983.00           1671          21.00        75.85
  245.67        2983.25           1675          22.00        80.21
  245.69        2983.50           1678          20.00        71.49
  245.72        2983.75           1681          22.00        80.21
  245.75        2984.00           1685          19.00        67.13
HS scan finished at 04:05:56
end
