************************************************************
  HS Scan of (1) Internal mercury lamp
************************************************************
Integration time is 0.2294 seconds per sample
dh071118Tamanrasset 22.79-5.529 4.974364pr865
************************************************************
Dead Time -------------------------  2.8E-08 
Number of Cycles Used -------------  4 
Starting Wavelength (Angstroms) ---  2950 
Final Wavelength (Angstoms) -------  2984 
Wavelength Increment (Angstroms) --  .25 
Filter Wheel #1 Position ---------- (1) Ground quartz diffuser (ND=2.32)
Filter Wheel #2 Position ---------- (1) Neutral Density 0.494



************************************************************
HS scan start time = 03:58:57
Dark Count =  4.3 


Time (GMT)  Wavelength (Ang)  Step Number  Raw Counts  Counts/Second

  239.30        2950.00           1233          20.00        68.44
  239.37        2950.25           1236          21.00        72.80
  239.39        2950.50           1239          16.00        51.00
  239.42        2950.75           1242          19.00        64.08
  239.45        2951.00           1246          22.00        77.16
  239.47        2951.25           1249          25.00        90.24
  239.50        2951.50           1252          15.00        46.64
  239.53        2951.75           1256          17.00        55.36
  239.56        2952.00           1259          21.00        72.80
  239.58        2952.25           1262          22.00        77.16
  239.61        2952.50           1266          19.00        64.08
  239.64        2952.75           1269          22.00        77.16
  239.66        2953.00           1272          18.00        59.72
  239.69        2953.25           1276          20.00        68.44
  239.72        2953.50           1279          19.00        64.08
  239.75        2953.75           1282          17.00        55.36
  239.77        2954.00           1286          18.00        59.72
  239.80        2954.25           1289          19.00        64.08
  239.83        2954.50           1292          21.00        72.80
  239.86        2954.75           1295          19.00        64.08
  239.88        2955.00           1299          17.00        55.36
  239.91        2955.25           1302          16.00        51.00
  239.94        2955.50           1305          19.00        64.08
  239.96        2955.75           1309          19.00        64.08
  239.99        2956.00           1312          16.00        51.00
  240.02        2956.25           1315          21.00        72.80
  240.05        2956.50           1319          17.00        55.36
  240.07        2956.75           1322          24.00        85.88
  240.10        2957.00           1325          17.00        55.36
  240.13        2957.25           1329          18.00        59.72
  240.15        2957.50           1332          17.00        55.36
  240.18        2957.75           1335          18.00        59.72
  240.21        2958.00           1339          20.00        68.44
  240.24        2958.25           1342          18.00        59.72
  240.26        2958.50           1345          18.00        59.72
  240.29        2958.75           1348          21.00        72.80
  240.32        2959.00           1352          20.00        68.44
  240.34        2959.25           1355          16.00        51.00
  240.37        2959.50           1358          20.00        68.44
  240.40        2959.75           1362          25.00        90.24
  240.43        2960.00           1365          25.00        90.24
  240.45        2960.25           1368          27.00        98.95
  240.48        2960.50           1372          32.00       120.75
  240.51        2960.75           1375          34.00       129.47
  240.54        2961.00           1378          74.00       303.84
  240.56        2961.25           1382         375.00      1616.03
  240.59        2961.50           1385         935.00      4057.57
  240.62        2961.75           1388        2098.00      9129.19
  240.64        2962.00           1392        4364.00     19014.92
  240.67        2962.25           1395        6480.00     28251.20
  240.70        2962.50           1398        8876.00     38715.44
  240.73        2962.75           1402       11788.00     51441.53
  240.75        2963.00           1405       13994.00     61088.28
  240.78        2963.25           1408       16486.00     71991.97
  240.81        2963.50           1412       19462.00     85022.12
  240.83        2963.75           1415       21928.00     95826.52
  240.86        2964.00           1418       24265.00    106071.80
  240.89        2964.25           1422       27293.00    119355.10
  240.92        2964.50           1425       29517.00    129117.70
  240.94        2964.75           1428       32032.00    140164.10
  240.97        2965.00           1431       34480.00    150922.90
  241.00        2965.25           1435       37467.00    164059.20
  241.03        2965.50           1438       40182.00    176007.80
  241.05        2965.75           1441       42406.00    185801.50
  241.08        2966.00           1445       45762.00    200590.30
  241.11        2966.25           1448       47749.00    209352.20
  241.14        2966.50           1451       49277.00    216093.00
  241.16        2966.75           1455       50879.00    223163.00
  241.19        2967.00           1458       51503.00    225917.60
  241.22        2967.25           1461       51361.00    225290.70
  241.24        2967.50           1465       51396.00    225445.20
  241.27        2967.75           1468       50792.00    222779.00
  241.30        2968.00           1471       50078.00    219627.70
  241.33        2968.25           1475       48440.00    212400.20
  241.35        2968.50           1478       46285.00    202896.10
  241.38        2968.75           1481       43890.00    192339.50
  241.41        2969.00           1485       40898.00    179160.20
  241.44        2969.25           1488       38268.00    167583.60
  241.46        2969.50           1491       35712.00    156339.80
  241.49        2969.75           1495       32370.00    141649.20
  241.52        2970.00           1498       29828.00    130483.30
  241.55        2970.25           1501       27471.00    120136.20
  241.57        2970.50           1505       24310.00    106269.10
  241.60        2970.75           1508       21846.00     95467.13
  241.63        2971.00           1511       19215.00     83940.30
  241.66        2971.25           1515       16287.00     71121.01
  241.68        2971.50           1518       13977.00     61013.91
  241.71        2971.75           1521       11803.00     51507.10
  241.74        2972.00           1525        8530.00     37203.95
  241.76        2972.25           1528        6160.00     26854.10
  241.79        2972.50           1531        4043.00     17614.18
  241.82        2972.75           1535        1839.00      7999.61
  241.85        2973.00           1538         753.00      3264.03
  241.87        2973.25           1541         258.00      1105.96
  241.90        2973.50           1545          59.00       238.45
  241.93        2973.75           1548          38.00       146.91
  241.96        2974.00           1551          28.00       103.31
  241.98        2974.25           1555          30.00       112.03
  242.01        2974.50           1558          27.00        98.95
  242.04        2974.75           1561          28.00       103.31
  242.06        2975.00           1565          22.00        77.16
  242.09        2975.25           1568          20.00        68.44
  242.12        2975.50           1571          22.00        77.16
  242.14        2975.75           1575          22.00        77.16
  242.17        2976.00           1578          16.00        51.00
  242.20        2976.25           1581          24.00        85.88
  242.23        2976.50           1585          22.00        77.16
  242.25        2976.75           1588          28.00       103.31
  242.28        2977.00           1591          26.00        94.59
  242.31        2977.25           1595          22.00        77.16
  242.33        2977.50           1598          20.00        68.44
  242.36        2977.75           1601          22.00        77.16
  242.39        2978.00           1605          18.00        59.72
  242.42        2978.25           1608          19.00        64.08
  242.44        2978.50           1611          16.00        51.00
  242.47        2978.75           1615          21.00        72.80
  242.50        2979.00           1618          22.00        77.16
  242.52        2979.25           1621          19.00        64.08
  242.55        2979.50           1625          19.00        64.08
  242.58        2979.75           1628          20.00        68.44
  242.61        2980.00           1631          18.00        59.72
  242.63        2980.25           1635          23.00        81.52
  242.66        2980.50           1638          26.00        94.59
  242.69        2980.75           1641          22.00        77.16
  242.71        2981.00           1645          21.00        72.80
  242.74        2981.25           1648          19.00        64.08
  242.77        2981.50           1651          21.00        72.80
  242.80        2981.75           1655          23.00        81.52
  242.82        2982.00           1658          19.00        64.08
  242.85        2982.25           1661          19.00        64.08
  242.88        2982.50           1665          24.00        85.88
  242.90        2982.75           1668          18.00        59.72
  242.93        2983.00           1671          26.00        94.59
  242.96        2983.25           1675          19.00        64.08
  242.99        2983.50           1678          18.00        59.72
  243.01        2983.75           1681          25.00        90.24
  243.04        2984.00           1685          15.00        46.64
HS scan finished at 04:03:14
end
