************************************************************
  HS Scan of (1) Internal mercury lamp
************************************************************
Integration time is 0.2294 seconds per sample
dh111118Tamanrasset 22.79-5.529 4.974364pr865
************************************************************
Dead Time -------------------------  2.8E-08 
Number of Cycles Used -------------  4 
Starting Wavelength (Angstroms) ---  2950 
Final Wavelength (Angstoms) -------  2984 
Wavelength Increment (Angstroms) --  .25 
Filter Wheel #1 Position ---------- (1) Ground quartz diffuser (ND=2.32)
Filter Wheel #2 Position ---------- (1) Neutral Density 0.494



************************************************************
HS scan start time = 04:00:02
Dark Count =  1.3 


Time (GMT)  Wavelength (Ang)  Step Number  Raw Counts  Counts/Second

  240.39        2950.00           1233          19.00        77.16
  240.45        2950.25           1236          19.00        77.16
  240.48        2950.50           1239          21.00        85.88
  240.51        2950.75           1242          26.00       107.67
  240.53        2951.00           1246          20.00        81.52
  240.56        2951.25           1249          30.00       125.11
  240.59        2951.50           1252          20.00        81.52
  240.61        2951.75           1256          16.00        64.08
  240.64        2952.00           1259          22.00        90.24
  240.67        2952.25           1262          17.00        68.44
  240.70        2952.50           1266          22.00        90.24
  240.72        2952.75           1269          20.00        81.52
  240.75        2953.00           1272          15.00        59.72
  240.78        2953.25           1276          18.00        72.80
  240.80        2953.50           1279          19.00        77.16
  240.83        2953.75           1282          19.00        77.16
  240.86        2954.00           1286          21.00        85.88
  240.89        2954.25           1289          20.00        81.52
  240.91        2954.50           1292          21.00        85.88
  240.94        2954.75           1295          20.00        81.52
  240.97        2955.00           1299          19.00        77.16
  240.99        2955.25           1302          16.00        64.08
  241.02        2955.50           1305          20.00        81.52
  241.05        2955.75           1309          21.00        85.88
  241.08        2956.00           1312          16.00        64.08
  241.10        2956.25           1315          18.00        72.80
  241.13        2956.50           1319          18.00        72.80
  241.16        2956.75           1322          19.00        77.16
  241.19        2957.00           1325          20.00        81.52
  241.21        2957.25           1329          18.00        72.80
  241.24        2957.50           1332          18.00        72.80
  241.27        2957.75           1335          20.00        81.52
  241.29        2958.00           1339          22.00        90.24
  241.32        2958.25           1342          20.00        81.52
  241.35        2958.50           1345          21.00        85.88
  241.38        2958.75           1348          20.00        81.52
  241.40        2959.00           1352          16.00        64.08
  241.43        2959.25           1355          21.00        85.88
  241.46        2959.50           1358          23.00        94.59
  241.48        2959.75           1362          22.00        90.24
  241.51        2960.00           1365          26.00       107.67
  241.54        2960.25           1368          32.00       133.83
  241.57        2960.50           1372          28.00       116.39
  241.59        2960.75           1375          43.00       181.78
  241.62        2961.00           1378         124.00       534.88
  241.65        2961.25           1382         557.00      2422.57
  241.67        2961.50           1385        1337.00      5823.53
  241.70        2961.75           1388        2557.00     11144.28
  241.73        2962.00           1392        4954.00     21602.87
  241.76        2962.25           1395        6940.00     30272.82
  241.78        2962.50           1398        9167.00     39999.88
  241.81        2962.75           1402       11916.00     52014.24
  241.84        2963.00           1405       14127.00     61683.17
  241.87        2963.25           1408       16386.00     71567.43
  241.89        2963.50           1412       19151.00     83673.13
  241.92        2963.75           1415       21603.00     94415.36
  241.95        2964.00           1418       23717.00    103682.00
  241.97        2964.25           1422       26682.00    116687.10
  242.00        2964.50           1425       28698.00    125535.10
  242.03        2964.75           1428       31008.00    135678.80
  242.06        2965.00           1431       33358.00    146004.10
  242.09        2965.25           1435       36138.00    158226.50
  242.11        2965.50           1438       38467.00    168472.40
  242.14        2965.75           1441       40591.00    177821.70
  242.17        2966.00           1445       43349.00    189969.00
  242.19        2966.25           1448       44989.00    197196.10
  242.22        2966.50           1451       46436.00    203575.10
  242.25        2966.75           1455       47599.00    208703.90
  242.28        2967.00           1458       47858.00    209846.20
  242.30        2967.25           1461       47844.00    209784.50
  242.33        2967.50           1465       47627.00    208827.40
  242.36        2967.75           1468       47001.00    206066.60
  242.39        2968.00           1471       46029.00    201780.70
  242.41        2968.25           1475       44075.00    193167.90
  242.44        2968.50           1478       41855.00    183387.80
  242.47        2968.75           1481       39789.00    174291.00
  242.49        2969.00           1485       36601.00    160262.90
  242.52        2969.25           1488       34569.00    151327.30
  242.55        2969.50           1491       32290.00    141310.90
  242.58        2969.75           1495       29052.00    127089.20
  242.60        2970.00           1498       26707.00    116796.80
  242.63        2970.25           1501       24688.00    107939.90
  242.66        2970.50           1505       21510.00     94007.81
  242.69        2970.75           1508       19219.00     83970.96
  242.71        2971.00           1511       17180.00     75042.87
  242.74        2971.25           1515       14145.00     61761.90
  242.77        2971.50           1518       11920.00     52031.72
  242.80        2971.75           1521        9791.00     42726.33
  242.82        2972.00           1525        6967.00     30390.72
  242.85        2972.25           1528        4803.00     20943.84
  242.88        2972.50           1531        2973.00     12958.93
  242.90        2972.75           1535        1208.00      5261.02
  242.93        2973.00           1538         437.00      1899.40
  242.96        2973.25           1541         141.00       608.99
  242.99        2973.50           1545          49.00       207.93
  243.01        2973.75           1548          28.00       116.39
  243.04        2974.00           1551          38.00       159.98
  243.07        2974.25           1555          26.00       107.67
  243.10        2974.50           1558          25.00       103.31
  243.12        2974.75           1561          20.00        81.52
  243.15        2975.00           1565          21.00        85.88
  243.18        2975.25           1568          22.00        90.24
  243.20        2975.50           1571          22.00        90.24
  243.23        2975.75           1575          24.00        98.95
  243.26        2976.00           1578          23.00        94.59
  243.28        2976.25           1581          21.00        85.88
  243.31        2976.50           1585          18.00        72.80
  243.34        2976.75           1588          19.00        77.16
  243.37        2977.00           1591          20.00        81.52
  243.39        2977.25           1595          19.00        77.16
  243.42        2977.50           1598          22.00        90.24
  243.45        2977.75           1601          18.00        72.80
  243.48        2978.00           1605          22.00        90.24
  243.50        2978.25           1608          18.00        72.80
  243.53        2978.50           1611          20.00        81.52
  243.56        2978.75           1615          23.00        94.59
  243.58        2979.00           1618          21.00        85.88
  243.61        2979.25           1621          25.00       103.31
  243.64        2979.50           1625          21.00        85.88
  243.66        2979.75           1628          20.00        81.52
  243.69        2980.00           1631          22.00        90.24
  243.72        2980.25           1635          20.00        81.52
  243.75        2980.50           1638          23.00        94.59
  243.77        2980.75           1641          21.00        85.88
  243.80        2981.00           1645          21.00        85.88
  243.83        2981.25           1648          20.00        81.52
  243.85        2981.50           1651          20.00        81.52
  243.88        2981.75           1655          19.00        77.16
  243.91        2982.00           1658          22.00        90.24
  243.94        2982.25           1661          16.00        64.08
  243.96        2982.50           1665          23.00        94.59
  243.99        2982.75           1668          20.00        81.52
  244.02        2983.00           1671          25.00       103.31
  244.04        2983.25           1675          19.00        77.16
  244.07        2983.50           1678          23.00        94.59
  244.10        2983.75           1681          17.00        68.44
  244.13        2984.00           1685          16.00        64.08
HS scan finished at 04:04:19
end
