************************************************************
  HS Scan of (1) Internal mercury lamp
************************************************************
Integration time is 0.2294 seconds per sample
dh161118Tamanrasset 22.79-5.529 4.974364pr865
************************************************************
Dead Time -------------------------  2.8E-08 
Number of Cycles Used -------------  4 
Starting Wavelength (Angstroms) ---  2950 
Final Wavelength (Angstoms) -------  2984 
Wavelength Increment (Angstroms) --  .25 
Filter Wheel #1 Position ---------- (1) Ground quartz diffuser (ND=2.32)
Filter Wheel #2 Position ---------- (1) Neutral Density 0.494



************************************************************
HS scan start time = 04:04:32
Dark Count =  5.9 


Time (GMT)  Wavelength (Ang)  Step Number  Raw Counts  Counts/Second

  244.89        2950.00           1233          18.00        52.75
  244.96        2950.25           1236          17.00        48.39
  244.98        2950.50           1239          20.00        61.46
  245.01        2950.75           1242          19.00        57.11
  245.04        2951.00           1246          21.00        65.82
  245.06        2951.25           1249          21.00        65.82
  245.09        2951.50           1252          20.00        61.46
  245.12        2951.75           1256          18.00        52.75
  245.15        2952.00           1259          23.00        74.54
  245.17        2952.25           1262          18.00        52.75
  245.20        2952.50           1266          21.00        65.82
  245.23        2952.75           1269          22.00        70.18
  245.25        2953.00           1272          21.00        65.82
  245.28        2953.25           1276          17.00        48.39
  245.31        2953.50           1279          20.00        61.46
  245.34        2953.75           1282          19.00        57.11
  245.36        2954.00           1286          22.00        70.18
  245.39        2954.25           1289          21.00        65.82
  245.42        2954.50           1292          21.00        65.82
  245.44        2954.75           1295          16.00        44.03
  245.47        2955.00           1299          21.00        65.82
  245.50        2955.25           1302          24.00        78.90
  245.53        2955.50           1305          22.00        70.18
  245.55        2955.75           1309          19.00        57.11
  245.58        2956.00           1312          21.00        65.82
  245.61        2956.25           1315          18.00        52.75
  245.63        2956.50           1319          24.00        78.90
  245.66        2956.75           1322          21.00        65.82
  245.69        2957.00           1325          19.00        57.11
  245.72        2957.25           1329          23.00        74.54
  245.74        2957.50           1332          17.00        48.39
  245.77        2957.75           1335          19.00        57.11
  245.80        2958.00           1339          16.00        44.03
  245.82        2958.25           1342          19.00        57.11
  245.85        2958.50           1345          18.00        52.75
  245.88        2958.75           1348          21.00        65.82
  245.91        2959.00           1352          18.00        52.75
  245.93        2959.25           1355          19.00        57.11
  245.96        2959.50           1358          18.00        52.75
  245.99        2959.75           1362          29.00       100.70
  246.01        2960.00           1365          26.00        87.62
  246.04        2960.25           1368          23.00        74.54
  246.07        2960.50           1372          28.00        96.34
  246.10        2960.75           1375          44.00       166.09
  246.12        2961.00           1378          92.00       375.33
  246.15        2961.25           1382         482.00      2075.54
  246.18        2961.50           1385        1149.00      4983.69
  246.20        2961.75           1388        2295.00      9981.43
  246.23        2962.00           1392        4511.00     19649.43
  246.26        2962.25           1395        6670.00     29073.79
  246.29        2962.50           1398        8844.00     38568.66
  246.31        2962.75           1402       11484.00     50105.56
  246.34        2963.00           1405       13791.00     60193.35
  246.37        2963.25           1408       16149.00     70510.04
  246.40        2963.50           1412       19114.00     83490.94
  246.42        2963.75           1415       21356.00     93312.80
  246.45        2964.00           1418       23611.00    103197.10
  246.48        2964.25           1422       26396.00    115412.00
  246.51        2964.50           1425       28332.00    123908.20
  246.53        2964.75           1428       30818.00    134824.10
  246.56        2965.00           1431       33256.00    145535.60
  246.59        2965.25           1435       36372.00    159235.40
  246.61        2965.50           1438       38797.00    169904.50
  246.64        2965.75           1441       40837.00    178884.60
  246.67        2966.00           1445       43691.00    191455.60
  246.70        2966.25           1448       45357.00    198797.90
  246.72        2966.50           1451       46979.00    205949.30
  246.75        2966.75           1455       48215.00    211400.70
  246.78        2967.00           1458       48818.00    214060.80
  246.81        2967.25           1461       48828.00    214104.90
  246.83        2967.50           1465       48739.00    213712.30
  246.86        2967.75           1468       48344.00    211969.70
  246.89        2968.00           1471       47530.00    208379.20
  246.91        2968.25           1475       45516.00    199498.90
  246.94        2968.50           1478       43162.00    189124.90
  246.97        2968.75           1481       40828.00    178845.00
  247.00        2969.00           1485       38023.00    166498.50
  247.02        2969.25           1488       35352.00    154749.70
  247.05        2969.50           1491       33314.00    145790.50
  247.08        2969.75           1495       30220.00    132197.70
  247.11        2970.00           1498       27998.00    122442.20
  247.13        2970.25           1501       25539.00    111652.40
  247.16        2970.50           1505       22556.00     98572.04
  247.19        2970.75           1508       20099.00     87805.41
  247.22        2971.00           1511       18050.00     78831.61
  247.24        2971.25           1515       14798.00     64598.43
  247.27        2971.50           1518       12575.00     54875.45
  247.30        2971.75           1521       10450.00     45586.05
  247.32        2972.00           1525        7497.00     32685.09
  247.35        2972.25           1528        5269.00     22957.65
  247.38        2972.50           1531        3378.00     14705.71
  247.41        2972.75           1535        1433.00      6222.10
  247.43        2973.00           1538         593.00      2559.47
  247.46        2973.25           1541         169.00       711.00
  247.49        2973.50           1545          53.00       205.32
  247.52        2973.75           1548          32.00       113.78
  247.54        2974.00           1551          32.00       113.78
  247.57        2974.25           1555          29.00       100.70
  247.60        2974.50           1558          24.00        78.90
  247.62        2974.75           1561          27.00        91.98
  247.65        2975.00           1565          22.00        70.18
  247.68        2975.25           1568          19.00        57.11
  247.71        2975.50           1571          20.00        61.46
  247.73        2975.75           1575          25.00        83.26
  247.76        2976.00           1578          21.00        65.82
  247.79        2976.25           1581          21.00        65.82
  247.81        2976.50           1585          21.00        65.82
  247.84        2976.75           1588          18.00        52.75
  247.87        2977.00           1591          26.00        87.62
  247.90        2977.25           1595          25.00        83.26
  247.92        2977.50           1598          16.00        44.03
  247.95        2977.75           1601          25.00        83.26
  247.98        2978.00           1605          23.00        74.54
  248.00        2978.25           1608          18.00        52.75
  248.03        2978.50           1611          20.00        61.46
  248.06        2978.75           1615          18.00        52.75
  248.09        2979.00           1618          25.00        83.26
  248.11        2979.25           1621          26.00        87.62
  248.14        2979.50           1625          17.00        48.39
  248.17        2979.75           1628          24.00        78.90
  248.19        2980.00           1631          20.00        61.46
  248.22        2980.25           1635          24.00        78.90
  248.25        2980.50           1638          23.00        74.54
  248.28        2980.75           1641          20.00        61.46
  248.30        2981.00           1645          23.00        74.54
  248.33        2981.25           1648          21.00        65.82
  248.36        2981.50           1651          16.00        44.03
  248.38        2981.75           1655          22.00        70.18
  248.41        2982.00           1658          21.00        65.82
  248.44        2982.25           1661          20.00        61.46
  248.47        2982.50           1665          19.00        57.11
  248.49        2982.75           1668          21.00        65.82
  248.52        2983.00           1671          18.00        52.75
  248.55        2983.25           1675          22.00        70.18
  248.57        2983.50           1678          18.00        52.75
  248.60        2983.75           1681          19.00        57.11
  248.63        2984.00           1685          21.00        65.82
HS scan finished at 04:08:49
end
