************************************************************
  HS Scan of (1) Internal mercury lamp
************************************************************
Integration time is 0.2294 seconds per sample
dh221118Tamanrasset 22.79-5.529 4.974364pr865
************************************************************
Dead Time -------------------------  2.8E-08 
Number of Cycles Used -------------  4 
Starting Wavelength (Angstroms) ---  2950 
Final Wavelength (Angstoms) -------  2984 
Wavelength Increment (Angstroms) --  .25 
Filter Wheel #1 Position ---------- (1) Ground quartz diffuser (ND=2.32)
Filter Wheel #2 Position ---------- (1) Neutral Density 0.494



************************************************************
HS scan start time = 04:08:00
Dark Count =  3.7 


Time (GMT)  Wavelength (Ang)  Step Number  Raw Counts  Counts/Second

  248.35        2950.00           1233          24.00        88.49
  248.42        2950.25           1236          21.00        75.41
  248.44        2950.50           1239          20.00        71.06
  248.47        2950.75           1242          22.00        79.77
  248.50        2951.00           1246          21.00        75.41
  248.52        2951.25           1249          16.00        53.62
  248.55        2951.50           1252          14.00        44.90
  248.58        2951.75           1256          20.00        71.06
  248.61        2952.00           1259          12.00        36.18
  248.63        2952.25           1262          19.00        66.70
  248.66        2952.50           1266          19.00        66.70
  248.69        2952.75           1269          21.00        75.41
  248.71        2953.00           1272          18.00        62.34
  248.74        2953.25           1276          20.00        71.06
  248.77        2953.50           1279          18.00        62.34
  248.80        2953.75           1282          19.00        66.70
  248.82        2954.00           1286          21.00        75.41
  248.85        2954.25           1289          21.00        75.41
  248.88        2954.50           1292          22.00        79.77
  248.90        2954.75           1295          17.00        57.98
  248.93        2955.00           1299          21.00        75.41
  248.96        2955.25           1302          25.00        92.85
  248.99        2955.50           1305          19.00        66.70
  249.01        2955.75           1309          23.00        84.13
  249.04        2956.00           1312          21.00        75.41
  249.07        2956.25           1315          21.00        75.41
  249.09        2956.50           1319          22.00        79.77
  249.12        2956.75           1322          20.00        71.06
  249.15        2957.00           1325          21.00        75.41
  249.18        2957.25           1329          17.00        57.98
  249.20        2957.50           1332          21.00        75.41
  249.23        2957.75           1335          18.00        62.34
  249.26        2958.00           1339          20.00        71.06
  249.28        2958.25           1342          21.00        75.41
  249.31        2958.50           1345          14.00        44.90
  249.34        2958.75           1348          23.00        84.13
  249.37        2959.00           1352          21.00        75.41
  249.39        2959.25           1355          17.00        57.98
  249.42        2959.50           1358          22.00        79.77
  249.45        2959.75           1362          22.00        79.77
  249.47        2960.00           1365          18.00        62.34
  249.50        2960.25           1368          29.00       110.29
  249.53        2960.50           1372          28.00       105.93
  249.56        2960.75           1375          40.00       158.24
  249.58        2961.00           1378          71.00       293.38
  249.61        2961.25           1382         392.00      1692.76
  249.64        2961.50           1385        1011.00      4391.56
  249.67        2961.75           1388        2040.00      8878.84
  249.69        2962.00           1392        4126.00     17978.97
  249.72        2962.25           1395        6230.00     27162.32
  249.75        2962.50           1398        8448.00     36848.37
  249.77        2962.75           1402       11245.00     49070.43
  249.80        2963.00           1405       13544.00     59122.64
  249.83        2963.25           1408       15948.00     69640.02
  249.86        2963.50           1412       18769.00     81989.68
  249.88        2963.75           1415       20966.00     91613.52
  249.91        2964.00           1418       23408.00    102316.70
  249.94        2964.25           1422       26433.00    115584.00
  249.97        2964.50           1425       28792.00    125937.20
  249.99        2964.75           1428       31551.00    138053.60
  250.02        2965.00           1431       33612.00    147110.00
  250.05        2965.25           1435       36541.00    159988.40
  250.08        2965.50           1438       38849.00    170143.00
  250.10        2965.75           1441       40996.00    179594.40
  250.13        2966.00           1445       44226.00    193822.80
  250.16        2966.25           1448       46196.00    202506.40
  250.18        2966.50           1451       47824.00    209685.70
  250.21        2966.75           1455       49007.00    214904.40
  250.24        2967.00           1458       49630.00    217653.30
  250.27        2967.25           1461       49959.00    219105.10
  250.29        2967.50           1465       49804.00    218421.10
  250.32        2967.75           1468       49143.00    215504.40
  250.35        2968.00           1471       48139.00    211075.10
  250.38        2968.25           1475       46232.00    202665.10
  250.40        2968.50           1478       44376.00    194483.80
  250.43        2968.75           1481       42018.00    184095.20
  250.46        2969.00           1485       39199.00    171683.40
  250.49        2969.25           1488       36594.00    160221.60
  250.51        2969.50           1491       34234.00    149844.00
  250.54        2969.75           1495       31010.00    135677.10
  250.57        2970.00           1498       28513.00    124712.40
  250.60        2970.25           1501       26167.00    114417.00
  250.62        2970.50           1505       22912.00    100142.20
  250.65        2970.75           1508       20773.00     90767.89
  250.68        2971.00           1511       18427.00     80492.02
  250.71        2971.25           1515       15491.00     67640.19
  250.73        2971.50           1518       12911.00     56354.33
  250.76        2971.75           1521       10669.00     46552.79
  250.79        2972.00           1525        7774.00     33904.45
  250.81        2972.25           1528        5488.00     23923.17
  250.84        2972.50           1531        3531.00     15382.82
  250.87        2972.75           1535        1574.00      6846.56
  250.90        2973.00           1538         644.00      2791.41
  250.92        2973.25           1541         205.00       877.53
  250.95        2973.50           1545          61.00       249.78
  250.98        2973.75           1548          41.00       162.60
  251.00        2974.00           1551          32.00       123.37
  251.03        2974.25           1555          26.00        97.21
  251.06        2974.50           1558          28.00       105.93
  251.09        2974.75           1561          23.00        84.13
  251.11        2975.00           1565          23.00        84.13
  251.14        2975.25           1568          22.00        79.77
  251.17        2975.50           1571          23.00        84.13
  251.19        2975.75           1575          22.00        79.77
  251.22        2976.00           1578          19.00        66.70
  251.25        2976.25           1581          19.00        66.70
  251.28        2976.50           1585          22.00        79.77
  251.30        2976.75           1588          27.00       101.57
  251.33        2977.00           1591          24.00        88.49
  251.36        2977.25           1595          22.00        79.77
  251.38        2977.50           1598          28.00       105.93
  251.41        2977.75           1601          23.00        84.13
  251.44        2978.00           1605          22.00        79.77
  251.47        2978.25           1608          22.00        79.77
  251.49        2978.50           1611          20.00        71.06
  251.52        2978.75           1615          18.00        62.34
  251.55        2979.00           1618          23.00        84.13
  251.57        2979.25           1621          24.00        88.49
  251.60        2979.50           1625          23.00        84.13
  251.63        2979.75           1628          19.00        66.70
  251.66        2980.00           1631          24.00        88.49
  251.68        2980.25           1635          20.00        71.06
  251.71        2980.50           1638          16.00        53.62
  251.74        2980.75           1641          22.00        79.77
  251.76        2981.00           1645          20.00        71.06
  251.79        2981.25           1648          18.00        62.34
  251.82        2981.50           1651          16.00        53.62
  251.85        2981.75           1655          19.00        66.70
  251.87        2982.00           1658          17.00        57.98
  251.90        2982.25           1661          21.00        75.41
  251.93        2982.50           1665          21.00        75.41
  251.95        2982.75           1668          20.00        71.06
  251.98        2983.00           1671          24.00        88.49
  252.01        2983.25           1675          23.00        84.13
  252.04        2983.50           1678          19.00        66.70
  252.06        2983.75           1681          16.00        53.62
  252.09        2984.00           1685          20.00        71.06
HS scan finished at 04:12:17
end
