************************************************************
  HS Scan of (1) Internal mercury lamp
************************************************************
Integration time is 0.2294 seconds per sample
dh171118Tamanrasset 22.79-5.529 4.974364pr865
************************************************************
Dead Time -------------------------  2.8E-08 
Number of Cycles Used -------------  4 
Starting Wavelength (Angstroms) ---  2950 
Final Wavelength (Angstoms) -------  2984 
Wavelength Increment (Angstroms) --  .25 
Filter Wheel #1 Position ---------- (1) Ground quartz diffuser (ND=2.32)
Filter Wheel #2 Position ---------- (1) Neutral Density 0.494



************************************************************
HS scan start time = 04:03:39
Dark Count =  4.3 


Time (GMT)  Wavelength (Ang)  Step Number  Raw Counts  Counts/Second

  244.00        2950.00           1233          18.00        59.72
  244.07        2950.25           1236          20.00        68.44
  244.09        2950.50           1239          24.00        85.88
  244.12        2950.75           1242          21.00        72.80
  244.15        2951.00           1246          18.00        59.72
  244.17        2951.25           1249          20.00        68.44
  244.20        2951.50           1252          19.00        64.08
  244.23        2951.75           1256          16.00        51.00
  244.26        2952.00           1259          18.00        59.72
  244.28        2952.25           1262          18.00        59.72
  244.31        2952.50           1266          21.00        72.80
  244.34        2952.75           1269          19.00        64.08
  244.36        2953.00           1272          17.00        55.36
  244.39        2953.25           1276          23.00        81.52
  244.42        2953.50           1279          21.00        72.80
  244.45        2953.75           1282          20.00        68.44
  244.47        2954.00           1286          18.00        59.72
  244.50        2954.25           1289          18.00        59.72
  244.53        2954.50           1292          21.00        72.80
  244.55        2954.75           1295          17.00        55.36
  244.58        2955.00           1299          22.00        77.16
  244.61        2955.25           1302          17.00        55.36
  244.64        2955.50           1305          17.00        55.36
  244.66        2955.75           1309          20.00        68.44
  244.69        2956.00           1312          17.00        55.36
  244.72        2956.25           1315          19.00        64.08
  244.74        2956.50           1319          20.00        68.44
  244.77        2956.75           1322          20.00        68.44
  244.80        2957.00           1325          20.00        68.44
  244.83        2957.25           1329          17.00        55.36
  244.85        2957.50           1332          19.00        64.08
  244.88        2957.75           1335          18.00        59.72
  244.91        2958.00           1339          16.00        51.00
  244.93        2958.25           1342          24.00        85.88
  244.96        2958.50           1345          21.00        72.80
  244.99        2958.75           1348          19.00        64.08
  245.02        2959.00           1352          17.00        55.36
  245.04        2959.25           1355          20.00        68.44
  245.07        2959.50           1358          24.00        85.88
  245.10        2959.75           1362          23.00        81.52
  245.12        2960.00           1365          18.00        59.72
  245.15        2960.25           1368          29.00       107.67
  245.18        2960.50           1372          28.00       103.31
  245.21        2960.75           1375          38.00       146.91
  245.23        2961.00           1378          99.00       412.82
  245.26        2961.25           1382         464.00      2004.04
  245.29        2961.50           1385        1165.00      5060.44
  245.31        2961.75           1388        2344.00     10202.13
  245.34        2962.00           1392        4802.00     20926.38
  245.37        2962.25           1395        7070.00     30827.39
  245.40        2962.50           1398        9395.00     40982.93
  245.42        2962.75           1402       12529.00     54681.31
  245.45        2963.00           1405       14965.00     65336.07
  245.48        2963.25           1408       17460.00     76255.50
  245.51        2963.50           1412       20707.00     90476.08
  245.53        2963.75           1415       23155.00    101204.90
  245.56        2964.00           1418       25463.00    111326.00
  245.59        2964.25           1422       28805.00    125991.60
  245.62        2964.50           1425       31081.00    135986.30
  245.64        2964.75           1428       33811.00    147982.00
  245.67        2965.00           1431       35966.00    157456.80
  245.70        2965.25           1435       39487.00    172948.40
  245.72        2965.50           1438       41908.00    183608.00
  245.75        2965.75           1441       44311.00    194194.70
  245.78        2966.00           1445       47665.00    208981.70
  245.81        2966.25           1448       49929.00    218970.10
  245.83        2966.50           1451       51327.00    225140.60
  245.86        2966.75           1455       52733.00    231348.60
  245.89        2967.00           1458       53430.00    234427.00
  245.92        2967.25           1461       53540.00    234912.80
  245.94        2967.50           1465       53210.00    233455.20
  245.97        2967.75           1468       52905.00    232108.20
  246.00        2968.00           1471       52086.00    228491.60
  246.03        2968.25           1475       50081.00    219640.90
  246.05        2968.50           1478       47916.00    210088.80
  246.08        2968.75           1481       45511.00    199483.90
  246.11        2969.00           1485       42004.00    184030.90
  246.14        2969.25           1488       39384.00    172495.00
  246.16        2969.50           1491       36855.00    161367.00
  246.19        2969.75           1495       33425.00    146285.40
  246.22        2970.00           1498       30886.00    135129.80
  246.24        2970.25           1501       28274.00    123660.70
  246.27        2970.50           1505       24700.00    107979.40
  246.30        2970.75           1508       22275.00     97347.37
  246.33        2971.00           1511       19908.00     86975.72
  246.35        2971.25           1515       16591.00     72451.53
  246.38        2971.50           1518       14095.00     61530.07
  246.41        2971.75           1521       11791.00     51454.64
  246.44        2972.00           1525        8420.00     36723.45
  246.46        2972.25           1528        6227.00     27146.61
  246.49        2972.50           1531        3929.00     17116.75
  246.52        2972.75           1535        1686.00      7332.37
  246.54        2973.00           1538         634.00      2745.20
  246.57        2973.25           1541         211.00       901.07
  246.60        2973.50           1545          59.00       238.45
  246.63        2973.75           1548          35.00       133.83
  246.65        2974.00           1551          29.00       107.67
  246.68        2974.25           1555          28.00       103.31
  246.71        2974.50           1558          24.00        85.88
  246.73        2974.75           1561          23.00        81.52
  246.76        2975.00           1565          24.00        85.88
  246.79        2975.25           1568          20.00        68.44
  246.82        2975.50           1571          23.00        81.52
  246.84        2975.75           1575          25.00        90.24
  246.87        2976.00           1578          22.00        77.16
  246.90        2976.25           1581          22.00        77.16
  246.92        2976.50           1585          25.00        90.24
  246.95        2976.75           1588          20.00        68.44
  246.98        2977.00           1591          18.00        59.72
  247.01        2977.25           1595          18.00        59.72
  247.03        2977.50           1598          20.00        68.44
  247.06        2977.75           1601          15.00        46.64
  247.09        2978.00           1605          25.00        90.24
  247.11        2978.25           1608          21.00        72.80
  247.14        2978.50           1611          25.00        90.24
  247.17        2978.75           1615          19.00        64.08
  247.20        2979.00           1618          22.00        77.16
  247.22        2979.25           1621          22.00        77.16
  247.25        2979.50           1625          19.00        64.08
  247.28        2979.75           1628          19.00        64.08
  247.30        2980.00           1631          19.00        64.08
  247.33        2980.25           1635          21.00        72.80
  247.36        2980.50           1638          17.00        55.36
  247.39        2980.75           1641          20.00        68.44
  247.41        2981.00           1645          18.00        59.72
  247.44        2981.25           1648          19.00        64.08
  247.47        2981.50           1651          19.00        64.08
  247.49        2981.75           1655          21.00        72.80
  247.52        2982.00           1658          25.00        90.24
  247.55        2982.25           1661          18.00        59.72
  247.58        2982.50           1665          21.00        72.80
  247.60        2982.75           1668          21.00        72.80
  247.63        2983.00           1671          21.00        72.80
  247.66        2983.25           1675          21.00        72.80
  247.68        2983.50           1678          22.00        77.16
  247.71        2983.75           1681          20.00        68.44
  247.74        2984.00           1685          16.00        51.00
HS scan finished at 04:07:56
end
