************************************************************
  HS Scan of (1) Internal mercury lamp
************************************************************
Integration time is 0.2294 seconds per sample
dh231118Tamanrasset 22.79-5.529 4.974364pr865
************************************************************
Dead Time -------------------------  2.8E-08 
Number of Cycles Used -------------  4 
Starting Wavelength (Angstroms) ---  2950 
Final Wavelength (Angstoms) -------  2984 
Wavelength Increment (Angstroms) --  .25 
Filter Wheel #1 Position ---------- (1) Ground quartz diffuser (ND=2.32)
Filter Wheel #2 Position ---------- (1) Neutral Density 0.494



************************************************************
HS scan start time = 04:08:29
Dark Count =  4.4 


Time (GMT)  Wavelength (Ang)  Step Number  Raw Counts  Counts/Second

  248.84        2950.00           1233          21.00        72.36
  248.91        2950.25           1236          20.00        68.00
  248.94        2950.50           1239          24.00        85.44
  248.96        2950.75           1242          17.00        54.93
  248.99        2951.00           1246          20.00        68.00
  249.02        2951.25           1249          21.00        72.36
  249.04        2951.50           1252          20.00        68.00
  249.07        2951.75           1256          21.00        72.36
  249.10        2952.00           1259          19.00        63.64
  249.12        2952.25           1262          20.00        68.00
  249.15        2952.50           1266          19.00        63.64
  249.18        2952.75           1269          20.00        68.00
  249.21        2953.00           1272          18.00        59.29
  249.23        2953.25           1276          21.00        72.36
  249.26        2953.50           1279          24.00        85.44
  249.29        2953.75           1282          17.00        54.93
  249.32        2954.00           1286          19.00        63.64
  249.34        2954.25           1289          21.00        72.36
  249.37        2954.50           1292          18.00        59.29
  249.40        2954.75           1295          16.00        50.57
  249.42        2955.00           1299          20.00        68.00
  249.45        2955.25           1302          21.00        72.36
  249.48        2955.50           1305          16.00        50.57
  249.51        2955.75           1309          16.00        50.57
  249.53        2956.00           1312          21.00        72.36
  249.56        2956.25           1315          18.00        59.29
  249.59        2956.50           1319          20.00        68.00
  249.61        2956.75           1322          15.00        46.21
  249.64        2957.00           1325          20.00        68.00
  249.67        2957.25           1329          16.00        50.57
  249.70        2957.50           1332          19.00        63.64
  249.72        2957.75           1335          20.00        68.00
  249.75        2958.00           1339          16.00        50.57
  249.78        2958.25           1342          21.00        72.36
  249.80        2958.50           1345          22.00        76.72
  249.83        2958.75           1348          20.00        68.00
  249.86        2959.00           1352          22.00        76.72
  249.89        2959.25           1355          19.00        63.64
  249.91        2959.50           1358          23.00        81.08
  249.94        2959.75           1362          23.00        81.08
  249.97        2960.00           1365          28.00       102.88
  249.99        2960.25           1368          26.00        94.16
  250.02        2960.50           1372          30.00       111.60
  250.05        2960.75           1375          41.00       159.55
  250.08        2961.00           1378          79.00       325.20
  250.10        2961.25           1382         434.00      1872.81
  250.13        2961.50           1385        1065.00      4623.96
  250.16        2961.75           1388        2173.00      9455.86
  250.18        2962.00           1392        4543.00     19795.63
  250.21        2962.25           1395        6718.00     29289.92
  250.24        2962.50           1398        8950.00     39038.29
  250.27        2962.75           1402       11966.00     52219.28
  250.29        2963.00           1405       14362.00     62697.59
  250.32        2963.25           1408       16730.00     73059.51
  250.35        2963.50           1412       19869.00     86804.46
  250.38        2963.75           1415       22393.00     97864.13
  250.40        2964.00           1418       24818.00    108496.50
  250.43        2964.25           1422       28045.00    122655.00
  250.46        2964.50           1425       30065.00    131523.60
  250.48        2964.75           1428       32646.00    142861.50
  250.51        2965.00           1431       34850.00    152549.10
  250.54        2965.25           1435       38323.00    167825.20
  250.57        2965.50           1438       41002.00    179617.70
  250.59        2965.75           1441       43107.00    188889.20
  250.62        2966.00           1445       46477.00    203742.30
  250.65        2966.25           1448       48258.00    211597.00
  250.68        2966.50           1451       49897.00    218828.40
  250.70        2966.75           1455       51279.00    224928.30
  250.73        2967.00           1458       51686.00    226725.10
  250.76        2967.25           1461       51881.00    227586.00
  250.79        2967.50           1465       51944.00    227864.20
  250.81        2967.75           1468       51324.00    225127.00
  250.84        2968.00           1471       50383.00    220973.30
  250.87        2968.25           1475       48565.00    212951.30
  250.90        2968.50           1478       46539.00    204015.70
  250.92        2968.75           1481       44199.00    193700.70
  250.95        2969.00           1485       40662.00    178120.70
  250.98        2969.25           1488       38253.00    167517.10
  251.00        2969.50           1491       35686.00    156225.10
  251.03        2969.75           1495       32127.00    140581.10
  251.06        2970.00           1498       29727.00    130039.30
  251.09        2970.25           1501       27428.00    119947.10
  251.11        2970.50           1505       24061.00    105176.80
  251.14        2970.75           1508       21653.00     94620.88
  251.17        2971.00           1511       19103.00     83449.35
  251.20        2971.25           1515       16009.00     69903.91
  251.22        2971.50           1518       13697.00     59788.76
  251.25        2971.75           1521       11193.00     48840.07
  251.28        2972.00           1525        8176.00     35657.20
  251.31        2972.25           1528        5721.00     24937.20
  251.33        2972.50           1531        3604.00     15698.27
  251.36        2972.75           1535        1523.00      6621.11
  251.39        2973.00           1538         614.00      2657.56
  251.41        2973.25           1541         189.00       804.73
  251.44        2973.50           1545          47.00       185.70
  251.47        2973.75           1548          36.00       137.75
  251.50        2974.00           1551          32.00       120.31
  251.52        2974.25           1555          30.00       111.60
  251.55        2974.50           1558          26.00        94.16
  251.58        2974.75           1561          20.00        68.00
  251.60        2975.00           1565          27.00        98.52
  251.63        2975.25           1568          22.00        76.72
  251.66        2975.50           1571          25.00        89.80
  251.69        2975.75           1575          23.00        81.08
  251.71        2976.00           1578          25.00        89.80
  251.74        2976.25           1581          23.00        81.08
  251.77        2976.50           1585          22.00        76.72
  251.79        2976.75           1588          18.00        59.29
  251.82        2977.00           1591          19.00        63.64
  251.85        2977.25           1595          27.00        98.52
  251.88        2977.50           1598          21.00        72.36
  251.90        2977.75           1601          23.00        81.08
  251.93        2978.00           1605          22.00        76.72
  251.96        2978.25           1608          23.00        81.08
  251.98        2978.50           1611          18.00        59.29
  252.01        2978.75           1615          20.00        68.00
  252.04        2979.00           1618          18.00        59.29
  252.07        2979.25           1621          23.00        81.08
  252.09        2979.50           1625          24.00        85.44
  252.12        2979.75           1628          20.00        68.00
  252.15        2980.00           1631          22.00        76.72
  252.18        2980.25           1635          21.00        72.36
  252.20        2980.50           1638          20.00        68.00
  252.23        2980.75           1641          20.00        68.00
  252.26        2981.00           1645          18.00        59.29
  252.28        2981.25           1648          20.00        68.00
  252.31        2981.50           1651          16.00        50.57
  252.34        2981.75           1655          19.00        63.64
  252.37        2982.00           1658          22.00        76.72
  252.39        2982.25           1661          20.00        68.00
  252.42        2982.50           1665          20.00        68.00
  252.45        2982.75           1668          16.00        50.57
  252.47        2983.00           1671          20.00        68.00
  252.50        2983.25           1675          20.00        68.00
  252.53        2983.50           1678          20.00        68.00
  252.56        2983.75           1681          19.00        63.64
  252.58        2984.00           1685          22.00        76.72
HS scan finished at 04:12:46
end
