************************************************************
  HS Scan of (1) Internal mercury lamp
************************************************************
Integration time is 0.2294 seconds per sample
dh241118Tamanrasset 22.79-5.529 4.974364pr865
************************************************************
Dead Time -------------------------  2.8E-08 
Number of Cycles Used -------------  4 
Starting Wavelength (Angstroms) ---  2950 
Final Wavelength (Angstoms) -------  2984 
Wavelength Increment (Angstroms) --  .25 
Filter Wheel #1 Position ---------- (1) Ground quartz diffuser (ND=2.32)
Filter Wheel #2 Position ---------- (1) Neutral Density 0.494



************************************************************
HS scan start time = 04:08:35
Dark Count =  3.5 


Time (GMT)  Wavelength (Ang)  Step Number  Raw Counts  Counts/Second

  248.93        2950.00           1233          20.00        71.93
  249.00        2950.25           1236          22.00        80.65
  249.02        2950.50           1239          22.00        80.65
  249.05        2950.75           1242          17.00        58.85
  249.08        2951.00           1246          16.00        54.49
  249.10        2951.25           1249          20.00        71.93
  249.13        2951.50           1252          21.00        76.29
  249.16        2951.75           1256          18.00        63.21
  249.19        2952.00           1259          19.00        67.57
  249.21        2952.25           1262          18.00        63.21
  249.24        2952.50           1266          19.00        67.57
  249.27        2952.75           1269          16.00        54.49
  249.29        2953.00           1272          21.00        76.29
  249.32        2953.25           1276          16.00        54.49
  249.35        2953.50           1279          17.00        58.85
  249.38        2953.75           1282          20.00        71.93
  249.40        2954.00           1286          19.00        67.57
  249.43        2954.25           1289          21.00        76.29
  249.46        2954.50           1292          23.00        85.00
  249.48        2954.75           1295          21.00        76.29
  249.51        2955.00           1299          18.00        63.21
  249.54        2955.25           1302          23.00        85.00
  249.57        2955.50           1305          19.00        67.57
  249.59        2955.75           1309          17.00        58.85
  249.62        2956.00           1312          21.00        76.29
  249.65        2956.25           1315          19.00        67.57
  249.67        2956.50           1319          23.00        85.00
  249.70        2956.75           1322          22.00        80.65
  249.73        2957.00           1325          18.00        63.21
  249.76        2957.25           1329          25.00        93.72
  249.78        2957.50           1332          18.00        63.21
  249.81        2957.75           1335          17.00        58.85
  249.84        2958.00           1339          23.00        85.00
  249.86        2958.25           1342          17.00        58.85
  249.89        2958.50           1345          18.00        63.21
  249.92        2958.75           1348          21.00        76.29
  249.95        2959.00           1352          20.00        71.93
  249.97        2959.25           1355          19.00        67.57
  250.00        2959.50           1358          19.00        67.57
  250.03        2959.75           1362          24.00        89.36
  250.05        2960.00           1365          24.00        89.36
  250.08        2960.25           1368          22.00        80.65
  250.11        2960.50           1372          24.00        89.36
  250.14        2960.75           1375          45.00       180.91
  250.16        2961.00           1378         136.00       577.60
  250.19        2961.25           1382         607.00      2630.97
  250.22        2961.50           1385        1327.00      5770.33
  250.24        2961.75           1388        2597.00     11309.16
  250.27        2962.00           1392        4883.00     21283.39
  250.30        2962.25           1395        7155.00     31202.05
  250.33        2962.50           1398        9528.00     41567.53
  250.35        2962.75           1402       12606.00     55021.49
  250.38        2963.00           1405       14820.00     64705.19
  250.41        2963.25           1408       17103.00     74696.18
  250.44        2963.50           1412       19999.00     87377.87
  250.46        2963.75           1415       22301.00     97464.84
  250.49        2964.00           1418       24521.00    107197.90
  250.52        2964.25           1422       27682.00    121065.80
  250.55        2964.50           1425       29779.00    130271.60
  250.57        2964.75           1428       31951.00    139811.70
  250.60        2965.00           1431       34608.00    151489.10
  250.63        2965.25           1435       37316.00    163398.40
  250.65        2965.50           1438       39836.00    174488.20
  250.68        2965.75           1441       42364.00    185620.10
  250.71        2966.00           1445       45300.00    198557.20
  250.74        2966.25           1448       46911.00    205660.00
  250.76        2966.50           1451       48467.00    212522.90
  250.79        2966.75           1455       49064.00    215156.70
  250.82        2967.00           1458       49452.00    216868.70
  250.85        2967.25           1461       49601.00    217526.20
  250.87        2967.50           1465       49297.00    216184.80
  250.90        2967.75           1468       48717.00    213625.80
  250.93        2968.00           1471       47671.00    209011.70
  250.96        2968.25           1475       45515.00    199505.00
  250.98        2968.50           1478       43455.00    190426.30
  251.01        2968.75           1481       41088.00    180000.40
  251.04        2969.00           1485       37794.00    165501.40
  251.06        2969.25           1488       35359.00    154791.10
  251.09        2969.50           1491       33051.00    144645.20
  251.12        2969.75           1495       30019.00    131325.50
  251.15        2970.00           1498       27608.00    120741.00
  251.17        2970.25           1501       25208.00    110211.00
  251.20        2970.50           1505       22098.00     96575.09
  251.23        2970.75           1508       19661.00     85897.28
  251.26        2971.00           1511       17589.00     76823.76
  251.28        2971.25           1515       14480.00     63217.74
  251.31        2971.50           1518       12106.00     52835.30
  251.34        2971.75           1521        9768.00     42616.22
  251.37        2972.00           1525        6903.00     30101.65
  251.39        2972.25           1528        4665.00     20331.98
  251.42        2972.50           1531        2903.00     12643.97
  251.45        2972.75           1535        1105.00      4802.30
  251.47        2973.00           1538         434.00      1876.73
  251.50        2973.25           1541         132.00       560.17
  251.53        2973.50           1545          48.00       193.99
  251.56        2973.75           1548          35.00       137.32
  251.58        2974.00           1551          31.00       119.88
  251.61        2974.25           1555          33.00       128.60
  251.64        2974.50           1558          25.00        93.72
  251.66        2974.75           1561          18.00        63.21
  251.69        2975.00           1565          21.00        76.29
  251.72        2975.25           1568          20.00        71.93
  251.75        2975.50           1571          23.00        85.00
  251.77        2975.75           1575          26.00        98.08
  251.80        2976.00           1578          20.00        71.93
  251.83        2976.25           1581          22.00        80.65
  251.85        2976.50           1585          22.00        80.65
  251.88        2976.75           1588          21.00        76.29
  251.91        2977.00           1591          19.00        67.57
  251.94        2977.25           1595          20.00        71.93
  251.96        2977.50           1598          24.00        89.36
  251.99        2977.75           1601          21.00        76.29
  252.02        2978.00           1605          16.00        54.49
  252.04        2978.25           1608          21.00        76.29
  252.07        2978.50           1611          17.00        58.85
  252.10        2978.75           1615          20.00        71.93
  252.12        2979.00           1618          23.00        85.00
  252.15        2979.25           1621          24.00        89.36
  252.18        2979.50           1625          22.00        80.65
  252.21        2979.75           1628          22.00        80.65
  252.23        2980.00           1631          22.00        80.65
  252.26        2980.25           1635          24.00        89.36
  252.29        2980.50           1638          18.00        63.21
  252.31        2980.75           1641          19.00        67.57
  252.34        2981.00           1645          21.00        76.29
  252.37        2981.25           1648          20.00        71.93
  252.40        2981.50           1651          19.00        67.57
  252.42        2981.75           1655          21.00        76.29
  252.45        2982.00           1658          23.00        85.00
  252.48        2982.25           1661          23.00        85.00
  252.50        2982.50           1665          18.00        63.21
  252.53        2982.75           1668          21.00        76.29
  252.56        2983.00           1671          17.00        58.85
  252.59        2983.25           1675          15.00        50.13
  252.61        2983.50           1678          20.00        71.93
  252.64        2983.75           1681          20.00        71.93
  252.67        2984.00           1685          15.00        50.13
HS scan finished at 04:12:51
end
