************************************************************
  HS Scan of (1) Internal mercury lamp
************************************************************
Integration time is 0.2294 seconds per sample
dh201118Tamanrasset 22.79-5.529 4.974364pr865
************************************************************
Dead Time -------------------------  2.8E-08 
Number of Cycles Used -------------  4 
Starting Wavelength (Angstroms) ---  2950 
Final Wavelength (Angstoms) -------  2984 
Wavelength Increment (Angstroms) --  .25 
Filter Wheel #1 Position ---------- (1) Ground quartz diffuser (ND=2.32)
Filter Wheel #2 Position ---------- (1) Neutral Density 0.494



************************************************************
HS scan start time = 04:05:36
Dark Count =  4.8 


Time (GMT)  Wavelength (Ang)  Step Number  Raw Counts  Counts/Second

  245.95        2950.00           1233          20.00        66.26
  246.02        2950.25           1236          20.00        66.26
  246.05        2950.50           1239          22.00        74.98
  246.07        2950.75           1242          22.00        74.98
  246.10        2951.00           1246          23.00        79.34
  246.13        2951.25           1249          19.00        61.90
  246.15        2951.50           1252          18.00        57.54
  246.18        2951.75           1256          24.00        83.70
  246.21        2952.00           1259          16.00        48.82
  246.24        2952.25           1262          18.00        57.54
  246.26        2952.50           1266          20.00        66.26
  246.29        2952.75           1269          21.00        70.62
  246.32        2953.00           1272          21.00        70.62
  246.34        2953.25           1276          20.00        66.26
  246.37        2953.50           1279          19.00        61.90
  246.40        2953.75           1282          19.00        61.90
  246.43        2954.00           1286          20.00        66.26
  246.45        2954.25           1289          18.00        57.54
  246.48        2954.50           1292          24.00        83.70
  246.51        2954.75           1295          20.00        66.26
  246.53        2955.00           1299          19.00        61.90
  246.56        2955.25           1302          21.00        70.62
  246.59        2955.50           1305          23.00        79.34
  246.62        2955.75           1309          23.00        79.34
  246.64        2956.00           1312          19.00        61.90
  246.67        2956.25           1315          23.00        79.34
  246.70        2956.50           1319          23.00        79.34
  246.72        2956.75           1322          19.00        61.90
  246.75        2957.00           1325          18.00        57.54
  246.78        2957.25           1329          18.00        57.54
  246.81        2957.50           1332          27.00        96.77
  246.83        2957.75           1335          20.00        66.26
  246.86        2958.00           1339          20.00        66.26
  246.89        2958.25           1342          21.00        70.62
  246.92        2958.50           1345          19.00        61.90
  246.94        2958.75           1348          18.00        57.54
  246.97        2959.00           1352          18.00        57.54
  247.00        2959.25           1355          20.00        66.26
  247.02        2959.50           1358          19.00        61.90
  247.05        2959.75           1362          24.00        83.70
  247.08        2960.00           1365          22.00        74.98
  247.11        2960.25           1368          31.00       114.21
  247.13        2960.50           1372          33.00       122.93
  247.16        2960.75           1375          41.00       157.80
  247.19        2961.00           1378         117.00       489.11
  247.21        2961.25           1382         532.00      2298.32
  247.24        2961.50           1385        1339.00      5816.99
  247.27        2961.75           1388        2672.00     11630.64
  247.30        2962.00           1392        5297.00     23084.67
  247.32        2962.25           1395        7791.00     33973.90
  247.35        2962.50           1398       10462.00     45643.31
  247.38        2962.75           1402       13433.00     58632.37
  247.40        2963.00           1405       15940.00     69600.21
  247.43        2963.25           1408       18623.00     81345.48
  247.46        2963.50           1412       21819.00     95346.62
  247.49        2963.75           1415       24373.00    106543.20
  247.51        2964.00           1418       26999.00    118062.70
  247.54        2964.25           1422       30295.00    132531.90
  247.57        2964.50           1425       32709.00    143136.60
  247.60        2964.75           1428       35523.00    155506.50
  247.62        2965.00           1431       38135.00    166996.10
  247.65        2965.25           1435       41734.00    182839.50
  247.68        2965.50           1438       44186.00    193641.70
  247.71        2965.75           1441       46503.00    203855.10
  247.73        2966.00           1445       49913.00    218897.30
  247.76        2966.25           1448       52002.00    228118.50
  247.79        2966.50           1451       53993.00    236911.60
  247.82        2966.75           1455       55319.00    242770.20
  247.84        2967.00           1458       55588.00    243958.90
  247.87        2967.25           1461       55708.00    244489.30
  247.90        2967.50           1465       55485.00    243503.80
  247.92        2967.75           1468       55107.00    241833.40
  247.95        2968.00           1471       53840.00    236235.70
  247.98        2968.25           1475       51831.00    227363.50
  248.01        2968.50           1478       49412.00    216686.50
  248.03        2968.75           1481       46970.00    205914.40
  248.06        2969.00           1485       43588.00    191006.60
  248.09        2969.25           1488       40418.00    177044.60
  248.12        2969.50           1491       37981.00    166318.50
  248.14        2969.75           1495       34144.00    149443.60
  248.17        2970.00           1498       31753.00    138936.10
  248.20        2970.25           1501       29256.00    127969.50
  248.22        2970.50           1505       25820.00    112889.80
  248.25        2970.75           1508       23127.00    101079.90
  248.28        2971.00           1511       20460.00     89391.74
  248.31        2971.25           1515       17085.00     74611.68
  248.33        2971.50           1518       14548.00     63509.53
  248.36        2971.75           1521       12016.00     52436.13
  248.39        2972.00           1525        8557.00     37319.71
  248.42        2972.25           1528        5901.00     25721.23
  248.44        2972.50           1531        3729.00     16241.91
  248.47        2972.75           1535        1519.00      6601.92
  248.50        2973.00           1538         618.00      2673.26
  248.52        2973.25           1541         186.00       789.90
  248.55        2973.50           1545          58.00       231.91
  248.58        2973.75           1548          38.00       144.73
  248.61        2974.00           1551          30.00       109.85
  248.63        2974.25           1555          28.00       101.13
  248.66        2974.50           1558          23.00        79.34
  248.69        2974.75           1561          26.00        92.42
  248.71        2975.00           1565          22.00        74.98
  248.74        2975.25           1568          21.00        70.62
  248.77        2975.50           1571          22.00        74.98
  248.80        2975.75           1575          25.00        88.06
  248.82        2976.00           1578          18.00        57.54
  248.85        2976.25           1581          21.00        70.62
  248.88        2976.50           1585          15.00        44.46
  248.91        2976.75           1588          22.00        74.98
  248.93        2977.00           1591          22.00        74.98
  248.96        2977.25           1595          16.00        48.82
  248.99        2977.50           1598          22.00        74.98
  249.01        2977.75           1601          21.00        70.62
  249.04        2978.00           1605          22.00        74.98
  249.07        2978.25           1608          20.00        66.26
  249.09        2978.50           1611          24.00        83.70
  249.12        2978.75           1615          27.00        96.77
  249.15        2979.00           1618          23.00        79.34
  249.18        2979.25           1621          20.00        66.26
  249.20        2979.50           1625          20.00        66.26
  249.23        2979.75           1628          24.00        83.70
  249.26        2980.00           1631          16.00        48.82
  249.29        2980.25           1635          20.00        66.26
  249.31        2980.50           1638          18.00        57.54
  249.34        2980.75           1641          18.00        57.54
  249.37        2981.00           1645          20.00        66.26
  249.39        2981.25           1648          16.00        48.82
  249.42        2981.50           1651          16.00        48.82
  249.45        2981.75           1655          21.00        70.62
  249.48        2982.00           1658          28.00       101.13
  249.50        2982.25           1661          15.00        44.46
  249.53        2982.50           1665          19.00        61.90
  249.56        2982.75           1668          19.00        61.90
  249.58        2983.00           1671          20.00        66.26
  249.61        2983.25           1675          22.00        74.98
  249.64        2983.50           1678          21.00        70.62
  249.67        2983.75           1681          18.00        57.54
  249.69        2984.00           1685          19.00        61.90
HS scan finished at 04:09:53
end
