************************************************************
  HS Scan of (1) Internal mercury lamp
************************************************************
Integration time is 0.2294 seconds per sample
dh251118Tamanrasset 22.79-5.529 4.974364pr865
************************************************************
Dead Time -------------------------  2.8E-08 
Number of Cycles Used -------------  4 
Starting Wavelength (Angstroms) ---  2950 
Final Wavelength (Angstoms) -------  2984 
Wavelength Increment (Angstroms) --  .25 
Filter Wheel #1 Position ---------- (1) Ground quartz diffuser (ND=2.32)
Filter Wheel #2 Position ---------- (1) Neutral Density 0.494



************************************************************
HS scan start time = 04:09:04
Dark Count =  4.5 


Time (GMT)  Wavelength (Ang)  Step Number  Raw Counts  Counts/Second

  249.43        2950.00           1233          19.00        63.21
  249.49        2950.25           1236          20.00        67.57
  249.52        2950.50           1239          21.00        71.93
  249.55        2950.75           1242          21.00        71.93
  249.58        2951.00           1246          17.00        54.49
  249.60        2951.25           1249          17.00        54.49
  249.63        2951.50           1252          17.00        54.49
  249.66        2951.75           1256          19.00        63.21
  249.68        2952.00           1259          16.00        50.13
  249.71        2952.25           1262          22.00        76.29
  249.74        2952.50           1266          16.00        50.13
  249.77        2952.75           1269          26.00        93.72
  249.79        2953.00           1272          17.00        54.49
  249.82        2953.25           1276          19.00        63.21
  249.85        2953.50           1279          22.00        76.29
  249.88        2953.75           1282          16.00        50.13
  249.90        2954.00           1286          22.00        76.29
  249.93        2954.25           1289          24.00        85.00
  249.96        2954.50           1292          21.00        71.93
  249.98        2954.75           1295          25.00        89.36
  250.01        2955.00           1299          21.00        71.93
  250.04        2955.25           1302          23.00        80.65
  250.07        2955.50           1305          21.00        71.93
  250.09        2955.75           1309          20.00        67.57
  250.12        2956.00           1312          20.00        67.57
  250.15        2956.25           1315          22.00        76.29
  250.17        2956.50           1319          19.00        63.21
  250.20        2956.75           1322          16.00        50.13
  250.23        2957.00           1325          23.00        80.65
  250.26        2957.25           1329          20.00        67.57
  250.28        2957.50           1332          19.00        63.21
  250.31        2957.75           1335          20.00        67.57
  250.34        2958.00           1339          21.00        71.93
  250.36        2958.25           1342          21.00        71.93
  250.39        2958.50           1345          22.00        76.29
  250.42        2958.75           1348          16.00        50.13
  250.45        2959.00           1352          21.00        71.93
  250.47        2959.25           1355          20.00        67.57
  250.50        2959.50           1358          17.00        54.49
  250.53        2959.75           1362          23.00        80.65
  250.55        2960.00           1365          28.00       102.44
  250.58        2960.25           1368          25.00        89.36
  250.61        2960.50           1372          31.00       115.52
  250.64        2960.75           1375          33.00       124.24
  250.66        2961.00           1378          83.00       342.20
  250.69        2961.25           1382         416.00      1793.90
  250.72        2961.50           1385        1022.00      4436.03
  250.74        2961.75           1388        2150.00      9355.11
  250.77        2962.00           1392        4199.00     18294.02
  250.80        2962.25           1395        6251.00     27250.52
  250.83        2962.50           1398        8500.00     37072.03
  250.85        2962.75           1402       11263.00     49145.61
  250.88        2963.00           1405       13383.00     58415.00
  250.91        2963.25           1408       15834.00     69137.63
  250.94        2963.50           1412       18515.00     80873.86
  250.96        2963.75           1415       20674.00     90330.62
  250.99        2964.00           1418       22790.00     99603.91
  251.02        2964.25           1422       25810.00    112847.30
  251.04        2964.50           1425       27872.00    121895.30
  251.07        2964.75           1428       30247.00    132322.40
  251.10        2965.00           1431       32576.00    142553.50
  251.13        2965.25           1435       35503.00    155419.90
  251.15        2965.50           1438       37822.00    165620.20
  251.18        2965.75           1441       39989.00    175157.30
  251.21        2966.00           1445       43032.00    188558.30
  251.24        2966.25           1448       44812.00    196401.90
  251.26        2966.50           1451       46247.00    202727.70
  251.29        2966.75           1455       47572.00    208570.70
  251.32        2967.00           1458       48156.00    211146.60
  251.35        2967.25           1461       48017.00    210533.40
  251.37        2967.50           1465       47874.00    209902.70
  251.40        2967.75           1468       47556.00    208500.10
  251.43        2968.00           1471       46858.00    205421.90
  251.45        2968.25           1475       45036.00    197389.20
  251.48        2968.50           1478       43154.00    189095.80
  251.51        2968.75           1481       41003.00    179621.70
  251.54        2969.00           1485       38016.00    166473.80
  251.56        2969.25           1488       35518.00    155485.80
  251.59        2969.50           1491       33226.00    145409.90
  251.62        2969.75           1495       30164.00    131957.90
  251.65        2970.00           1498       27968.00    122316.60
  251.67        2970.25           1501       25714.00    112426.20
  251.70        2970.50           1505       22677.00     99108.56
  251.73        2970.75           1508       20445.00     89327.34
  251.76        2971.00           1511       18162.00     79328.15
  251.78        2971.25           1515       15044.00     65680.84
  251.81        2971.50           1518       12886.00     56241.50
  251.84        2971.75           1521       10645.00     46444.41
  251.86        2972.00           1525        7674.00     33464.21
  251.89        2972.25           1528        5570.00     24277.61
  251.92        2972.50           1531        3659.00     15937.80
  251.95        2972.75           1535        1614.00      7017.51
  251.97        2973.00           1538         666.00      2883.84
  252.00        2973.25           1541         246.00      1052.78
  252.03        2973.50           1545          57.00       228.86
  252.05        2973.75           1548          38.00       146.03
  252.08        2974.00           1551          25.00        89.36
  252.11        2974.25           1555          23.00        80.65
  252.14        2974.50           1558          21.00        71.93
  252.16        2974.75           1561          21.00        71.93
  252.19        2975.00           1565          22.00        76.29
  252.22        2975.25           1568          21.00        71.93
  252.24        2975.50           1571          22.00        76.29
  252.27        2975.75           1575          21.00        71.93
  252.30        2976.00           1578          22.00        76.29
  252.33        2976.25           1581          21.00        71.93
  252.35        2976.50           1585          15.00        45.77
  252.38        2976.75           1588          24.00        85.00
  252.41        2977.00           1591          21.00        71.93
  252.43        2977.25           1595          21.00        71.93
  252.46        2977.50           1598          24.00        85.00
  252.49        2977.75           1601          18.00        58.85
  252.52        2978.00           1605          21.00        71.93
  252.54        2978.25           1608          20.00        67.57
  252.57        2978.50           1611          17.00        54.49
  252.60        2978.75           1615          19.00        63.21
  252.62        2979.00           1618          18.00        58.85
  252.65        2979.25           1621          20.00        67.57
  252.68        2979.50           1625          20.00        67.57
  252.71        2979.75           1628          25.00        89.36
  252.73        2980.00           1631          21.00        71.93
  252.76        2980.25           1635          20.00        67.57
  252.79        2980.50           1638          19.00        63.21
  252.82        2980.75           1641          16.00        50.13
  252.84        2981.00           1645          21.00        71.93
  252.87        2981.25           1648          20.00        67.57
  252.90        2981.50           1651          28.00       102.44
  252.92        2981.75           1655          25.00        89.36
  252.95        2982.00           1658          22.00        76.29
  252.98        2982.25           1661          21.00        71.93
  253.00        2982.50           1665          19.00        63.21
  253.03        2982.75           1668          21.00        71.93
  253.06        2983.00           1671          15.00        45.77
  253.09        2983.25           1675          20.00        67.57
  253.11        2983.50           1678          18.00        58.85
  253.14        2983.75           1681          21.00        71.93
  253.17        2984.00           1685          17.00        54.49
HS scan finished at 04:13:21
end
