************************************************************
  HS Scan of (1) Internal mercury lamp
************************************************************
Integration time is 0.2294 seconds per sample
dh181118Tamanrasset 22.79-5.529 4.974364pr865
************************************************************
Dead Time -------------------------  2.8E-08 
Number of Cycles Used -------------  4 
Starting Wavelength (Angstroms) ---  2950 
Final Wavelength (Angstoms) -------  2984 
Wavelength Increment (Angstroms) --  .25 
Filter Wheel #1 Position ---------- (1) Ground quartz diffuser (ND=2.32)
Filter Wheel #2 Position ---------- (1) Neutral Density 0.494



************************************************************
HS scan start time = 04:05:01
Dark Count =  4.5 


Time (GMT)  Wavelength (Ang)  Step Number  Raw Counts  Counts/Second

  245.38        2950.00           1233          24.00        85.00
  245.44        2950.25           1236          22.00        76.29
  245.47        2950.50           1239          24.00        85.00
  245.50        2950.75           1242          20.00        67.57
  245.52        2951.00           1246          18.00        58.85
  245.55        2951.25           1249          21.00        71.93
  245.58        2951.50           1252          18.00        58.85
  245.60        2951.75           1256          18.00        58.85
  245.63        2952.00           1259          23.00        80.65
  245.66        2952.25           1262          20.00        67.57
  245.69        2952.50           1266          16.00        50.13
  245.71        2952.75           1269          21.00        71.93
  245.74        2953.00           1272          24.00        85.00
  245.77        2953.25           1276          24.00        85.00
  245.79        2953.50           1279          17.00        54.49
  245.82        2953.75           1282          18.00        58.85
  245.85        2954.00           1286          21.00        71.93
  245.88        2954.25           1289          20.00        67.57
  245.90        2954.50           1292          23.00        80.65
  245.93        2954.75           1295          20.00        67.57
  245.96        2955.00           1299          19.00        63.21
  245.98        2955.25           1302          20.00        67.57
  246.01        2955.50           1305          15.00        45.77
  246.04        2955.75           1309          16.00        50.13
  246.07        2956.00           1312          16.00        50.13
  246.09        2956.25           1315          15.00        45.77
  246.12        2956.50           1319          17.00        54.49
  246.15        2956.75           1322          17.00        54.49
  246.17        2957.00           1325          20.00        67.57
  246.20        2957.25           1329          21.00        71.93
  246.23        2957.50           1332          20.00        67.57
  246.26        2957.75           1335          22.00        76.29
  246.28        2958.00           1339          22.00        76.29
  246.31        2958.25           1342          15.00        45.77
  246.34        2958.50           1345          19.00        63.21
  246.36        2958.75           1348          19.00        63.21
  246.39        2959.00           1352          18.00        58.85
  246.42        2959.25           1355          16.00        50.13
  246.45        2959.50           1358          22.00        76.29
  246.47        2959.75           1362          17.00        54.49
  246.50        2960.00           1365          24.00        85.00
  246.53        2960.25           1368          20.00        67.57
  246.55        2960.50           1372          24.00        85.00
  246.58        2960.75           1375          34.00       128.60
  246.61        2961.00           1378          75.00       307.33
  246.64        2961.25           1382         358.00      1541.04
  246.66        2961.50           1385         899.00      3899.73
  246.69        2961.75           1388        1869.00      8129.58
  246.72        2962.00           1392        3978.00     17329.68
  246.74        2962.25           1395        6035.00     26307.51
  246.77        2962.50           1398        8147.00     35530.10
  246.80        2962.75           1402       10968.00     47856.15
  246.83        2963.00           1405       13141.00     57356.65
  246.85        2963.25           1408       15497.00     67662.95
  246.88        2963.50           1412       17907.00     78211.63
  246.91        2963.75           1415       20231.00     88389.81
  246.94        2964.00           1418       22475.00     98223.12
  246.96        2964.25           1422       25401.00    111053.20
  246.99        2964.50           1425       27424.00    119929.10
  247.02        2964.75           1428       29690.00    129876.40
  247.05        2965.00           1431       31918.00    139662.40
  247.07        2965.25           1435       34809.00    152368.40
  247.10        2965.50           1438       37340.00    163499.60
  247.13        2965.75           1441       39482.00    172925.50
  247.16        2966.00           1445       42422.00    185871.10
  247.18        2966.25           1448       44530.00    195159.00
  247.21        2966.50           1451       46024.00    201744.50
  247.24        2966.75           1455       47113.00    206546.40
  247.26        2967.00           1458       47708.00    209170.50
  247.29        2967.25           1461       47981.00    210374.60
  247.32        2967.50           1465       47787.00    209518.90
  247.35        2967.75           1468       47665.00    208980.90
  247.37        2968.00           1471       46484.00    203772.70
  247.40        2968.25           1475       44944.00    196983.70
  247.43        2968.50           1478       43384.00    190109.10
  247.46        2968.75           1481       41021.00    179701.00
  247.48        2969.00           1485       37957.00    166214.20
  247.51        2969.25           1488       35453.00    155200.00
  247.54        2969.50           1491       33110.00    144900.10
  247.56        2969.75           1495       30215.00    132181.90
  247.59        2970.00           1498       27686.00    121078.90
  247.62        2970.25           1501       25705.00    112386.70
  247.65        2970.50           1505       22738.00     99375.96
  247.67        2970.75           1508       20544.00     89761.07
  247.70        2971.00           1511       18172.00     79371.93
  247.73        2971.25           1515       15267.00     66656.55
  247.76        2971.50           1518       12847.00     56070.96
  247.78        2971.75           1521       10767.00     46977.62
  247.81        2972.00           1525        7985.00     34822.52
  247.84        2972.25           1528        5793.00     25251.06
  247.86        2972.50           1531        3678.00     16020.70
  247.89        2972.75           1535        1645.00      7152.70
  247.92        2973.00           1538         714.00      3093.12
  247.95        2973.25           1541         243.00      1039.70
  247.97        2973.50           1545          58.00       233.22
  248.00        2973.75           1548          38.00       146.03
  248.03        2974.00           1551          32.00       119.88
  248.06        2974.25           1555          21.00        71.93
  248.08        2974.50           1558          27.00        98.08
  248.11        2974.75           1561          21.00        71.93
  248.14        2975.00           1565          19.00        63.21
  248.16        2975.25           1568          19.00        63.21
  248.19        2975.50           1571          22.00        76.29
  248.22        2975.75           1575          22.00        76.29
  248.25        2976.00           1578          22.00        76.29
  248.27        2976.25           1581          20.00        67.57
  248.30        2976.50           1585          21.00        71.93
  248.33        2976.75           1588          21.00        71.93
  248.36        2977.00           1591          23.00        80.65
  248.38        2977.25           1595          21.00        71.93
  248.41        2977.50           1598          28.00       102.44
  248.44        2977.75           1601          20.00        67.57
  248.46        2978.00           1605          24.00        85.00
  248.49        2978.25           1608          21.00        71.93
  248.52        2978.50           1611          17.00        54.49
  248.54        2978.75           1615          18.00        58.85
  248.57        2979.00           1618          19.00        63.21
  248.60        2979.25           1621          21.00        71.93
  248.63        2979.50           1625          21.00        71.93
  248.65        2979.75           1628          21.00        71.93
  248.68        2980.00           1631          16.00        50.13
  248.71        2980.25           1635          17.00        54.49
  248.74        2980.50           1638          18.00        58.85
  248.76        2980.75           1641          19.00        63.21
  248.79        2981.00           1645          23.00        80.65
  248.82        2981.25           1648          18.00        58.85
  248.84        2981.50           1651          20.00        67.57
  248.87        2981.75           1655          20.00        67.57
  248.90        2982.00           1658          22.00        76.29
  248.93        2982.25           1661          18.00        58.85
  248.95        2982.50           1665          20.00        67.57
  248.98        2982.75           1668          16.00        50.13
  249.01        2983.00           1671          23.00        80.65
  249.03        2983.25           1675          17.00        54.49
  249.06        2983.50           1678          17.00        54.49
  249.09        2983.75           1681          17.00        54.49
  249.12        2984.00           1685          22.00        76.29
HS scan finished at 04:09:18
end
