************************************************************
  HS Scan of (1) Internal mercury lamp
************************************************************
Integration time is 0.2294 seconds per sample
dh191118Tamanrasset 22.79-5.529 4.974364pr865
************************************************************
Dead Time -------------------------  2.8E-08 
Number of Cycles Used -------------  4 
Starting Wavelength (Angstroms) ---  2950 
Final Wavelength (Angstoms) -------  2984 
Wavelength Increment (Angstroms) --  .25 
Filter Wheel #1 Position ---------- (1) Ground quartz diffuser (ND=2.32)
Filter Wheel #2 Position ---------- (1) Neutral Density 0.494



************************************************************
HS scan start time = 04:05:31
Dark Count =  5.1 


Time (GMT)  Wavelength (Ang)  Step Number  Raw Counts  Counts/Second

  245.87        2950.00           1233          17.00        51.87
  245.94        2950.25           1236          22.00        73.67
  245.96        2950.50           1239          21.00        69.31
  245.99        2950.75           1242          17.00        51.87
  246.02        2951.00           1246          17.00        51.87
  246.05        2951.25           1249          19.00        60.59
  246.07        2951.50           1252          22.00        73.67
  246.10        2951.75           1256          18.00        56.23
  246.13        2952.00           1259          21.00        69.31
  246.15        2952.25           1262          21.00        69.31
  246.18        2952.50           1266          18.00        56.23
  246.21        2952.75           1269          22.00        73.67
  246.24        2953.00           1272          21.00        69.31
  246.26        2953.25           1276          20.00        64.95
  246.29        2953.50           1279          14.00        38.80
  246.32        2953.75           1282          23.00        78.03
  246.34        2954.00           1286          20.00        64.95
  246.37        2954.25           1289          19.00        60.59
  246.40        2954.50           1292          19.00        60.59
  246.42        2954.75           1295          20.00        64.95
  246.45        2955.00           1299          22.00        73.67
  246.48        2955.25           1302          17.00        51.87
  246.51        2955.50           1305          23.00        78.03
  246.53        2955.75           1309          21.00        69.31
  246.56        2956.00           1312          22.00        73.67
  246.59        2956.25           1315          22.00        73.67
  246.61        2956.50           1319          25.00        86.75
  246.64        2956.75           1322          18.00        56.23
  246.67        2957.00           1325          22.00        73.67
  246.70        2957.25           1329          17.00        51.87
  246.72        2957.50           1332          21.00        69.31
  246.75        2957.75           1335          18.00        56.23
  246.78        2958.00           1339          18.00        56.23
  246.80        2958.25           1342          22.00        73.67
  246.83        2958.50           1345          25.00        86.75
  246.86        2958.75           1348          16.00        47.52
  246.89        2959.00           1352          16.00        47.52
  246.91        2959.25           1355          19.00        60.59
  246.94        2959.50           1358          18.00        56.23
  246.97        2959.75           1362          22.00        73.67
  246.99        2960.00           1365          30.00       108.54
  247.02        2960.25           1368          27.00        95.47
  247.05        2960.50           1372          37.00       139.06
  247.08        2960.75           1375          34.00       125.98
  247.10        2961.00           1378         109.00       452.93
  247.13        2961.25           1382         485.00      2092.10
  247.16        2961.50           1385        1209.00      5248.81
  247.19        2961.75           1388        2386.00     10381.83
  247.21        2962.00           1392        4658.00     20294.44
  247.24        2962.25           1395        6763.00     29483.35
  247.27        2962.50           1398        9031.00     39389.11
  247.29        2962.75           1402       11907.00     51958.28
  247.32        2963.00           1405       14228.00     62108.35
  247.35        2963.25           1408       16518.00     72128.53
  247.38        2963.50           1412       19454.00     84983.59
  247.40        2963.75           1415       21794.00     95235.75
  247.43        2964.00           1418       24108.00    105379.80
  247.46        2964.25           1422       26760.00    117012.70
  247.49        2964.50           1425       29110.00    127327.20
  247.51        2964.75           1428       31714.00    138763.50
  247.54        2965.00           1431       34158.00    149503.80
  247.57        2965.25           1435       37110.00    162485.20
  247.59        2965.50           1438       39468.00    172861.20
  247.62        2965.75           1441       41534.00    181957.40
  247.65        2966.00           1445       44537.00    195187.20
  247.68        2966.25           1448       46247.00    202725.10
  247.71        2966.50           1451       47952.00    210244.10
  247.73        2966.75           1455       49149.00    215524.70
  247.76        2967.00           1458       49520.00    217161.70
  247.79        2967.25           1461       49606.00    217541.20
  247.81        2967.50           1465       49732.00    218097.20
  247.84        2967.75           1468       49121.00    215401.20
  247.87        2968.00           1471       48327.00    211898.20
  247.90        2968.25           1475       46290.00    202914.60
  247.92        2968.50           1478       44330.00    194275.00
  247.95        2968.75           1481       42014.00    184071.40
  247.98        2969.00           1485       39011.00    170849.80
  248.01        2969.25           1488       36285.00    158856.30
  248.03        2969.50           1491       34081.00    149165.30
  248.06        2969.75           1495       30920.00    135275.60
  248.09        2970.00           1498       28748.00    125737.90
  248.12        2970.25           1501       26261.00    114823.20
  248.14        2970.50           1505       23267.00    101692.40
  248.17        2970.75           1508       21021.00     91848.38
  248.20        2971.00           1511       18430.00     80499.03
  248.22        2971.25           1515       15437.00     67397.78
  248.25        2971.50           1518       13061.00     57004.17
  248.28        2971.75           1521       10897.00     47543.20
  248.31        2972.00           1525        7845.00     34208.43
  248.33        2972.25           1528        5669.00     24707.15
  248.36        2972.50           1531        3694.00     16087.89
  248.39        2972.75           1535        1573.00      6836.10
  248.42        2973.00           1538         681.00      2946.63
  248.44        2973.25           1541         212.00       901.94
  248.47        2973.50           1545          51.00       200.09
  248.50        2973.75           1548          41.00       156.50
  248.52        2974.00           1551          34.00       125.98
  248.55        2974.25           1555          31.00       112.90
  248.58        2974.50           1558          25.00        86.75
  248.61        2974.75           1561          24.00        82.39
  248.63        2975.00           1565          22.00        73.67
  248.66        2975.25           1568          25.00        86.75
  248.69        2975.50           1571          27.00        95.47
  248.71        2975.75           1575          20.00        64.95
  248.74        2976.00           1578          19.00        60.59
  248.77        2976.25           1581          21.00        69.31
  248.80        2976.50           1585          24.00        82.39
  248.82        2976.75           1588          23.00        78.03
  248.85        2977.00           1591          23.00        78.03
  248.88        2977.25           1595          17.00        51.87
  248.90        2977.50           1598          19.00        60.59
  248.93        2977.75           1601          21.00        69.31
  248.96        2978.00           1605          21.00        69.31
  248.99        2978.25           1608          20.00        64.95
  249.01        2978.50           1611          21.00        69.31
  249.04        2978.75           1615          21.00        69.31
  249.07        2979.00           1618          22.00        73.67
  249.09        2979.25           1621          18.00        56.23
  249.12        2979.50           1625          19.00        60.59
  249.15        2979.75           1628          21.00        69.31
  249.18        2980.00           1631          22.00        73.67
  249.20        2980.25           1635          21.00        69.31
  249.23        2980.50           1638          17.00        51.87
  249.26        2980.75           1641          18.00        56.23
  249.28        2981.00           1645          21.00        69.31
  249.31        2981.25           1648          21.00        69.31
  249.34        2981.50           1651          17.00        51.87
  249.37        2981.75           1655          23.00        78.03
  249.39        2982.00           1658          24.00        82.39
  249.42        2982.25           1661          17.00        51.87
  249.45        2982.50           1665          20.00        64.95
  249.47        2982.75           1668          20.00        64.95
  249.50        2983.00           1671          21.00        69.31
  249.53        2983.25           1675          17.00        51.87
  249.56        2983.50           1678          17.00        51.87
  249.58        2983.75           1681          18.00        56.23
  249.61        2984.00           1685          18.00        56.23
HS scan finished at 04:09:48
end
