************************************************************
  HS Scan of (1) Internal mercury lamp
************************************************************
Integration time is 0.2294 seconds per sample
dh211118Tamanrasset 22.79-5.529 4.974364pr865
************************************************************
Dead Time -------------------------  2.8E-08 
Number of Cycles Used -------------  4 
Starting Wavelength (Angstroms) ---  2950 
Final Wavelength (Angstoms) -------  2984 
Wavelength Increment (Angstroms) --  .25 
Filter Wheel #1 Position ---------- (1) Ground quartz diffuser (ND=2.32)
Filter Wheel #2 Position ---------- (1) Neutral Density 0.494



************************************************************
HS scan start time = 04:07:09
Dark Count =  3.8 


Time (GMT)  Wavelength (Ang)  Step Number  Raw Counts  Counts/Second

  247.52        2950.00           1233          17.00        57.54
  247.58        2950.25           1236          22.00        79.34
  247.61        2950.50           1239          14.00        44.46
  247.63        2950.75           1242          17.00        57.54
  247.66        2951.00           1246          18.00        61.90
  247.69        2951.25           1249          25.00        92.42
  247.71        2951.50           1252          18.00        61.90
  247.74        2951.75           1256          22.00        79.34
  247.77        2952.00           1259          25.00        92.42
  247.80        2952.25           1262          18.00        61.90
  247.82        2952.50           1266          20.00        70.62
  247.85        2952.75           1269          21.00        74.98
  247.88        2953.00           1272          20.00        70.62
  247.90        2953.25           1276          26.00        96.77
  247.93        2953.50           1279          22.00        79.34
  247.96        2953.75           1282          23.00        83.70
  247.99        2954.00           1286          21.00        74.98
  248.01        2954.25           1289          20.00        70.62
  248.04        2954.50           1292          22.00        79.34
  248.07        2954.75           1295          19.00        66.26
  248.09        2955.00           1299          17.00        57.54
  248.12        2955.25           1302          18.00        61.90
  248.15        2955.50           1305          21.00        74.98
  248.18        2955.75           1309          20.00        70.62
  248.20        2956.00           1312          16.00        53.18
  248.23        2956.25           1315          24.00        88.06
  248.26        2956.50           1319          21.00        74.98
  248.28        2956.75           1322          20.00        70.62
  248.31        2957.00           1325          20.00        70.62
  248.34        2957.25           1329          17.00        57.54
  248.37        2957.50           1332          19.00        66.26
  248.39        2957.75           1335          19.00        66.26
  248.42        2958.00           1339          24.00        88.06
  248.45        2958.25           1342          17.00        57.54
  248.47        2958.50           1345          17.00        57.54
  248.50        2958.75           1348          21.00        74.98
  248.53        2959.00           1352          22.00        79.34
  248.56        2959.25           1355          24.00        88.06
  248.58        2959.50           1358          24.00        88.06
  248.61        2959.75           1362          20.00        70.62
  248.64        2960.00           1365          27.00       101.13
  248.66        2960.25           1368          23.00        83.70
  248.69        2960.50           1372          31.00       118.57
  248.72        2960.75           1375          33.00       127.29
  248.75        2961.00           1378         103.00       432.44
  248.77        2961.25           1382         502.00      2171.88
  248.80        2961.50           1385        1179.00      5123.66
  248.83        2961.75           1388        2478.00     10788.79
  248.85        2962.00           1392        4854.00     21155.51
  248.88        2962.25           1395        6982.00     30445.30
  248.91        2962.50           1398        9284.00     40500.13
  248.94        2962.75           1402       12299.00     53677.83
  248.96        2963.00           1405       14706.00     64205.12
  248.99        2963.25           1408       16996.00     74226.47
  249.02        2963.50           1412       20062.00     87652.52
  249.05        2963.75           1415       22372.00     97774.72
  249.07        2964.00           1418       24756.00    108227.20
  249.10        2964.25           1422       27768.00    121441.90
  249.13        2964.50           1425       30037.00    131403.30
  249.16        2964.75           1428       32585.00    142596.10
  249.18        2965.00           1431       34948.00    152982.60
  249.21        2965.25           1435       38256.00    167533.00
  249.24        2965.50           1438       40708.00    178325.90
  249.26        2965.75           1441       43000.00    188420.40
  249.29        2966.00           1445       46103.00    202095.90
  249.32        2966.25           1448       48210.00    211387.90
  249.35        2966.50           1451       49427.00    216757.10
  249.37        2966.75           1455       50771.00    222688.50
  249.40        2967.00           1458       51074.00    224026.00
  249.43        2967.25           1461       51291.00    224983.90
  249.46        2967.50           1465       50966.00    223549.20
  249.48        2967.75           1468       50434.00    221201.00
  249.51        2968.00           1471       49741.00    218142.70
  249.54        2968.25           1475       47468.00    208115.10
  249.57        2968.50           1478       45526.00    199552.20
  249.59        2968.75           1481       43243.00    189491.00
  249.62        2969.00           1485       39974.00    175094.30
  249.65        2969.25           1488       37631.00    164783.00
  249.67        2969.50           1491       35030.00    153343.10
  249.70        2969.75           1495       31659.00    138527.60
  249.73        2970.00           1498       29149.00    127504.10
  249.76        2970.25           1501       26846.00    117395.70
  249.78        2970.50           1505       23765.00    103881.50
  249.81        2970.75           1508       21351.00     93300.09
  249.84        2971.00           1511       18828.00     82247.61
  249.87        2971.25           1515       15771.00     68865.02
  249.89        2971.50           1518       13402.00     58501.15
  249.92        2971.75           1521       11073.00     48318.17
  249.95        2972.00           1525        7859.00     34275.25
  249.97        2972.25           1528        5626.00     24525.12
  250.00        2972.50           1531        3523.00     15347.49
  250.03        2972.75           1535        1488.00      6471.09
  250.06        2973.00           1538         588.00      2546.83
  250.08        2973.25           1541         193.00       824.78
  250.11        2973.50           1545          51.00       205.76
  250.14        2973.75           1548          34.00       131.65
  250.17        2974.00           1551          31.00       118.57
  250.19        2974.25           1555          27.00       101.13
  250.22        2974.50           1558          29.00       109.85
  250.25        2974.75           1561          29.00       109.85
  250.27        2975.00           1565          21.00        74.98
  250.30        2975.25           1568          23.00        83.70
  250.33        2975.50           1571          19.00        66.26
  250.36        2975.75           1575          22.00        79.34
  250.38        2976.00           1578          21.00        74.98
  250.41        2976.25           1581          20.00        70.62
  250.44        2976.50           1585          23.00        83.70
  250.47        2976.75           1588          20.00        70.62
  250.49        2977.00           1591          21.00        74.98
  250.52        2977.25           1595          20.00        70.62
  250.55        2977.50           1598          20.00        70.62
  250.57        2977.75           1601          22.00        79.34
  250.60        2978.00           1605          25.00        92.42
  250.63        2978.25           1608          24.00        88.06
  250.66        2978.50           1611          27.00       101.13
  250.68        2978.75           1615          23.00        83.70
  250.71        2979.00           1618          25.00        92.42
  250.74        2979.25           1621          22.00        79.34
  250.76        2979.50           1625          20.00        70.62
  250.79        2979.75           1628          20.00        70.62
  250.82        2980.00           1631          21.00        74.98
  250.85        2980.25           1635          19.00        66.26
  250.87        2980.50           1638          21.00        74.98
  250.90        2980.75           1641          18.00        61.90
  250.93        2981.00           1645          23.00        83.70
  250.95        2981.25           1648          17.00        57.54
  250.98        2981.50           1651          17.00        57.54
  251.01        2981.75           1655          22.00        79.34
  251.04        2982.00           1658          24.00        88.06
  251.06        2982.25           1661          17.00        57.54
  251.09        2982.50           1665          22.00        79.34
  251.12        2982.75           1668          17.00        57.54
  251.15        2983.00           1671          22.00        79.34
  251.17        2983.25           1675          24.00        88.06
  251.20        2983.50           1678          19.00        66.26
  251.23        2983.75           1681          19.00        66.26
  251.25        2984.00           1685          16.00        53.18
HS scan finished at 04:11:27
end
