************************************************************
  HS Scan of (1) Internal mercury lamp
************************************************************
Integration time is 0.2294 seconds per sample
dh021218Tamanrasset 22.79-5.529 4.974364pr865
************************************************************
Dead Time -------------------------  2.8E-08 
Number of Cycles Used -------------  4 
Starting Wavelength (Angstroms) ---  2950 
Final Wavelength (Angstoms) -------  2984 
Wavelength Increment (Angstroms) --  .25 
Filter Wheel #1 Position ---------- (1) Ground quartz diffuser (ND=2.32)
Filter Wheel #2 Position ---------- (1) Neutral Density 0.494



************************************************************
HS scan start time = 04:13:37
Dark Count =  4.5 


Time (GMT)  Wavelength (Ang)  Step Number  Raw Counts  Counts/Second

  253.98        2950.00           1233          24.00        85.00
  254.04        2950.25           1236          21.00        71.93
  254.07        2950.50           1239          20.00        67.57
  254.09        2950.75           1242          26.00        93.72
  254.12        2951.00           1246          17.00        54.49
  254.15        2951.25           1249          22.00        76.29
  254.18        2951.50           1252          21.00        71.93
  254.20        2951.75           1256          21.00        71.93
  254.23        2952.00           1259          19.00        63.21
  254.26        2952.25           1262          21.00        71.93
  254.29        2952.50           1266          24.00        85.00
  254.31        2952.75           1269          20.00        67.57
  254.34        2953.00           1272          21.00        71.93
  254.37        2953.25           1276          24.00        85.00
  254.40        2953.50           1279          23.00        80.65
  254.42        2953.75           1282          19.00        63.21
  254.45        2954.00           1286          19.00        63.21
  254.48        2954.25           1289          20.00        67.57
  254.50        2954.50           1292          18.00        58.85
  254.53        2954.75           1295          17.00        54.49
  254.56        2955.00           1299          20.00        67.57
  254.59        2955.25           1302          16.00        50.13
  254.61        2955.50           1305          21.00        71.93
  254.64        2955.75           1309          17.00        54.49
  254.67        2956.00           1312          19.00        63.21
  254.69        2956.25           1315          18.00        58.85
  254.72        2956.50           1319          18.00        58.85
  254.75        2956.75           1322          19.00        63.21
  254.78        2957.00           1325          22.00        76.29
  254.80        2957.25           1329          18.00        58.85
  254.83        2957.50           1332          15.00        45.77
  254.86        2957.75           1335          19.00        63.21
  254.88        2958.00           1339          21.00        71.93
  254.91        2958.25           1342          23.00        80.65
  254.94        2958.50           1345          22.00        76.29
  254.97        2958.75           1348          17.00        54.49
  254.99        2959.00           1352          21.00        71.93
  255.02        2959.25           1355          22.00        76.29
  255.05        2959.50           1358          22.00        76.29
  255.07        2959.75           1362          18.00        58.85
  255.10        2960.00           1365          28.00       102.44
  255.13        2960.25           1368          30.00       111.16
  255.16        2960.50           1372          28.00       102.44
  255.18        2960.75           1375          36.00       137.32
  255.21        2961.00           1378          62.00       250.66
  255.24        2961.25           1382         342.00      1471.29
  255.26        2961.50           1385         900.00      3904.09
  255.29        2961.75           1388        1882.00      8186.27
  255.32        2962.00           1392        3921.00     17080.97
  255.35        2962.25           1395        5879.00     25626.49
  255.37        2962.50           1398        8013.00     34944.81
  255.40        2962.75           1402       10814.00     47183.05
  255.43        2963.00           1405       13085.00     57111.74
  255.46        2963.25           1408       15013.00     65545.21
  255.48        2963.50           1412       17776.00     77638.08
  255.51        2963.75           1415       20034.00     87526.81
  255.54        2964.00           1418       22491.00     98293.26
  255.56        2964.25           1422       24998.00    109285.50
  255.59        2964.50           1425       27086.00    118445.80
  255.62        2964.75           1428       29374.00    128488.90
  255.65        2965.00           1431       31684.00    138634.30
  255.67        2965.25           1435       34372.00    150447.20
  255.70        2965.50           1438       36716.00    160754.70
  255.73        2965.75           1441       39031.00    170940.50
  255.76        2966.00           1445       41762.00    182964.10
  255.78        2966.25           1448       43652.00    191289.90
  255.81        2966.50           1451       45165.00    197957.80
  255.84        2966.75           1455       46508.00    203878.50
  255.87        2967.00           1458       46963.00    205884.90
  255.89        2967.25           1461       46950.00    205827.60
  255.92        2967.50           1465       47200.00    206930.00
  255.95        2967.75           1468       46875.00    205496.80
  255.98        2968.00           1471       45830.00    200889.20
  256.00        2968.25           1475       44484.00    194956.30
  256.03        2968.50           1478       42426.00    185888.80
  256.06        2968.75           1481       40414.00    177028.40
  256.08        2969.00           1485       37297.00    163310.50
  256.11        2969.25           1488       35120.00    153735.80
  256.14        2969.50           1491       32634.00    142808.40
  256.17        2969.75           1495       29655.00    129722.70
  256.19        2970.00           1498       27409.00    119863.30
  256.22        2970.25           1501       25327.00    110728.60
  256.25        2970.50           1505       22222.00     97114.19
  256.28        2970.75           1508       19963.00     87215.78
  256.30        2971.00           1511       17794.00     77716.88
  256.33        2971.25           1515       14977.00     65387.70
  256.36        2971.50           1518       12823.00     55966.02
  256.38        2971.75           1521       10746.00     46885.84
  256.41        2972.00           1525        7853.00     34245.99
  256.44        2972.25           1528        5821.00     25373.30
  256.47        2972.50           1531        3769.00     16417.75
  256.49        2972.75           1535        1752.00      7619.32
  256.52        2973.00           1538         765.00      3315.48
  256.55        2973.25           1541         255.00      1092.01
  256.58        2973.50           1545          56.00       224.50
  256.60        2973.75           1548          36.00       137.32
  256.63        2974.00           1551          32.00       119.88
  256.66        2974.25           1555          26.00        93.72
  256.68        2974.50           1558          23.00        80.65
  256.71        2974.75           1561          22.00        76.29
  256.74        2975.00           1565          20.00        67.57
  256.77        2975.25           1568          22.00        76.29
  256.79        2975.50           1571          25.00        89.36
  256.82        2975.75           1575          19.00        63.21
  256.85        2976.00           1578          25.00        89.36
  256.87        2976.25           1581          24.00        85.00
  256.90        2976.50           1585          22.00        76.29
  256.93        2976.75           1588          22.00        76.29
  256.96        2977.00           1591          24.00        85.00
  256.98        2977.25           1595          20.00        67.57
  257.01        2977.50           1598          18.00        58.85
  257.04        2977.75           1601          20.00        67.57
  257.06        2978.00           1605          21.00        71.93
  257.09        2978.25           1608          19.00        63.21
  257.12        2978.50           1611          22.00        76.29
  257.15        2978.75           1615          21.00        71.93
  257.17        2979.00           1618          20.00        67.57
  257.20        2979.25           1621          21.00        71.93
  257.23        2979.50           1625          20.00        67.57
  257.25        2979.75           1628          21.00        71.93
  257.28        2980.00           1631          18.00        58.85
  257.31        2980.25           1635          23.00        80.65
  257.34        2980.50           1638          22.00        76.29
  257.36        2980.75           1641          22.00        76.29
  257.39        2981.00           1645          21.00        71.93
  257.42        2981.25           1648          21.00        71.93
  257.44        2981.50           1651          22.00        76.29
  257.47        2981.75           1655          18.00        58.85
  257.50        2982.00           1658          23.00        80.65
  257.53        2982.25           1661          23.00        80.65
  257.55        2982.50           1665          22.00        76.29
  257.58        2982.75           1668          18.00        58.85
  257.61        2983.00           1671          17.00        54.49
  257.64        2983.25           1675          21.00        71.93
  257.66        2983.50           1678          22.00        76.29
  257.69        2983.75           1681          21.00        71.93
  257.72        2984.00           1685          16.00        50.13
HS scan finished at 04:17:54
end
