************************************************************
  HS Scan of (1) Internal mercury lamp
************************************************************
Integration time is 0.2294 seconds per sample
dh031218Tamanrasset 22.79-5.529 4.974364pr865
************************************************************
Dead Time -------------------------  2.8E-08 
Number of Cycles Used -------------  4 
Starting Wavelength (Angstroms) ---  2950 
Final Wavelength (Angstoms) -------  2984 
Wavelength Increment (Angstroms) --  .25 
Filter Wheel #1 Position ---------- (1) Ground quartz diffuser (ND=2.32)
Filter Wheel #2 Position ---------- (1) Neutral Density 0.494



************************************************************
HS scan start time = 04:14:00
Dark Count =  4.1 


Time (GMT)  Wavelength (Ang)  Step Number  Raw Counts  Counts/Second

  254.36        2950.00           1233          21.00        73.67
  254.42        2950.25           1236          21.00        73.67
  254.45        2950.50           1239          24.00        86.75
  254.48        2950.75           1242          20.00        69.31
  254.51        2951.00           1246          20.00        69.31
  254.53        2951.25           1249          19.00        64.95
  254.56        2951.50           1252          21.00        73.67
  254.59        2951.75           1256          24.00        86.75
  254.61        2952.00           1259          17.00        56.23
  254.64        2952.25           1262          27.00        99.83
  254.67        2952.50           1266          18.00        60.59
  254.70        2952.75           1269          22.00        78.03
  254.72        2953.00           1272          20.00        69.31
  254.75        2953.25           1276          22.00        78.03
  254.78        2953.50           1279          19.00        64.95
  254.80        2953.75           1282          21.00        73.67
  254.83        2954.00           1286          20.00        69.31
  254.86        2954.25           1289          20.00        69.31
  254.89        2954.50           1292          19.00        64.95
  254.91        2954.75           1295          21.00        73.67
  254.94        2955.00           1299          20.00        69.31
  254.97        2955.25           1302          19.00        64.95
  254.99        2955.50           1305          20.00        69.31
  255.02        2955.75           1309          20.00        69.31
  255.05        2956.00           1312          16.00        51.87
  255.08        2956.25           1315          20.00        69.31
  255.10        2956.50           1319          20.00        69.31
  255.13        2956.75           1322          22.00        78.03
  255.16        2957.00           1325          18.00        60.59
  255.18        2957.25           1329          19.00        64.95
  255.21        2957.50           1332          19.00        64.95
  255.24        2957.75           1335          22.00        78.03
  255.27        2958.00           1339          25.00        91.11
  255.29        2958.25           1342          19.00        64.95
  255.32        2958.50           1345          24.00        86.75
  255.35        2958.75           1348          20.00        69.31
  255.37        2959.00           1352          18.00        60.59
  255.40        2959.25           1355          19.00        64.95
  255.43        2959.50           1358          21.00        73.67
  255.46        2959.75           1362          24.00        86.75
  255.48        2960.00           1365          22.00        78.03
  255.51        2960.25           1368          28.00       104.19
  255.54        2960.50           1372          28.00       104.19
  255.56        2960.75           1375          33.00       125.98
  255.59        2961.00           1378          87.00       361.38
  255.62        2961.25           1382         429.00      1852.32
  255.65        2961.50           1385        1030.00      4472.66
  255.67        2961.75           1388        2127.00      9256.54
  255.70        2962.00           1392        4182.00     18221.59
  255.73        2962.25           1395        6105.00     26614.86
  255.76        2962.50           1398        8299.00     36195.78
  255.78        2962.75           1402       11098.00     48426.13
  255.81        2963.00           1405       13169.00     57480.85
  255.84        2963.25           1408       15345.00     66999.60
  255.87        2963.50           1412       18279.00     79842.20
  255.89        2963.75           1415       20495.00     89548.14
  255.92        2964.00           1418       22662.00     99044.57
  255.95        2964.25           1422       25381.00    110967.20
  255.97        2964.50           1425       27657.00    120953.40
  256.00        2964.75           1428       29821.00    130453.40
  256.03        2965.00           1431       31971.00    139897.00
  256.06        2965.25           1435       34808.00    152365.70
  256.08        2965.50           1438       37370.00    163633.40
  256.11        2965.75           1441       39589.00    173398.20
  256.14        2966.00           1445       42583.00    186582.10
  256.17        2966.25           1448       44396.00    194570.20
  256.19        2966.50           1451       45782.00    200679.40
  256.22        2966.75           1455       47139.00    206662.80
  256.25        2967.00           1458       47595.00    208673.90
  256.28        2967.25           1461       47680.00    209048.80
  256.30        2967.50           1465       47559.00    208515.10
  256.33        2967.75           1468       47132.00    206631.90
  256.36        2968.00           1471       46229.00    202650.10
  256.38        2968.25           1475       44578.00    195372.30
  256.41        2968.50           1478       42582.00    186577.70
  256.44        2968.75           1481       40308.00    176563.40
  256.47        2969.00           1485       37517.00    164280.10
  256.49        2969.25           1488       35149.00    153865.00
  256.52        2969.50           1491       32834.00    143689.00
  256.55        2969.75           1495       29978.00    131142.90
  256.58        2970.00           1498       27538.00    120431.20
  256.60        2970.25           1501       25142.00    109918.90
  256.63        2970.50           1505       22178.00     96923.09
  256.66        2970.75           1508       19791.00     86464.09
  256.68        2971.00           1511       17622.00     76965.60
  256.71        2971.25           1515       14802.00     64623.81
  256.74        2971.50           1518       12651.00     55215.64
  256.77        2971.75           1521       10487.00     45755.62
  256.79        2972.00           1525        7588.00     33090.37
  256.82        2972.25           1528        5482.00     23895.23
  256.85        2972.50           1531        3535.00     15398.53
  256.88        2972.75           1535        1576.00      6853.54
  256.90        2973.00           1538         583.00      2523.72
  256.93        2973.25           1541         191.00       814.75
  256.96        2973.50           1545          46.00       182.65
  256.98        2973.75           1548          35.00       134.70
  257.01        2974.00           1551          28.00       104.19
  257.04        2974.25           1555          21.00        73.67
  257.07        2974.50           1558          23.00        82.39
  257.09        2974.75           1561          20.00        69.31
  257.12        2975.00           1565          26.00        95.47
  257.15        2975.25           1568          18.00        60.59
  257.18        2975.50           1571          21.00        73.67
  257.20        2975.75           1575          21.00        73.67
  257.23        2976.00           1578          19.00        64.95
  257.26        2976.25           1581          22.00        78.03
  257.28        2976.50           1585          21.00        73.67
  257.31        2976.75           1588          20.00        69.31
  257.34        2977.00           1591          19.00        64.95
  257.37        2977.25           1595          22.00        78.03
  257.39        2977.50           1598          16.00        51.87
  257.42        2977.75           1601          23.00        82.39
  257.45        2978.00           1605          25.00        91.11
  257.47        2978.25           1608          23.00        82.39
  257.50        2978.50           1611          20.00        69.31
  257.53        2978.75           1615          21.00        73.67
  257.56        2979.00           1618          20.00        69.31
  257.58        2979.25           1621          21.00        73.67
  257.61        2979.50           1625          18.00        60.59
  257.64        2979.75           1628          19.00        64.95
  257.66        2980.00           1631          19.00        64.95
  257.69        2980.25           1635          16.00        51.87
  257.72        2980.50           1638          19.00        64.95
  257.75        2980.75           1641          21.00        73.67
  257.77        2981.00           1645          21.00        73.67
  257.80        2981.25           1648          21.00        73.67
  257.83        2981.50           1651          17.00        56.23
  257.86        2981.75           1655          18.00        60.59
  257.88        2982.00           1658          18.00        60.59
  257.91        2982.25           1661          22.00        78.03
  257.94        2982.50           1665          25.00        91.11
  257.96        2982.75           1668          22.00        78.03
  257.99        2983.00           1671          18.00        60.59
  258.02        2983.25           1675          18.00        60.59
  258.05        2983.50           1678          20.00        69.31
  258.07        2983.75           1681          21.00        73.67
  258.10        2984.00           1685          20.00        69.31
HS scan finished at 04:18:17
end
