************************************************************
  HS Scan of (1) Internal mercury lamp
************************************************************
Integration time is 0.2294 seconds per sample
dh011218Tamanrasset 22.79-5.529 4.974364pr865
************************************************************
Dead Time -------------------------  2.8E-08 
Number of Cycles Used -------------  4 
Starting Wavelength (Angstroms) ---  2950 
Final Wavelength (Angstoms) -------  2984 
Wavelength Increment (Angstroms) --  .25 
Filter Wheel #1 Position ---------- (1) Ground quartz diffuser (ND=2.32)
Filter Wheel #2 Position ---------- (1) Neutral Density 0.494



************************************************************
HS scan start time = 04:13:27
Dark Count =  6.5 


Time (GMT)  Wavelength (Ang)  Step Number  Raw Counts  Counts/Second

  253.80        2950.00           1233          24.00        76.29
  253.87        2950.25           1236          19.00        54.49
  253.89        2950.50           1239          19.00        54.49
  253.92        2950.75           1242          17.00        45.77
  253.95        2951.00           1246          20.00        58.85
  253.97        2951.25           1249          23.00        71.93
  254.00        2951.50           1252          18.00        50.13
  254.03        2951.75           1256          17.00        45.77
  254.06        2952.00           1259          19.00        54.49
  254.08        2952.25           1262          15.00        37.05
  254.11        2952.50           1266          21.00        63.21
  254.14        2952.75           1269          19.00        54.49
  254.16        2953.00           1272          21.00        63.21
  254.19        2953.25           1276          20.00        58.85
  254.22        2953.50           1279          20.00        58.85
  254.25        2953.75           1282          22.00        67.57
  254.27        2954.00           1286          18.00        50.13
  254.30        2954.25           1289          18.00        50.13
  254.33        2954.50           1292          18.00        50.13
  254.35        2954.75           1295          21.00        63.21
  254.38        2955.00           1299          18.00        50.13
  254.41        2955.25           1302          17.00        45.77
  254.44        2955.50           1305          19.00        54.49
  254.46        2955.75           1309          18.00        50.13
  254.49        2956.00           1312          18.00        50.13
  254.52        2956.25           1315          20.00        58.85
  254.54        2956.50           1319          20.00        58.85
  254.57        2956.75           1322          19.00        54.49
  254.60        2957.00           1325          22.00        67.57
  254.63        2957.25           1329          20.00        58.85
  254.65        2957.50           1332          18.00        50.13
  254.68        2957.75           1335          18.00        50.13
  254.71        2958.00           1339          20.00        58.85
  254.74        2958.25           1342          21.00        63.21
  254.76        2958.50           1345          22.00        67.57
  254.79        2958.75           1348          19.00        54.49
  254.82        2959.00           1352          20.00        58.85
  254.84        2959.25           1355          17.00        45.77
  254.87        2959.50           1358          22.00        67.57
  254.90        2959.75           1362          26.00        85.00
  254.93        2960.00           1365          27.00        89.36
  254.95        2960.25           1368          21.00        63.21
  254.98        2960.50           1372          35.00       124.24
  255.01        2960.75           1375          31.00       106.80
  255.03        2961.00           1378          76.00       302.97
  255.06        2961.25           1382         375.00      1606.44
  255.09        2961.50           1385         953.00      4126.46
  255.12        2961.75           1388        1930.00      8386.89
  255.14        2962.00           1392        3982.00     17338.41
  255.17        2962.25           1395        6002.00     26154.72
  255.20        2962.50           1398        8101.00     35320.44
  255.22        2962.75           1402       10821.00     47204.90
  255.25        2963.00           1405       13044.00     56923.70
  255.28        2963.25           1408       15200.00     66354.65
  255.31        2963.50           1412       17913.00     78229.15
  255.33        2963.75           1415       20065.00     87653.84
  255.36        2964.00           1418       22303.00     97460.46
  255.39        2964.25           1422       25051.00    109509.20
  255.42        2964.50           1425       27226.00    119051.40
  255.44        2964.75           1428       29531.00    129169.50
  255.47        2965.00           1431       31486.00    137755.70
  255.50        2965.25           1435       34455.00    150803.30
  255.52        2965.50           1438       37005.00    162017.10
  255.55        2965.75           1441       38994.00    170768.80
  255.58        2966.00           1445       41843.00    183312.10
  255.61        2966.25           1448       43853.00    192166.80
  255.63        2966.50           1451       45174.00    197988.60
  255.66        2966.75           1455       46400.00    203393.50
  255.69        2967.00           1458       46976.00    205933.40
  255.72        2967.25           1461       47061.00    206308.20
  255.74        2967.50           1465       46912.00    205651.10
  255.77        2967.75           1468       46589.00    204226.90
  255.80        2968.00           1471       45612.00    199919.40
  255.83        2968.25           1475       44225.00    193806.10
  255.85        2968.50           1478       42127.00    184562.90
  255.88        2968.75           1481       39948.00    174968.00
  255.91        2969.00           1485       37096.00    162417.40
  255.93        2969.25           1488       34555.00    151242.90
  255.96        2969.50           1491       32243.00    141081.50
  255.99        2969.75           1495       29068.00    127136.60
  256.02        2970.00           1498       26930.00    117752.50
  256.04        2970.25           1501       24588.00    107478.60
  256.07        2970.50           1505       21781.00     95172.64
  256.10        2970.75           1508       19460.00     85003.74
  256.13        2971.00           1511       17153.00     74901.93
  256.15        2971.25           1515       14358.00     62670.91
  256.18        2971.50           1518       12211.00     53281.26
  256.21        2971.75           1521       10141.00     44233.05
  256.24        2972.00           1525        7206.00     31411.66
  256.26        2972.25           1528        5147.00     22422.53
  256.29        2972.50           1531        3224.00     14031.23
  256.32        2972.75           1535        1410.00      6119.18
  256.34        2973.00           1538         514.00      2212.43
  256.37        2973.25           1541         154.00       642.99
  256.40        2973.50           1545          52.00       198.34
  256.43        2973.75           1548          33.00       115.52
  256.45        2974.00           1551          30.00       102.44
  256.48        2974.25           1555          27.00        89.36
  256.51        2974.50           1558          28.00        93.72
  256.53        2974.75           1561          22.00        67.57
  256.56        2975.00           1565          22.00        67.57
  256.59        2975.25           1568          23.00        71.93
  256.62        2975.50           1571          18.00        50.13
  256.64        2975.75           1575          16.00        41.41
  256.67        2976.00           1578          21.00        63.21
  256.70        2976.25           1581          27.00        89.36
  256.72        2976.50           1585          16.00        41.41
  256.75        2976.75           1588          24.00        76.29
  256.78        2977.00           1591          22.00        67.57
  256.81        2977.25           1595          24.00        76.29
  256.83        2977.50           1598          20.00        58.85
  256.86        2977.75           1601          22.00        67.57
  256.89        2978.00           1605          25.00        80.65
  256.91        2978.25           1608          22.00        67.57
  256.94        2978.50           1611          21.00        63.21
  256.97        2978.75           1615          23.00        71.93
  257.00        2979.00           1618          22.00        67.57
  257.02        2979.25           1621          23.00        71.93
  257.05        2979.50           1625          19.00        54.49
  257.08        2979.75           1628          21.00        63.21
  257.10        2980.00           1631          19.00        54.49
  257.13        2980.25           1635          24.00        76.29
  257.16        2980.50           1638          22.00        67.57
  257.18        2980.75           1641          21.00        63.21
  257.21        2981.00           1645          15.00        37.05
  257.24        2981.25           1648          20.00        58.85
  257.27        2981.50           1651          24.00        76.29
  257.29        2981.75           1655          18.00        50.13
  257.32        2982.00           1658          18.00        50.13
  257.35        2982.25           1661          18.00        50.13
  257.37        2982.50           1665          15.00        37.05
  257.40        2982.75           1668          17.00        45.77
  257.43        2983.00           1671          21.00        63.21
  257.46        2983.25           1675          20.00        58.85
  257.48        2983.50           1678          19.00        54.49
  257.51        2983.75           1681          21.00        63.21
  257.54        2984.00           1685          24.00        76.29
HS scan finished at 04:17:44
end
