************************************************************
  HS Scan of (1) Internal mercury lamp
************************************************************
Integration time is 0.2294 seconds per sample
dh281118Tamanrasset 22.79-5.529 4.974364pr865
************************************************************
Dead Time -------------------------  2.8E-08 
Number of Cycles Used -------------  4 
Starting Wavelength (Angstroms) ---  2950 
Final Wavelength (Angstoms) -------  2984 
Wavelength Increment (Angstroms) --  .25 
Filter Wheel #1 Position ---------- (1) Ground quartz diffuser (ND=2.32)
Filter Wheel #2 Position ---------- (1) Neutral Density 0.494



************************************************************
HS scan start time = 04:10:36
Dark Count =  3.6 


Time (GMT)  Wavelength (Ang)  Step Number  Raw Counts  Counts/Second

  250.96        2950.00           1233          15.00        49.69
  251.02        2950.25           1236          17.00        58.41
  251.05        2950.50           1239          18.00        62.77
  251.08        2950.75           1242          16.00        54.05
  251.10        2951.00           1246          21.00        75.85
  251.13        2951.25           1249          19.00        67.13
  251.16        2951.50           1252          18.00        62.77
  251.19        2951.75           1256          17.00        58.41
  251.21        2952.00           1259          21.00        75.85
  251.24        2952.25           1262          19.00        67.13
  251.27        2952.50           1266          17.00        58.41
  251.29        2952.75           1269          23.00        84.57
  251.32        2953.00           1272          20.00        71.49
  251.35        2953.25           1276          23.00        84.57
  251.38        2953.50           1279          18.00        62.77
  251.40        2953.75           1282          22.00        80.21
  251.43        2954.00           1286          20.00        71.49
  251.46        2954.25           1289          20.00        71.49
  251.48        2954.50           1292          22.00        80.21
  251.51        2954.75           1295          20.00        71.49
  251.54        2955.00           1299          21.00        75.85
  251.57        2955.25           1302          18.00        62.77
  251.59        2955.50           1305          25.00        93.29
  251.62        2955.75           1309          24.00        88.93
  251.65        2956.00           1312          24.00        88.93
  251.67        2956.25           1315          22.00        80.21
  251.70        2956.50           1319          19.00        67.13
  251.73        2956.75           1322          18.00        62.77
  251.76        2957.00           1325          21.00        75.85
  251.78        2957.25           1329          22.00        80.21
  251.81        2957.50           1332          23.00        84.57
  251.84        2957.75           1335          23.00        84.57
  251.86        2958.00           1339          15.00        49.69
  251.89        2958.25           1342          23.00        84.57
  251.92        2958.50           1345          22.00        80.21
  251.95        2958.75           1348          16.00        54.05
  251.97        2959.00           1352          19.00        67.13
  252.00        2959.25           1355          17.00        58.41
  252.03        2959.50           1358          19.00        67.13
  252.05        2959.75           1362          24.00        88.93
  252.08        2960.00           1365          22.00        80.21
  252.11        2960.25           1368          25.00        93.29
  252.14        2960.50           1372          28.00       106.36
  252.16        2960.75           1375          38.00       149.96
  252.19        2961.00           1378          61.00       250.22
  252.22        2961.25           1382         340.00      1466.49
  252.24        2961.50           1385         889.00      3860.05
  252.27        2961.75           1388        1886.00      8207.64
  252.30        2962.00           1392        3882.00     16914.72
  252.33        2962.25           1395        5876.00     25617.32
  252.35        2962.50           1398        8106.00     35354.95
  252.38        2962.75           1402       10793.00     47095.20
  252.41        2963.00           1405       12974.00     56630.27
  252.44        2963.25           1408       15052.00     65719.79
  252.46        2963.50           1412       17910.00     78228.72
  252.49        2963.75           1415       19998.00     87373.03
  252.52        2964.00           1418       22050.00     96364.29
  252.55        2964.25           1422       24942.00    109043.90
  252.57        2964.50           1425       27227.00    119068.50
  252.60        2964.75           1428       29413.00    128664.10
  252.63        2965.00           1431       31606.00    138295.60
  252.65        2965.25           1435       34472.00    150890.70
  252.68        2965.50           1438       37058.00    162263.00
  252.71        2965.75           1441       39196.00    171670.60
  252.74        2966.00           1445       41976.00    183910.60
  252.76        2966.25           1448       43961.00    192655.40
  252.79        2966.50           1451       45550.00    199658.80
  252.82        2966.75           1455       46764.00    205011.30
  252.85        2967.00           1458       47205.00    206956.00
  252.87        2967.25           1461       47295.00    207353.00
  252.90        2967.50           1465       47211.00    206982.50
  252.93        2967.75           1468       46858.00    205425.80
  252.96        2968.00           1471       46130.00    202215.80
  252.98        2968.25           1475       44302.00    194158.10
  253.01        2968.50           1478       42383.00    185703.30
  253.04        2968.75           1481       40216.00    176160.60
  253.07        2969.00           1485       37345.00    163525.60
  253.09        2969.25           1488       34822.00    152429.50
  253.12        2969.50           1491       32709.00    143141.90
  253.15        2969.75           1495       29526.00    129160.30
  253.17        2970.00           1498       27125.00    118620.90
  253.20        2970.25           1501       25135.00    109890.40
  253.23        2970.50           1505       21981.00     96061.88
  253.26        2970.75           1508       19731.00     86203.47
  253.28        2971.00           1511       17429.00     76122.85
  253.31        2971.25           1515       14537.00     63466.65
  253.34        2971.50           1518       12217.00     53320.17
  253.37        2971.75           1521       10177.00     44403.04
  253.39        2972.00           1525        7306.00     31861.02
  253.42        2972.25           1528        5211.00     22714.53
  253.45        2972.50           1531        3384.00     14741.92
  253.47        2972.75           1535        1432.00      6227.76
  253.50        2973.00           1538         620.00      2687.21
  253.53        2973.25           1541         205.00       877.96
  253.56        2973.50           1545          45.00       180.47
  253.58        2973.75           1548          36.00       141.24
  253.61        2974.00           1551          27.00       102.01
  253.64        2974.25           1555          25.00        93.29
  253.66        2974.50           1558          24.00        88.93
  253.69        2974.75           1561          23.00        84.57
  253.72        2975.00           1565          19.00        67.13
  253.75        2975.25           1568          28.00       106.36
  253.77        2975.50           1571          24.00        88.93
  253.80        2975.75           1575          20.00        71.49
  253.83        2976.00           1578          18.00        62.77
  253.85        2976.25           1581          19.00        67.13
  253.88        2976.50           1585          22.00        80.21
  253.91        2976.75           1588          20.00        71.49
  253.94        2977.00           1591          19.00        67.13
  253.96        2977.25           1595          19.00        67.13
  253.99        2977.50           1598          20.00        71.49
  254.02        2977.75           1601          25.00        93.29
  254.04        2978.00           1605          23.00        84.57
  254.07        2978.25           1608          26.00        97.65
  254.10        2978.50           1611          18.00        62.77
  254.13        2978.75           1615          20.00        71.49
  254.15        2979.00           1618          23.00        84.57
  254.18        2979.25           1621          21.00        75.85
  254.21        2979.50           1625          22.00        80.21
  254.23        2979.75           1628          23.00        84.57
  254.26        2980.00           1631          24.00        88.93
  254.29        2980.25           1635          23.00        84.57
  254.32        2980.50           1638          21.00        75.85
  254.34        2980.75           1641          15.00        49.69
  254.37        2981.00           1645          21.00        75.85
  254.40        2981.25           1648          20.00        71.49
  254.42        2981.50           1651          17.00        58.41
  254.45        2981.75           1655          20.00        71.49
  254.48        2982.00           1658          23.00        84.57
  254.51        2982.25           1661          22.00        80.21
  254.53        2982.50           1665          19.00        67.13
  254.56        2982.75           1668          20.00        71.49
  254.59        2983.00           1671          16.00        54.05
  254.61        2983.25           1675          17.00        58.41
  254.64        2983.50           1678          18.00        62.77
  254.67        2983.75           1681          23.00        84.57
  254.70        2984.00           1685          23.00        84.57
HS scan finished at 04:14:53
end
