************************************************************
  HS Scan of (1) Internal mercury lamp
************************************************************
Integration time is 0.2294 seconds per sample
dh301118Tamanrasset 22.79-5.529 4.974364pr865
************************************************************
Dead Time -------------------------  2.8E-08 
Number of Cycles Used -------------  4 
Starting Wavelength (Angstroms) ---  2950 
Final Wavelength (Angstoms) -------  2984 
Wavelength Increment (Angstroms) --  .25 
Filter Wheel #1 Position ---------- (1) Ground quartz diffuser (ND=2.32)
Filter Wheel #2 Position ---------- (1) Neutral Density 0.494



************************************************************
HS scan start time = 04:12:59
Dark Count =  2.5 


Time (GMT)  Wavelength (Ang)  Step Number  Raw Counts  Counts/Second

  253.33        2950.00           1233          19.00        71.93
  253.40        2950.25           1236          22.00        85.00
  253.43        2950.50           1239          23.00        89.36
  253.45        2950.75           1242          22.00        85.00
  253.48        2951.00           1246          25.00        98.08
  253.51        2951.25           1249          24.00        93.72
  253.53        2951.50           1252          22.00        85.00
  253.56        2951.75           1256          19.00        71.93
  253.59        2952.00           1259          18.00        67.57
  253.62        2952.25           1262          18.00        67.57
  253.64        2952.50           1266          24.00        93.72
  253.67        2952.75           1269          20.00        76.29
  253.70        2953.00           1272          17.00        63.21
  253.72        2953.25           1276          21.00        80.65
  253.75        2953.50           1279          22.00        85.00
  253.78        2953.75           1282          23.00        89.36
  253.81        2954.00           1286          22.00        85.00
  253.83        2954.25           1289          21.00        80.65
  253.86        2954.50           1292          21.00        80.65
  253.89        2954.75           1295          22.00        85.00
  253.91        2955.00           1299          17.00        63.21
  253.94        2955.25           1302          19.00        71.93
  253.97        2955.50           1305          18.00        67.57
  254.00        2955.75           1309          18.00        67.57
  254.02        2956.00           1312          22.00        85.00
  254.05        2956.25           1315          19.00        71.93
  254.08        2956.50           1319          20.00        76.29
  254.11        2956.75           1322          22.00        85.00
  254.13        2957.00           1325          20.00        76.29
  254.16        2957.25           1329          20.00        76.29
  254.19        2957.50           1332          18.00        67.57
  254.21        2957.75           1335          20.00        76.29
  254.24        2958.00           1339          19.00        71.93
  254.27        2958.25           1342          19.00        71.93
  254.30        2958.50           1345          22.00        85.00
  254.32        2958.75           1348          21.00        80.65
  254.35        2959.00           1352          20.00        76.29
  254.38        2959.25           1355          19.00        71.93
  254.40        2959.50           1358          24.00        93.72
  254.43        2959.75           1362          21.00        80.65
  254.46        2960.00           1365          22.00        85.00
  254.49        2960.25           1368          28.00       111.16
  254.51        2960.50           1372          27.00       106.80
  254.54        2960.75           1375          34.00       137.32
  254.57        2961.00           1378          73.00       307.33
  254.59        2961.25           1382         351.00      1519.25
  254.62        2961.50           1385         967.00      4204.94
  254.65        2961.75           1388        2017.00      8783.76
  254.68        2962.00           1392        4251.00     18529.66
  254.70        2962.25           1395        6232.00     27176.30
  254.73        2962.50           1398        8304.00     36224.61
  254.76        2962.75           1402       10904.00     47585.16
  254.79        2963.00           1405       13089.00     57137.98
  254.81        2963.25           1408       15215.00     66437.77
  254.84        2963.50           1412       18110.00     79109.22
  254.87        2963.75           1415       20237.00     88424.85
  254.89        2964.00           1418       22554.00     98578.18
  254.92        2964.25           1422       25250.00    110399.60
  254.95        2964.50           1425       27208.00    118990.00
  254.98        2964.75           1428       29512.00    129103.60
  255.00        2965.00           1431       31790.00    139108.80
  255.03        2965.25           1435       34596.00    151440.70
  255.06        2965.50           1438       36916.00    161643.20
  255.09        2965.75           1441       39094.00    171226.50
  255.11        2966.00           1445       42047.00    184228.20
  255.14        2966.25           1448       44016.00    192902.70
  255.17        2966.50           1451       45402.00    199011.30
  255.20        2966.75           1455       46357.00    203221.50
  255.22        2967.00           1458       47037.00    206220.00
  255.25        2967.25           1461       46845.00    205373.30
  255.28        2967.50           1465       47108.00    206533.10
  255.31        2967.75           1468       46592.00    204257.70
  255.33        2968.00           1471       45763.00    200602.70
  255.36        2968.25           1475       44057.00    193083.40
  255.39        2968.50           1478       41988.00    183968.30
  255.41        2968.75           1481       39986.00    175152.90
  255.44        2969.00           1485       37140.00    162628.60
  255.47        2969.25           1488       34691.00    151858.40
  255.50        2969.50           1491       32457.00    142039.40
  255.52        2969.75           1495       29408.00    128647.00
  255.55        2970.00           1498       27308.00    119428.80
  255.58        2970.25           1501       24851.00    108649.60
  255.61        2970.50           1505       21988.00     96097.38
  255.63        2970.75           1508       19727.00     86190.76
  255.66        2971.00           1511       17311.00     75611.09
  255.69        2971.25           1515       14424.00     62977.13
  255.71        2971.50           1518       12109.00     52852.79
  255.74        2971.75           1521       10013.00     43691.17
  255.77        2972.00           1525        7223.00     31503.37
  255.80        2972.25           1528        5127.00     22352.70
  255.82        2972.50           1531        3305.00     14402.06
  255.85        2972.75           1535        1381.00      6010.17
  255.88        2973.00           1538         573.00      2487.10
  255.91        2973.25           1541         203.00       874.04
  255.93        2973.50           1545          46.00       189.63
  255.96        2973.75           1548          36.00       146.03
  255.99        2974.00           1551          32.00       128.60
  256.01        2974.25           1555          27.00       106.80
  256.04        2974.50           1558          29.00       115.52
  256.07        2974.75           1561          23.00        89.36
  256.10        2975.00           1565          22.00        85.00
  256.12        2975.25           1568          25.00        98.08
  256.15        2975.50           1571          18.00        67.57
  256.18        2975.75           1575          20.00        76.29
  256.20        2976.00           1578          22.00        85.00
  256.23        2976.25           1581          22.00        85.00
  256.26        2976.50           1585          23.00        89.36
  256.29        2976.75           1588          24.00        93.72
  256.31        2977.00           1591          19.00        71.93
  256.34        2977.25           1595          17.00        63.21
  256.37        2977.50           1598          18.00        67.57
  256.39        2977.75           1601          24.00        93.72
  256.42        2978.00           1605          22.00        85.00
  256.45        2978.25           1608          22.00        85.00
  256.47        2978.50           1611          24.00        93.72
  256.50        2978.75           1615          24.00        93.72
  256.53        2979.00           1618          21.00        80.65
  256.56        2979.25           1621          18.00        67.57
  256.58        2979.50           1625          19.00        71.93
  256.61        2979.75           1628          25.00        98.08
  256.64        2980.00           1631          16.00        58.85
  256.67        2980.25           1635          17.00        63.21
  256.69        2980.50           1638          18.00        67.57
  256.72        2980.75           1641          20.00        76.29
  256.75        2981.00           1645          19.00        71.93
  256.77        2981.25           1648          23.00        89.36
  256.80        2981.50           1651          23.00        89.36
  256.83        2981.75           1655          18.00        67.57
  256.86        2982.00           1658          17.00        63.21
  256.88        2982.25           1661          24.00        93.72
  256.91        2982.50           1665          20.00        76.29
  256.94        2982.75           1668          16.00        58.85
  256.96        2983.00           1671          19.00        71.93
  256.99        2983.25           1675          17.00        63.21
  257.02        2983.50           1678          20.00        76.29
  257.05        2983.75           1681          20.00        76.29
  257.07        2984.00           1685          19.00        71.93
HS scan finished at 04:17:16
end
