************************************************************
  HS Scan of (1) Internal mercury lamp
************************************************************
Integration time is 0.2294 seconds per sample
dh041218Tamanrasset 22.79-5.529 4.974364pr865
************************************************************
Dead Time -------------------------  2.8E-08 
Number of Cycles Used -------------  4 
Starting Wavelength (Angstroms) ---  2950 
Final Wavelength (Angstoms) -------  2984 
Wavelength Increment (Angstroms) --  .25 
Filter Wheel #1 Position ---------- (1) Ground quartz diffuser (ND=2.32)
Filter Wheel #2 Position ---------- (1) Neutral Density 0.494



************************************************************
HS scan start time = 04:15:00
Dark Count =  4 


Time (GMT)  Wavelength (Ang)  Step Number  Raw Counts  Counts/Second

  255.35        2950.00           1233          23.00        82.82
  255.42        2950.25           1236          24.00        87.18
  255.44        2950.50           1239          15.00        47.95
  255.47        2950.75           1242          20.00        69.75
  255.50        2951.00           1246          23.00        82.82
  255.52        2951.25           1249          17.00        56.67
  255.55        2951.50           1252          21.00        74.11
  255.58        2951.75           1256          21.00        74.11
  255.61        2952.00           1259          20.00        69.75
  255.63        2952.25           1262          18.00        61.03
  255.66        2952.50           1266          13.00        39.23
  255.69        2952.75           1269          16.00        52.31
  255.71        2953.00           1272          22.00        78.47
  255.74        2953.25           1276          14.00        43.59
  255.77        2953.50           1279          21.00        74.11
  255.80        2953.75           1282          20.00        69.75
  255.82        2954.00           1286          20.00        69.75
  255.85        2954.25           1289          16.00        52.31
  255.88        2954.50           1292          22.00        78.47
  255.90        2954.75           1295          18.00        61.03
  255.93        2955.00           1299          18.00        61.03
  255.96        2955.25           1302          19.00        65.39
  255.99        2955.50           1305          16.00        52.31
  256.01        2955.75           1309          18.00        61.03
  256.04        2956.00           1312          21.00        74.11
  256.07        2956.25           1315          21.00        74.11
  256.09        2956.50           1319          20.00        69.75
  256.12        2956.75           1322          17.00        56.67
  256.15        2957.00           1325          19.00        65.39
  256.18        2957.25           1329          21.00        74.11
  256.20        2957.50           1332          18.00        61.03
  256.23        2957.75           1335          21.00        74.11
  256.26        2958.00           1339          16.00        52.31
  256.28        2958.25           1342          16.00        52.31
  256.31        2958.50           1345          21.00        74.11
  256.34        2958.75           1348          21.00        74.11
  256.37        2959.00           1352          17.00        56.67
  256.39        2959.25           1355          23.00        82.82
  256.42        2959.50           1358          22.00        78.47
  256.45        2959.75           1362          21.00        74.11
  256.47        2960.00           1365          20.00        69.75
  256.50        2960.25           1368          21.00        74.11
  256.53        2960.50           1372          29.00       108.98
  256.56        2960.75           1375          30.00       113.34
  256.58        2961.00           1378          98.00       409.77
  256.61        2961.25           1382         436.00      1883.27
  256.64        2961.50           1385        1031.00      4477.46
  256.66        2961.75           1388        2062.00      8973.48
  256.69        2962.00           1392        4082.00     17785.66
  256.72        2962.25           1395        6029.00     26283.51
  256.75        2962.50           1398        8184.00     35693.90
  256.77        2962.75           1402       10712.00     46739.42
  256.80        2963.00           1405       12950.00     56523.57
  256.83        2963.25           1408       15020.00     65578.02
  256.85        2963.50           1412       17991.00     78581.61
  256.88        2963.75           1415       20110.00     87861.93
  256.91        2964.00           1418       22116.00     96651.79
  256.94        2964.25           1422       24792.00    108384.20
  256.96        2964.50           1425       26994.00    118044.30
  256.99        2964.75           1428       29395.00    128583.30
  257.02        2965.00           1431       31508.00    137863.30
  257.05        2965.25           1435       34522.00    151108.80
  257.07        2965.50           1438       36555.00    160048.70
  257.10        2965.75           1441       38716.00    169556.40
  257.13        2966.00           1445       41480.00    181724.40
  257.16        2966.25           1448       43630.00    191195.20
  257.18        2966.50           1451       44943.00    196981.50
  257.21        2966.75           1455       46163.00    202359.60
  257.24        2967.00           1458       46898.00    205600.40
  257.27        2967.25           1461       47086.00    206429.50
  257.29        2967.50           1465       46554.00    204083.60
  257.32        2967.75           1468       46387.00    203347.20
  257.35        2968.00           1471       45725.00    200428.50
  257.37        2968.25           1475       44031.00    192962.20
  257.40        2968.50           1478       42157.00    184706.10
  257.43        2968.75           1481       40019.00    175291.60
  257.46        2969.00           1485       37140.00    162622.00
  257.48        2969.25           1488       34793.00    152300.20
  257.51        2969.50           1491       32417.00    141857.00
  257.54        2969.75           1495       29617.00    129558.10
  257.57        2970.00           1498       27344.00    119580.20
  257.59        2970.25           1501       24987.00    109239.50
  257.62        2970.50           1505       22281.00     97374.99
  257.65        2970.75           1508       19993.00     87349.38
  257.68        2971.00           1511       17705.00     77329.43
  257.70        2971.25           1515       14937.00     65214.88
  257.73        2971.50           1518       12833.00     56011.93
  257.76        2971.75           1521       10652.00     46477.19
  257.78        2972.00           1525        7697.00     33566.85
  257.81        2972.25           1528        5544.00     24166.30
  257.84        2972.50           1531        3631.00     15817.82
  257.87        2972.75           1535        1667.00      7250.82
  257.89        2973.00           1538         662.00      2868.58
  257.92        2973.25           1541         223.00       954.69
  257.95        2973.50           1545          51.00       204.88
  257.98        2973.75           1548          36.00       139.49
  258.00        2974.00           1551          27.00       100.26
  258.03        2974.25           1555          26.00        95.90
  258.06        2974.50           1558          26.00        95.90
  258.08        2974.75           1561          23.00        82.82
  258.11        2975.00           1565          17.00        56.67
  258.14        2975.25           1568          21.00        74.11
  258.17        2975.50           1571          23.00        82.82
  258.19        2975.75           1575          23.00        82.82
  258.22        2976.00           1578          21.00        74.11
  258.25        2976.25           1581          20.00        69.75
  258.27        2976.50           1585          21.00        74.11
  258.30        2976.75           1588          22.00        78.47
  258.33        2977.00           1591          19.00        65.39
  258.36        2977.25           1595          20.00        69.75
  258.38        2977.50           1598          13.00        39.23
  258.41        2977.75           1601          22.00        78.47
  258.44        2978.00           1605          19.00        65.39
  258.46        2978.25           1608          20.00        69.75
  258.49        2978.50           1611          21.00        74.11
  258.52        2978.75           1615          22.00        78.47
  258.55        2979.00           1618          19.00        65.39
  258.57        2979.25           1621          22.00        78.47
  258.60        2979.50           1625          20.00        69.75
  258.63        2979.75           1628          25.00        91.54
  258.65        2980.00           1631          26.00        95.90
  258.68        2980.25           1635          25.00        91.54
  258.71        2980.50           1638          22.00        78.47
  258.74        2980.75           1641          22.00        78.47
  258.76        2981.00           1645          19.00        65.39
  258.79        2981.25           1648          23.00        82.82
  258.82        2981.50           1651          24.00        87.18
  258.84        2981.75           1655          22.00        78.47
  258.87        2982.00           1658          23.00        82.82
  258.90        2982.25           1661          19.00        65.39
  258.93        2982.50           1665          21.00        74.11
  258.95        2982.75           1668          18.00        61.03
  258.98        2983.00           1671          25.00        91.54
  259.01        2983.25           1675          16.00        52.31
  259.03        2983.50           1678          20.00        69.75
  259.06        2983.75           1681          18.00        61.03
  259.09        2984.00           1685          16.00        52.31
HS scan finished at 04:19:17
end
