************************************************************
  HS Scan of (1) Internal mercury lamp
************************************************************
Integration time is 0.2294 seconds per sample
dh291118Tamanrasset 22.79-5.529 4.974364pr865
************************************************************
Dead Time -------------------------  2.8E-08 
Number of Cycles Used -------------  4 
Starting Wavelength (Angstroms) ---  2950 
Final Wavelength (Angstoms) -------  2984 
Wavelength Increment (Angstroms) --  .25 
Filter Wheel #1 Position ---------- (1) Ground quartz diffuser (ND=2.32)
Filter Wheel #2 Position ---------- (1) Neutral Density 0.494



************************************************************
HS scan start time = 04:12:28
Dark Count =  4.4 


Time (GMT)  Wavelength (Ang)  Step Number  Raw Counts  Counts/Second

  252.83        2950.00           1233          18.00        59.29
  252.89        2950.25           1236          20.00        68.00
  252.92        2950.50           1239          16.00        50.57
  252.95        2950.75           1242          19.00        63.64
  252.98        2951.00           1246          23.00        81.08
  253.00        2951.25           1249          23.00        81.08
  253.03        2951.50           1252          24.00        85.44
  253.06        2951.75           1256          16.00        50.57
  253.08        2952.00           1259          25.00        89.80
  253.11        2952.25           1262          14.00        41.85
  253.14        2952.50           1266          21.00        72.36
  253.17        2952.75           1269          17.00        54.93
  253.19        2953.00           1272          21.00        72.36
  253.22        2953.25           1276          21.00        72.36
  253.25        2953.50           1279          21.00        72.36
  253.27        2953.75           1282          16.00        50.57
  253.30        2954.00           1286          19.00        63.64
  253.33        2954.25           1289          17.00        54.93
  253.36        2954.50           1292          17.00        54.93
  253.38        2954.75           1295          23.00        81.08
  253.41        2955.00           1299          21.00        72.36
  253.44        2955.25           1302          18.00        59.29
  253.46        2955.50           1305          16.00        50.57
  253.49        2955.75           1309          18.00        59.29
  253.52        2956.00           1312          18.00        59.29
  253.55        2956.25           1315          16.00        50.57
  253.57        2956.50           1319          18.00        59.29
  253.60        2956.75           1322          20.00        68.00
  253.63        2957.00           1325          20.00        68.00
  253.66        2957.25           1329          15.00        46.21
  253.68        2957.50           1332          20.00        68.00
  253.71        2957.75           1335          22.00        76.72
  253.74        2958.00           1339          24.00        85.44
  253.76        2958.25           1342          22.00        76.72
  253.79        2958.50           1345          21.00        72.36
  253.82        2958.75           1348          19.00        63.64
  253.84        2959.00           1352          21.00        72.36
  253.87        2959.25           1355          17.00        54.93
  253.90        2959.50           1358          21.00        72.36
  253.93        2959.75           1362          21.00        72.36
  253.95        2960.00           1365          26.00        94.16
  253.98        2960.25           1368          27.00        98.52
  254.01        2960.50           1372          22.00        76.72
  254.04        2960.75           1375          34.00       129.03
  254.06        2961.00           1378          91.00       377.51
  254.09        2961.25           1382         407.00      1755.10
  254.12        2961.50           1385         999.00      4336.18
  254.14        2961.75           1388        2001.00      8705.70
  254.17        2962.00           1392        4187.00     18242.10
  254.20        2962.25           1395        6196.00     27010.83
  254.23        2962.50           1398        8351.00     36421.60
  254.25        2962.75           1402       11414.00     49806.12
  254.28        2963.00           1405       13666.00     59653.17
  254.31        2963.25           1408       15886.00     69365.65
  254.34        2963.50           1412       18830.00     82253.74
  254.36        2963.75           1415       21230.00     92767.25
  254.39        2964.00           1418       23405.00    102300.50
  254.42        2964.25           1422       26301.00    115001.80
  254.45        2964.50           1425       28327.00    123892.90
  254.47        2964.75           1428       30779.00    134659.40
  254.50        2965.00           1431       32906.00    144004.10
  254.53        2965.25           1435       36022.00    157702.70
  254.56        2965.50           1438       38153.00    167077.10
  254.58        2965.75           1441       40684.00    178217.60
  254.61        2966.00           1445       43377.00    190078.70
  254.64        2966.25           1448       45499.00    199430.50
  254.67        2966.50           1451       47009.00    206088.20
  254.69        2966.75           1455       48036.00    210617.70
  254.72        2967.00           1458       48764.00    213829.20
  254.75        2967.25           1461       48806.00    214014.50
  254.77        2967.50           1465       48582.00    213026.30
  254.80        2967.75           1468       48036.00    210617.70
  254.83        2968.00           1471       47065.00    206335.10
  254.86        2968.25           1475       45242.00    198297.60
  254.88        2968.50           1478       43356.00    189986.20
  254.91        2968.75           1481       41047.00    179815.90
  254.94        2969.00           1485       38045.00    166601.90
  254.97        2969.25           1488       35742.00    156471.30
  254.99        2969.50           1491       33509.00    146654.20
  255.02        2969.75           1495       30565.00    133719.40
  255.05        2970.00           1498       27773.00    121461.20
  255.07        2970.25           1501       25805.00    112825.80
  255.10        2970.50           1505       22514.00     98394.52
  255.13        2970.75           1508       20216.00     88324.52
  255.16        2971.00           1511       18024.00     78724.34
  255.18        2971.25           1515       15038.00     65655.03
  255.21        2971.50           1518       12674.00     55314.90
  255.24        2971.75           1521       10582.00     46169.50
  255.27        2972.00           1525        7533.00     32848.86
  255.29        2972.25           1528        5401.00     23540.36
  255.32        2972.50           1531        3402.00     14816.96
  255.35        2972.75           1535        1517.00      6594.94
  255.38        2973.00           1538         604.00      2613.97
  255.40        2973.25           1541         206.00       878.84
  255.43        2973.50           1545          47.00       185.70
  255.46        2973.75           1548          32.00       120.31
  255.48        2974.00           1551          29.00       107.24
  255.51        2974.25           1555          32.00       120.31
  255.54        2974.50           1558          25.00        89.80
  255.57        2974.75           1561          23.00        81.08
  255.59        2975.00           1565          25.00        89.80
  255.62        2975.25           1568          21.00        72.36
  255.65        2975.50           1571          20.00        68.00
  255.67        2975.75           1575          25.00        89.80
  255.70        2976.00           1578          25.00        89.80
  255.73        2976.25           1581          20.00        68.00
  255.76        2976.50           1585          21.00        72.36
  255.78        2976.75           1588          20.00        68.00
  255.81        2977.00           1591          23.00        81.08
  255.84        2977.25           1595          21.00        72.36
  255.87        2977.50           1598          22.00        76.72
  255.89        2977.75           1601          21.00        72.36
  255.92        2978.00           1605          20.00        68.00
  255.95        2978.25           1608          22.00        76.72
  255.97        2978.50           1611          22.00        76.72
  256.00        2978.75           1615          22.00        76.72
  256.03        2979.00           1618          20.00        68.00
  256.06        2979.25           1621          23.00        81.08
  256.08        2979.50           1625          20.00        68.00
  256.11        2979.75           1628          23.00        81.08
  256.14        2980.00           1631          23.00        81.08
  256.16        2980.25           1635          23.00        81.08
  256.19        2980.50           1638          20.00        68.00
  256.22        2980.75           1641          23.00        81.08
  256.25        2981.00           1645          21.00        72.36
  256.27        2981.25           1648          22.00        76.72
  256.30        2981.50           1651          24.00        85.44
  256.33        2981.75           1655          22.00        76.72
  256.35        2982.00           1658          18.00        59.29
  256.38        2982.25           1661          23.00        81.08
  256.41        2982.50           1665          16.00        50.57
  256.44        2982.75           1668          25.00        89.80
  256.46        2983.00           1671          19.00        63.64
  256.49        2983.25           1675          14.00        41.85
  256.52        2983.50           1678          19.00        63.64
  256.54        2983.75           1681          20.00        68.00
  256.57        2984.00           1685          18.00        59.29
HS scan finished at 04:16:46
end
