************************************************************
  HS Scan of (1) Internal mercury lamp
************************************************************
Integration time is 0.2294 seconds per sample
dh051218Tamanrasset 22.79-5.529 4.974364pr865
************************************************************
Dead Time -------------------------  2.8E-08 
Number of Cycles Used -------------  4 
Starting Wavelength (Angstroms) ---  2950 
Final Wavelength (Angstoms) -------  2984 
Wavelength Increment (Angstroms) --  .25 
Filter Wheel #1 Position ---------- (1) Ground quartz diffuser (ND=2.32)
Filter Wheel #2 Position ---------- (1) Neutral Density 0.494



************************************************************
HS scan start time = 04:14:57
Dark Count =  5.5 


Time (GMT)  Wavelength (Ang)  Step Number  Raw Counts  Counts/Second

  255.30        2950.00           1233          20.00        63.21
  255.36        2950.25           1236          22.00        71.93
  255.39        2950.50           1239          18.00        54.49
  255.42        2950.75           1242          20.00        63.21
  255.44        2951.00           1246          18.00        54.49
  255.47        2951.25           1249          18.00        54.49
  255.50        2951.50           1252          20.00        63.21
  255.53        2951.75           1256          16.00        45.77
  255.55        2952.00           1259          22.00        71.93
  255.58        2952.25           1262          19.00        58.85
  255.61        2952.50           1266          23.00        76.29
  255.63        2952.75           1269          22.00        71.93
  255.66        2953.00           1272          21.00        67.57
  255.69        2953.25           1276          19.00        58.85
  255.72        2953.50           1279          21.00        67.57
  255.74        2953.75           1282          24.00        80.65
  255.77        2954.00           1286          19.00        58.85
  255.80        2954.25           1289          22.00        71.93
  255.82        2954.50           1292          18.00        54.49
  255.85        2954.75           1295          20.00        63.21
  255.88        2955.00           1299          16.00        45.77
  255.91        2955.25           1302          17.00        50.13
  255.93        2955.50           1305          19.00        58.85
  255.96        2955.75           1309          22.00        71.93
  255.99        2956.00           1312          18.00        54.49
  256.01        2956.25           1315          22.00        71.93
  256.04        2956.50           1319          18.00        54.49
  256.07        2956.75           1322          22.00        71.93
  256.10        2957.00           1325          18.00        54.49
  256.12        2957.25           1329          15.00        41.41
  256.15        2957.50           1332          22.00        71.93
  256.18        2957.75           1335          21.00        67.57
  256.20        2958.00           1339          23.00        76.29
  256.23        2958.25           1342          25.00        85.00
  256.26        2958.50           1345          21.00        67.57
  256.29        2958.75           1348          15.00        41.41
  256.31        2959.00           1352          20.00        63.21
  256.34        2959.25           1355          26.00        89.36
  256.37        2959.50           1358          19.00        58.85
  256.40        2959.75           1362          24.00        80.65
  256.42        2960.00           1365          22.00        71.93
  256.45        2960.25           1368          23.00        76.29
  256.48        2960.50           1372          33.00       119.88
  256.50        2960.75           1375          34.00       124.24
  256.53        2961.00           1378          88.00       359.64
  256.56        2961.25           1382         453.00      1950.85
  256.59        2961.50           1385        1018.00      4414.23
  256.61        2961.75           1388        2122.00      9228.63
  256.64        2962.00           1392        4387.00     19110.05
  256.67        2962.25           1395        6326.00     27573.59
  256.69        2962.50           1398        8577.00     37404.02
  256.72        2962.75           1402       11363.00     49578.37
  256.75        2963.00           1405       13511.00     58970.44
  256.78        2963.25           1408       15692.00     68511.87
  256.80        2963.50           1412       18528.00     80926.41
  256.83        2963.75           1415       20553.00     89796.12
  256.86        2964.00           1418       22798.00     99634.59
  256.89        2964.25           1422       25591.00    111882.20
  256.91        2964.50           1425       27723.00    121236.90
  256.94        2964.75           1428       29916.00    130864.40
  256.97        2965.00           1431       31947.00    139785.40
  257.00        2965.25           1435       35003.00    153216.90
  257.02        2965.50           1438       37271.00    163191.70
  257.05        2965.75           1441       39519.00    173084.00
  257.08        2966.00           1445       42256.00    185135.50
  257.10        2966.25           1448       44092.00    193224.40
  257.13        2966.50           1451       45527.00    199549.10
  257.16        2966.75           1455       46451.00    203622.80
  257.19        2967.00           1458       46748.00    204932.40
  257.22        2967.25           1461       47034.00    206193.60
  257.24        2967.50           1465       46705.00    204742.80
  257.27        2967.75           1468       46438.00    203565.50
  257.30        2968.00           1471       45560.00    199694.60
  257.32        2968.25           1475       43550.00    190836.10
  257.35        2968.50           1478       41580.00    182158.20
  257.38        2968.75           1481       39499.00    172995.90
  257.41        2969.00           1485       36508.00    159835.40
  257.43        2969.25           1488       34219.00    149770.20
  257.46        2969.50           1491       31985.00    139952.30
  257.49        2969.75           1495       28920.00    126491.20
  257.52        2970.00           1498       26711.00    116795.90
  257.54        2970.25           1501       24490.00    107053.20
  257.57        2970.50           1505       21566.00     94234.81
  257.60        2970.75           1508       19368.00     84605.16
  257.63        2971.00           1511       17031.00     74372.24
  257.65        2971.25           1515       14351.00     62644.66
  257.68        2971.50           1518       12186.00     53176.33
  257.71        2971.75           1521        9916.00     43254.19
  257.73        2972.00           1525        7215.00     31455.33
  257.76        2972.25           1528        5096.00     22204.30
  257.79        2972.50           1531        3264.00     14210.10
  257.82        2972.75           1535        1342.00      5827.02
  257.84        2973.00           1538         545.00      2351.94
  257.87        2973.25           1541         166.00       699.67
  257.90        2973.50           1545          47.00       180.91
  257.93        2973.75           1548          36.00       132.96
  257.95        2974.00           1551          28.00        98.08
  257.98        2974.25           1555          25.00        85.00
  258.01        2974.50           1558          22.00        71.93
  258.03        2974.75           1561          24.00        80.65
  258.06        2975.00           1565          23.00        76.29
  258.09        2975.25           1568          23.00        76.29
  258.12        2975.50           1571          24.00        80.65
  258.14        2975.75           1575          26.00        89.36
  258.17        2976.00           1578          20.00        63.21
  258.20        2976.25           1581          22.00        71.93
  258.22        2976.50           1585          16.00        45.77
  258.25        2976.75           1588          25.00        85.00
  258.28        2977.00           1591          20.00        63.21
  258.30        2977.25           1595          18.00        54.49
  258.33        2977.50           1598          22.00        71.93
  258.36        2977.75           1601          21.00        67.57
  258.39        2978.00           1605          25.00        85.00
  258.41        2978.25           1608          22.00        71.93
  258.44        2978.50           1611          22.00        71.93
  258.47        2978.75           1615          25.00        85.00
  258.50        2979.00           1618          20.00        63.21
  258.52        2979.25           1621          22.00        71.93
  258.55        2979.50           1625          22.00        71.93
  258.58        2979.75           1628          21.00        67.57
  258.60        2980.00           1631          19.00        58.85
  258.63        2980.25           1635          18.00        54.49
  258.66        2980.50           1638          16.00        45.77
  258.69        2980.75           1641          17.00        50.13
  258.71        2981.00           1645          19.00        58.85
  258.74        2981.25           1648          19.00        58.85
  258.77        2981.50           1651          26.00        89.36
  258.79        2981.75           1655          18.00        54.49
  258.82        2982.00           1658          20.00        63.21
  258.85        2982.25           1661          19.00        58.85
  258.88        2982.50           1665          18.00        54.49
  258.90        2982.75           1668          21.00        67.57
  258.93        2983.00           1671          18.00        54.49
  258.96        2983.25           1675          22.00        71.93
  258.98        2983.50           1678          19.00        58.85
  259.01        2983.75           1681          19.00        58.85
  259.04        2984.00           1685          19.00        58.85
HS scan finished at 04:19:14
end
