************************************************************
  HS Scan of (1) Internal mercury lamp
************************************************************
Integration time is 0.2294 seconds per sample
dh261118Tamanrasset 22.79-5.529 4.974364pr865
************************************************************
Dead Time -------------------------  2.8E-08 
Number of Cycles Used -------------  4 
Starting Wavelength (Angstroms) ---  2950 
Final Wavelength (Angstoms) -------  2984 
Wavelength Increment (Angstroms) --  .25 
Filter Wheel #1 Position ---------- (1) Ground quartz diffuser (ND=2.32)
Filter Wheel #2 Position ---------- (1) Neutral Density 0.494



************************************************************
HS scan start time = 04:10:00
Dark Count =  3.3 


Time (GMT)  Wavelength (Ang)  Step Number  Raw Counts  Counts/Second

  250.36        2950.00           1233          23.00        85.88
  250.42        2950.25           1236          19.00        68.44
  250.45        2950.50           1239          18.00        64.08
  250.47        2950.75           1242          22.00        81.52
  250.50        2951.00           1246          21.00        77.16
  250.53        2951.25           1249          18.00        64.08
  250.56        2951.50           1252          18.00        64.08
  250.58        2951.75           1256          22.00        81.52
  250.61        2952.00           1259          22.00        81.52
  250.64        2952.25           1262          18.00        64.08
  250.66        2952.50           1266          21.00        77.16
  250.69        2952.75           1269          16.00        55.36
  250.72        2953.00           1272          21.00        77.16
  250.75        2953.25           1276          23.00        85.88
  250.77        2953.50           1279          19.00        68.44
  250.80        2953.75           1282          19.00        68.44
  250.83        2954.00           1286          16.00        55.36
  250.86        2954.25           1289          23.00        85.88
  250.88        2954.50           1292          16.00        55.36
  250.91        2954.75           1295          19.00        68.44
  250.94        2955.00           1299          23.00        85.88
  250.96        2955.25           1302          24.00        90.24
  250.99        2955.50           1305          21.00        77.16
  251.02        2955.75           1309          19.00        68.44
  251.05        2956.00           1312          24.00        90.24
  251.07        2956.25           1315          23.00        85.88
  251.10        2956.50           1319          23.00        85.88
  251.13        2956.75           1322          21.00        77.16
  251.15        2957.00           1325          20.00        72.80
  251.18        2957.25           1329          22.00        81.52
  251.21        2957.50           1332          21.00        77.16
  251.24        2957.75           1335          22.00        81.52
  251.26        2958.00           1339          20.00        72.80
  251.29        2958.25           1342          24.00        90.24
  251.32        2958.50           1345          18.00        64.08
  251.34        2958.75           1348          19.00        68.44
  251.37        2959.00           1352          20.00        72.80
  251.40        2959.25           1355          20.00        72.80
  251.43        2959.50           1358          21.00        77.16
  251.45        2959.75           1362          19.00        68.44
  251.48        2960.00           1365          24.00        90.24
  251.51        2960.25           1368          26.00        98.95
  251.53        2960.50           1372          31.00       120.75
  251.56        2960.75           1375          33.00       129.47
  251.59        2961.00           1378          61.00       251.53
  251.62        2961.25           1382         353.00      1524.48
  251.64        2961.50           1385         921.00      4000.88
  251.67        2961.75           1388        1914.00      8331.06
  251.70        2962.00           1392        3964.00     17273.83
  251.73        2962.25           1395        5869.00     25588.08
  251.75        2962.50           1398        8032.00     35033.04
  251.78        2962.75           1402       10667.00     46545.81
  251.81        2963.00           1405       13014.00     56806.50
  251.84        2963.25           1408       14985.00     65427.96
  251.86        2963.50           1412       17960.00     78448.93
  251.89        2963.75           1415       20031.00     87518.91
  251.92        2964.00           1418       22311.00     97509.54
  251.94        2964.25           1422       25176.00    110071.50
  251.97        2964.50           1425       27314.00    119451.60
  252.00        2964.75           1428       29614.00    129548.00
  252.03        2965.00           1431       31740.00    138885.60
  252.05        2965.25           1435       34696.00    151876.90
  252.08        2965.50           1438       37037.00    162172.00
  252.11        2965.75           1441       39120.00    171337.50
  252.14        2966.00           1445       41950.00    183797.40
  252.16        2966.25           1448       43886.00    192326.30
  252.19        2966.50           1451       45254.00    198355.40
  252.22        2966.75           1455       46623.00    204390.90
  252.25        2967.00           1458       47109.00    206534.00
  252.27        2967.25           1461       47225.00    207045.60
  252.30        2967.50           1465       47039.00    206225.30
  252.33        2967.75           1468       46886.00    205550.60
  252.36        2968.00           1471       46212.00    202578.70
  252.38        2968.25           1475       44225.00    193820.10
  252.41        2968.50           1478       42567.00    186515.10
  252.44        2968.75           1481       40423.00    177073.20
  252.47        2969.00           1485       37488.00    164156.00
  252.49        2969.25           1488       35054.00    153450.90
  252.52        2969.50           1491       32825.00    143652.90
  252.55        2969.75           1495       29763.00    130202.20
  252.57        2970.00           1498       27476.00    120162.60
  252.60        2970.25           1501       25366.00    110904.90
  252.63        2970.50           1505       22234.00     97172.06
  252.66        2970.75           1508       20259.00     88517.72
  252.68        2971.00           1511       18049.00     78838.62
  252.71        2971.25           1515       15152.00     66158.63
  252.74        2971.50           1518       13043.00     56933.32
  252.77        2971.75           1521       10804.00     47144.59
  252.79        2972.00           1525        7931.00     34591.90
  252.82        2972.25           1528        5790.00     25243.21
  252.85        2972.50           1531        3813.00     16614.96
  252.88        2972.75           1535        1775.00      7724.86
  252.90        2973.00           1538         777.00      3373.03
  252.93        2973.25           1541         275.00      1184.43
  252.96        2973.50           1545          62.00       255.89
  252.98        2973.75           1548          36.00       142.55
  253.01        2974.00           1551          33.00       129.47
  253.04        2974.25           1555          27.00       103.31
  253.07        2974.50           1558          26.00        98.95
  253.09        2974.75           1561          24.00        90.24
  253.12        2975.00           1565          22.00        81.52
  253.15        2975.25           1568          25.00        94.59
  253.17        2975.50           1571          22.00        81.52
  253.20        2975.75           1575          24.00        90.24
  253.23        2976.00           1578          21.00        77.16
  253.26        2976.25           1581          22.00        81.52
  253.28        2976.50           1585          20.00        72.80
  253.31        2976.75           1588          24.00        90.24
  253.34        2977.00           1591          24.00        90.24
  253.36        2977.25           1595          18.00        64.08
  253.39        2977.50           1598          21.00        77.16
  253.42        2977.75           1601          25.00        94.59
  253.44        2978.00           1605          19.00        68.44
  253.47        2978.25           1608          23.00        85.88
  253.50        2978.50           1611          20.00        72.80
  253.53        2978.75           1615          25.00        94.59
  253.55        2979.00           1618          21.00        77.16
  253.58        2979.25           1621          20.00        72.80
  253.61        2979.50           1625          22.00        81.52
  253.64        2979.75           1628          18.00        64.08
  253.66        2980.00           1631          16.00        55.36
  253.69        2980.25           1635          22.00        81.52
  253.72        2980.50           1638          20.00        72.80
  253.74        2980.75           1641          22.00        81.52
  253.77        2981.00           1645          20.00        72.80
  253.80        2981.25           1648          21.00        77.16
  253.83        2981.50           1651          19.00        68.44
  253.85        2981.75           1655          18.00        64.08
  253.88        2982.00           1658          20.00        72.80
  253.91        2982.25           1661          17.00        59.72
  253.93        2982.50           1665          19.00        68.44
  253.96        2982.75           1668          20.00        72.80
  253.99        2983.00           1671          20.00        72.80
  254.01        2983.25           1675          20.00        72.80
  254.04        2983.50           1678          18.00        64.08
  254.07        2983.75           1681          20.00        72.80
  254.10        2984.00           1685          24.00        90.24
HS scan finished at 04:14:17
end
