************************************************************
  HS Scan of (1) Internal mercury lamp
************************************************************
Integration time is 0.2294 seconds per sample
dh271118Tamanrasset 22.79-5.529 4.974364pr865
************************************************************
Dead Time -------------------------  2.8E-08 
Number of Cycles Used -------------  4 
Starting Wavelength (Angstroms) ---  2950 
Final Wavelength (Angstoms) -------  2984 
Wavelength Increment (Angstroms) --  .25 
Filter Wheel #1 Position ---------- (1) Ground quartz diffuser (ND=2.32)
Filter Wheel #2 Position ---------- (1) Neutral Density 0.494



************************************************************
HS scan start time = 04:11:28
Dark Count =  5 


Time (GMT)  Wavelength (Ang)  Step Number  Raw Counts  Counts/Second

  251.82        2950.00           1233          20.00        65.39
  251.89        2950.25           1236          22.00        74.11
  251.91        2950.50           1239          17.00        52.31
  251.94        2950.75           1242          21.00        69.75
  251.97        2951.00           1246          20.00        65.39
  251.99        2951.25           1249          19.00        61.03
  252.02        2951.50           1252          19.00        61.03
  252.05        2951.75           1256          19.00        61.03
  252.08        2952.00           1259          23.00        78.47
  252.10        2952.25           1262          20.00        65.39
  252.13        2952.50           1266          20.00        65.39
  252.16        2952.75           1269          21.00        69.75
  252.19        2953.00           1272          16.00        47.95
  252.21        2953.25           1276          23.00        78.47
  252.24        2953.50           1279          20.00        65.39
  252.27        2953.75           1282          19.00        61.03
  252.29        2954.00           1286          16.00        47.95
  252.32        2954.25           1289          20.00        65.39
  252.35        2954.50           1292          19.00        61.03
  252.38        2954.75           1295          21.00        69.75
  252.40        2955.00           1299          16.00        47.95
  252.43        2955.25           1302          20.00        65.39
  252.46        2955.50           1305          20.00        65.39
  252.48        2955.75           1309          23.00        78.47
  252.51        2956.00           1312          21.00        69.75
  252.54        2956.25           1315          18.00        56.67
  252.57        2956.50           1319          20.00        65.39
  252.59        2956.75           1322          20.00        65.39
  252.62        2957.00           1325          20.00        65.39
  252.65        2957.25           1329          17.00        52.31
  252.68        2957.50           1332          21.00        69.75
  252.70        2957.75           1335          19.00        61.03
  252.73        2958.00           1339          18.00        56.67
  252.76        2958.25           1342          20.00        65.39
  252.78        2958.50           1345          20.00        65.39
  252.81        2958.75           1348          22.00        74.11
  252.84        2959.00           1352          20.00        65.39
  252.86        2959.25           1355          21.00        69.75
  252.89        2959.50           1358          23.00        78.47
  252.92        2959.75           1362          24.00        82.82
  252.95        2960.00           1365          20.00        65.39
  252.97        2960.25           1368          24.00        82.82
  253.00        2960.50           1372          28.00       100.26
  253.03        2960.75           1375          38.00       143.85
  253.05        2961.00           1378          73.00       296.43
  253.08        2961.25           1382         373.00      1604.26
  253.11        2961.50           1385         924.00      4006.55
  253.14        2961.75           1388        1932.00      8402.15
  253.16        2962.00           1392        4132.00     17999.48
  253.19        2962.25           1395        6183.00     26951.46
  253.22        2962.50           1398        8402.00     36641.76
  253.25        2962.75           1402       11236.00     49025.40
  253.27        2963.00           1405       13463.00     58762.70
  253.30        2963.25           1408       15633.00     68255.87
  253.33        2963.50           1412       18227.00     79610.57
  253.35        2963.75           1415       20511.00     89614.29
  253.38        2964.00           1418       22502.00     98339.28
  253.41        2964.25           1422       25521.00    111577.30
  253.44        2964.50           1425       27755.00    121379.60
  253.46        2964.75           1428       30112.00    131727.30
  253.49        2965.00           1431       32158.00    140714.60
  253.52        2965.25           1435       34962.00    153038.90
  253.55        2965.50           1438       37439.00    163933.00
  253.57        2965.75           1441       39555.00    173244.60
  253.60        2966.00           1445       42688.00    187040.70
  253.63        2966.25           1448       44323.00    194244.60
  253.66        2966.50           1451       45932.00    201336.70
  253.68        2966.75           1455       47098.00    206478.00
  253.71        2967.00           1458       47664.00    208974.20
  253.74        2967.25           1461       47569.00    208555.20
  253.77        2967.50           1465       47369.00    207673.20
  253.79        2967.75           1468       47132.00    206627.90
  253.82        2968.00           1471       46241.00    202699.10
  253.85        2968.25           1475       44432.00    194724.90
  253.87        2968.50           1478       42623.00    186754.30
  253.90        2968.75           1481       40537.00    177567.70
  253.93        2969.00           1485       37332.00    163462.20
  253.96        2969.25           1488       34875.00    152656.40
  253.98        2969.50           1491       32655.00    142898.40
  254.01        2969.75           1495       29584.00    129408.80
  254.04        2970.00           1498       27540.00    120436.00
  254.07        2970.25           1501       25152.00    109958.80
  254.09        2970.50           1505       22322.00     97550.31
  254.12        2970.75           1508       20072.00     87691.07
  254.15        2971.00           1511       17585.00     76799.68
  254.17        2971.25           1515       14710.00     64217.37
  254.20        2971.50           1518       12583.00     54914.37
  254.23        2971.75           1521       10426.00     45485.10
  254.26        2972.00           1525        7547.00     32907.38
  254.28        2972.25           1528        5489.00     23921.86
  254.31        2972.50           1531        3550.00     15460.05
  254.34        2972.75           1535        1604.00      6971.72
  254.37        2973.00           1538         670.00      2899.10
  254.39        2973.25           1541         213.00       906.74
  254.42        2973.50           1545          45.00       174.37
  254.45        2973.75           1548          37.00       139.49
  254.47        2974.00           1551          28.00       100.26
  254.50        2974.25           1555          24.00        82.82
  254.53        2974.50           1558          24.00        82.82
  254.56        2974.75           1561          25.00        87.18
  254.58        2975.00           1565          27.00        95.90
  254.61        2975.25           1568          20.00        65.39
  254.64        2975.50           1571          27.00        95.90
  254.66        2975.75           1575          24.00        82.82
  254.69        2976.00           1578          22.00        74.11
  254.72        2976.25           1581          24.00        82.82
  254.75        2976.50           1585          20.00        65.39
  254.77        2976.75           1588          21.00        69.75
  254.80        2977.00           1591          20.00        65.39
  254.83        2977.25           1595          23.00        78.47
  254.85        2977.50           1598          21.00        69.75
  254.88        2977.75           1601          22.00        74.11
  254.91        2978.00           1605          23.00        78.47
  254.94        2978.25           1608          20.00        65.39
  254.96        2978.50           1611          21.00        69.75
  254.99        2978.75           1615          23.00        78.47
  255.02        2979.00           1618          19.00        61.03
  255.04        2979.25           1621          17.00        52.31
  255.07        2979.50           1625          21.00        69.75
  255.10        2979.75           1628          15.00        43.59
  255.13        2980.00           1631          20.00        65.39
  255.15        2980.25           1635          23.00        78.47
  255.18        2980.50           1638          22.00        74.11
  255.21        2980.75           1641          22.00        74.11
  255.23        2981.00           1645          21.00        69.75
  255.26        2981.25           1648          19.00        61.03
  255.29        2981.50           1651          22.00        74.11
  255.32        2981.75           1655          25.00        87.18
  255.34        2982.00           1658          20.00        65.39
  255.37        2982.25           1661          19.00        61.03
  255.40        2982.50           1665          20.00        65.39
  255.42        2982.75           1668          21.00        69.75
  255.45        2983.00           1671          16.00        47.95
  255.48        2983.25           1675          20.00        65.39
  255.51        2983.50           1678          25.00        87.18
  255.53        2983.75           1681          20.00        65.39
  255.56        2984.00           1685          18.00        56.67
HS scan finished at 04:15:45
end
