************************************************************
  HS Scan of (1) Internal mercury lamp
************************************************************
Integration time is 0.2294 seconds per sample
dh101218Tamanrasset 22.79-5.529 4.974364pr865
************************************************************
Dead Time -------------------------  2.8E-08 
Number of Cycles Used -------------  4 
Starting Wavelength (Angstroms) ---  2950 
Final Wavelength (Angstoms) -------  2984 
Wavelength Increment (Angstroms) --  .25 
Filter Wheel #1 Position ---------- (1) Ground quartz diffuser (ND=2.32)
Filter Wheel #2 Position ---------- (1) Neutral Density 0.494



************************************************************
HS scan start time = 04:18:05
Dark Count =  5.1 


Time (GMT)  Wavelength (Ang)  Step Number  Raw Counts  Counts/Second

  258.44        2950.00           1233          19.00        60.59
  258.50        2950.25           1236          20.00        64.95
  258.53        2950.50           1239          18.00        56.23
  258.56        2950.75           1242          22.00        73.67
  258.58        2951.00           1246          17.00        51.87
  258.61        2951.25           1249          26.00        91.11
  258.64        2951.50           1252          18.00        56.23
  258.66        2951.75           1256          20.00        64.95
  258.69        2952.00           1259          19.00        60.59
  258.72        2952.25           1262          18.00        56.23
  258.75        2952.50           1266          13.00        34.44
  258.77        2952.75           1269          21.00        69.31
  258.80        2953.00           1272          21.00        69.31
  258.83        2953.25           1276          23.00        78.03
  258.85        2953.50           1279          20.00        64.95
  258.88        2953.75           1282          19.00        60.59
  258.91        2954.00           1286          24.00        82.39
  258.94        2954.25           1289          23.00        78.03
  258.96        2954.50           1292          15.00        43.16
  258.99        2954.75           1295          22.00        73.67
  259.02        2955.00           1299          23.00        78.03
  259.05        2955.25           1302          22.00        73.67
  259.07        2955.50           1305          18.00        56.23
  259.10        2955.75           1309          18.00        56.23
  259.13        2956.00           1312          19.00        60.59
  259.15        2956.25           1315          18.00        56.23
  259.18        2956.50           1319          20.00        64.95
  259.21        2956.75           1322          19.00        60.59
  259.24        2957.00           1325          19.00        60.59
  259.26        2957.25           1329          22.00        73.67
  259.29        2957.50           1332          26.00        91.11
  259.32        2957.75           1335          21.00        69.31
  259.34        2958.00           1339          15.00        43.16
  259.37        2958.25           1342          23.00        78.03
  259.40        2958.50           1345          22.00        73.67
  259.42        2958.75           1348          16.00        47.52
  259.45        2959.00           1352          17.00        51.87
  259.48        2959.25           1355          19.00        60.59
  259.51        2959.50           1358          22.00        73.67
  259.53        2959.75           1362          25.00        86.75
  259.56        2960.00           1365          20.00        64.95
  259.59        2960.25           1368          21.00        69.31
  259.61        2960.50           1372          32.00       117.26
  259.64        2960.75           1375          39.00       147.78
  259.67        2961.00           1378          87.00       357.02
  259.70        2961.25           1382         408.00      1756.41
  259.72        2961.50           1385         997.00      4324.41
  259.75        2961.75           1388        2090.00      9090.81
  259.78        2962.00           1392        4120.00     17946.68
  259.81        2962.25           1395        6047.00     26357.28
  259.83        2962.50           1398        8127.00     35440.12
  259.86        2962.75           1402       10716.00     46752.10
  259.89        2963.00           1405       12817.00     55937.15
  259.91        2963.25           1408       15093.00     65892.61
  259.94        2963.50           1412       17878.00     78082.04
  259.97        2963.75           1415       20138.00     87979.76
  260.00        2964.00           1418       22322.00     97549.88
  260.02        2964.25           1422       24927.00    108971.50
  260.05        2964.50           1425       26971.00    117938.50
  260.08        2964.75           1428       29335.00    128315.00
  260.11        2965.00           1431       31492.00    137788.20
  260.13        2965.25           1435       34408.00    150602.80
  260.16        2965.50           1438       36549.00    160017.40
  260.19        2965.75           1441       38950.00    170581.30
  260.22        2966.00           1445       41565.00    182093.90
  260.24        2966.25           1448       43347.00    189943.40
  260.27        2966.50           1451       44884.00    196716.50
  260.30        2966.75           1455       46116.00    202147.50
  260.32        2967.00           1458       46700.00    204722.50
  260.35        2967.25           1461       46796.00    205145.80
  260.38        2967.50           1465       46826.00    205278.10
  260.41        2967.75           1468       46336.00    203117.50
  260.43        2968.00           1471       45659.00    200132.70
  260.46        2968.25           1475       43751.00    191723.50
  260.49        2968.50           1478       41799.00    183124.40
  260.52        2968.75           1481       39801.00    174327.10
  260.54        2969.00           1485       36943.00    161750.50
  260.57        2969.25           1488       34626.00    151561.20
  260.60        2969.50           1491       32184.00    140828.40
  260.63        2969.75           1495       29447.00    128806.80
  260.65        2970.00           1498       27167.00    118798.60
  260.68        2970.25           1501       24896.00    108835.50
  260.71        2970.50           1505       22044.00     96331.41
  260.74        2970.75           1508       19736.00     86218.80
  260.76        2971.00           1511       17401.00     75993.70
  260.79        2971.25           1515       14429.00     62987.63
  260.82        2971.50           1518       12222.00     53335.48
  260.84        2971.75           1521       10264.00     44776.69
  260.87        2972.00           1525        7244.00     31583.72
  260.90        2972.25           1528        5358.00     23349.61
  260.93        2972.50           1531        3516.00     15311.27
  260.95        2972.75           1535        1494.00      6491.59
  260.98        2973.00           1538         616.00      2663.23
  261.01        2973.25           1541         223.00       949.89
  261.03        2973.50           1545          54.00       213.17
  261.06        2973.75           1548          39.00       147.78
  261.09        2974.00           1551          33.00       121.62
  261.12        2974.25           1555          28.00        99.83
  261.14        2974.50           1558          22.00        73.67
  261.17        2974.75           1561          27.00        95.47
  261.20        2975.00           1565          24.00        82.39
  261.23        2975.25           1568          19.00        60.59
  261.25        2975.50           1571          19.00        60.59
  261.28        2975.75           1575          24.00        82.39
  261.31        2976.00           1578          19.00        60.59
  261.33        2976.25           1581          19.00        60.59
  261.36        2976.50           1585          26.00        91.11
  261.39        2976.75           1588          22.00        73.67
  261.41        2977.00           1591          20.00        64.95
  261.44        2977.25           1595          22.00        73.67
  261.47        2977.50           1598          19.00        60.59
  261.50        2977.75           1601          19.00        60.59
  261.52        2978.00           1605          19.00        60.59
  261.55        2978.25           1608          18.00        56.23
  261.58        2978.50           1611          17.00        51.87
  261.60        2978.75           1615          21.00        69.31
  261.63        2979.00           1618          17.00        51.87
  261.66        2979.25           1621          17.00        51.87
  261.69        2979.50           1625          18.00        56.23
  261.71        2979.75           1628          16.00        47.52
  261.74        2980.00           1631          26.00        91.11
  261.77        2980.25           1635          20.00        64.95
  261.80        2980.50           1638          20.00        64.95
  261.82        2980.75           1641          25.00        86.75
  261.85        2981.00           1645          17.00        51.87
  261.88        2981.25           1648          23.00        78.03
  261.90        2981.50           1651          20.00        64.95
  261.93        2981.75           1655          20.00        64.95
  261.96        2982.00           1658          21.00        69.31
  261.99        2982.25           1661          17.00        51.87
  262.01        2982.50           1665          17.00        51.87
  262.04        2982.75           1668          19.00        60.59
  262.07        2983.00           1671          17.00        51.87
  262.09        2983.25           1675          24.00        82.39
  262.12        2983.50           1678          21.00        69.31
  262.15        2983.75           1681          21.00        69.31
  262.18        2984.00           1685          22.00        73.67
HS scan finished at 04:22:22
end
