************************************************************
  HS Scan of (1) Internal mercury lamp
************************************************************
Integration time is 0.2294 seconds per sample
dh081218Tamanrasset 22.79-5.529 4.974364pr865
************************************************************
Dead Time -------------------------  2.8E-08 
Number of Cycles Used -------------  4 
Starting Wavelength (Angstroms) ---  2950 
Final Wavelength (Angstoms) -------  2984 
Wavelength Increment (Angstroms) --  .25 
Filter Wheel #1 Position ---------- (1) Ground quartz diffuser (ND=2.32)
Filter Wheel #2 Position ---------- (1) Neutral Density 0.494



************************************************************
HS scan start time = 04:17:04
Dark Count =  3.6 


Time (GMT)  Wavelength (Ang)  Step Number  Raw Counts  Counts/Second

  257.43        2950.00           1233          18.00        62.77
  257.49        2950.25           1236          26.00        97.65
  257.52        2950.50           1239          18.00        62.77
  257.55        2950.75           1242          21.00        75.85
  257.57        2951.00           1246          22.00        80.21
  257.60        2951.25           1249          18.00        62.77
  257.63        2951.50           1252          20.00        71.49
  257.66        2951.75           1256          20.00        71.49
  257.68        2952.00           1259          22.00        80.21
  257.71        2952.25           1262          22.00        80.21
  257.74        2952.50           1266          20.00        71.49
  257.76        2952.75           1269          16.00        54.05
  257.79        2953.00           1272          20.00        71.49
  257.82        2953.25           1276          18.00        62.77
  257.85        2953.50           1279          19.00        67.13
  257.87        2953.75           1282          23.00        84.57
  257.90        2954.00           1286          26.00        97.65
  257.93        2954.25           1289          19.00        67.13
  257.95        2954.50           1292          21.00        75.85
  257.98        2954.75           1295          23.00        84.57
  258.01        2955.00           1299          21.00        75.85
  258.04        2955.25           1302          17.00        58.41
  258.06        2955.50           1305          25.00        93.29
  258.09        2955.75           1309          18.00        62.77
  258.12        2956.00           1312          19.00        67.13
  258.14        2956.25           1315          21.00        75.85
  258.17        2956.50           1319          14.00        45.34
  258.20        2956.75           1322          22.00        80.21
  258.23        2957.00           1325          19.00        67.13
  258.25        2957.25           1329          21.00        75.85
  258.28        2957.50           1332          20.00        71.49
  258.31        2957.75           1335          20.00        71.49
  258.34        2958.00           1339          24.00        88.93
  258.36        2958.25           1342          17.00        58.41
  258.39        2958.50           1345          20.00        71.49
  258.42        2958.75           1348          20.00        71.49
  258.44        2959.00           1352          18.00        62.77
  258.47        2959.25           1355          21.00        75.85
  258.50        2959.50           1358          25.00        93.29
  258.53        2959.75           1362          21.00        75.85
  258.55        2960.00           1365          25.00        93.29
  258.58        2960.25           1368          22.00        80.21
  258.61        2960.50           1372          26.00        97.65
  258.63        2960.75           1375          28.00       106.36
  258.66        2961.00           1378          53.00       215.35
  258.69        2961.25           1382         249.00      1069.78
  258.72        2961.50           1385         677.00      2935.73
  258.74        2961.75           1388        1530.00      6655.12
  258.77        2962.00           1392        3598.00     15675.58
  258.80        2962.25           1395        5479.00     23884.32
  258.82        2962.50           1398        7505.00     32730.07
  258.85        2962.75           1402       10131.00     44202.02
  258.88        2963.00           1405       12316.00     53753.03
  258.91        2963.25           1408       14362.00     62701.09
  258.93        2963.50           1412       17259.00     75378.65
  258.96        2963.75           1415       19399.00     84749.27
  258.99        2964.00           1418       21582.00     94313.26
  259.02        2964.25           1422       24367.00    106522.10
  259.04        2964.50           1425       26642.00    116501.50
  259.07        2964.75           1428       29010.00    126894.70
  259.10        2965.00           1431       31049.00    135848.80
  259.13        2965.25           1435       34064.00    149097.20
  259.15        2965.50           1438       36188.00    158436.30
  259.18        2965.75           1441       38507.00    168638.40
  259.21        2966.00           1445       41265.00    180779.40
  259.23        2966.25           1448       43123.00    188963.10
  259.26        2966.50           1451       44459.00    194850.10
  259.29        2966.75           1455       46088.00    202030.70
  259.32        2967.00           1458       46804.00    205187.70
  259.34        2967.25           1461       46931.00    205747.70
  259.37        2967.50           1465       46696.00    204711.40
  259.40        2967.75           1468       46675.00    204618.90
  259.43        2968.00           1471       45677.00    200218.70
  259.45        2968.25           1475       43974.00    192712.80
  259.48        2968.50           1478       42200.00    184897.20
  259.51        2968.75           1481       40238.00    176257.40
  259.54        2969.00           1485       37157.00    162698.50
  259.56        2969.25           1488       34950.00    152992.30
  259.59        2969.50           1491       32605.00    142684.90
  259.62        2969.75           1495       29776.00    130258.00
  259.64        2970.00           1498       27526.00    120380.70
  259.67        2970.25           1501       25380.00    110965.00
  259.70        2970.50           1505       22454.00     98135.03
  259.73        2970.75           1508       20170.00     88126.52
  259.75        2971.00           1511       17984.00     78552.71
  259.78        2971.25           1515       15282.00     66726.12
  259.81        2971.50           1518       12948.00     56516.57
  259.84        2971.75           1521       10832.00     47265.65
  259.86        2972.00           1525        7874.00     34341.64
  259.89        2972.25           1528        5898.00     25713.36
  259.92        2972.50           1531        3925.00     17102.35
  259.94        2972.75           1535        1849.00      8046.28
  259.97        2973.00           1538         842.00      3655.13
  260.00        2973.25           1541         291.00      1252.88
  260.03        2973.50           1545          66.00       272.02
  260.05        2973.75           1548          36.00       141.24
  260.08        2974.00           1551          34.00       132.52
  260.11        2974.25           1555          31.00       119.44
  260.13        2974.50           1558          23.00        84.57
  260.16        2974.75           1561          23.00        84.57
  260.19        2975.00           1565          23.00        84.57
  260.22        2975.25           1568          25.00        93.29
  260.24        2975.50           1571          25.00        93.29
  260.27        2975.75           1575          23.00        84.57
  260.30        2976.00           1578          22.00        80.21
  260.32        2976.25           1581          20.00        71.49
  260.35        2976.50           1585          22.00        80.21
  260.38        2976.75           1588          19.00        67.13
  260.41        2977.00           1591          22.00        80.21
  260.43        2977.25           1595          21.00        75.85
  260.46        2977.50           1598          16.00        54.05
  260.49        2977.75           1601          22.00        80.21
  260.51        2978.00           1605          22.00        80.21
  260.54        2978.25           1608          18.00        62.77
  260.57        2978.50           1611          20.00        71.49
  260.60        2978.75           1615          19.00        67.13
  260.62        2979.00           1618          19.00        67.13
  260.65        2979.25           1621          21.00        75.85
  260.68        2979.50           1625          21.00        75.85
  260.71        2979.75           1628          22.00        80.21
  260.73        2980.00           1631          21.00        75.85
  260.76        2980.25           1635          18.00        62.77
  260.79        2980.50           1638          19.00        67.13
  260.81        2980.75           1641          16.00        54.05
  260.84        2981.00           1645          23.00        84.57
  260.87        2981.25           1648          24.00        88.93
  260.90        2981.50           1651          21.00        75.85
  260.92        2981.75           1655          19.00        67.13
  260.95        2982.00           1658          22.00        80.21
  260.98        2982.25           1661          20.00        71.49
  261.00        2982.50           1665          18.00        62.77
  261.03        2982.75           1668          18.00        62.77
  261.06        2983.00           1671          22.00        80.21
  261.09        2983.25           1675          22.00        80.21
  261.11        2983.50           1678          22.00        80.21
  261.14        2983.75           1681          18.00        62.77
  261.17        2984.00           1685          21.00        75.85
HS scan finished at 04:21:21
end
