************************************************************
  HS Scan of (1) Internal mercury lamp
************************************************************
Integration time is 0.2294 seconds per sample
dh061218Tamanrasset 22.79-5.529 4.974364pr865
************************************************************
Dead Time -------------------------  2.8E-08 
Number of Cycles Used -------------  4 
Starting Wavelength (Angstroms) ---  2950 
Final Wavelength (Angstoms) -------  2984 
Wavelength Increment (Angstroms) --  .25 
Filter Wheel #1 Position ---------- (1) Ground quartz diffuser (ND=2.32)
Filter Wheel #2 Position ---------- (1) Neutral Density 0.494



************************************************************
HS scan start time = 04:15:58
Dark Count =  4.2 


Time (GMT)  Wavelength (Ang)  Step Number  Raw Counts  Counts/Second

  256.33        2950.00           1233          21.00        73.23
  256.39        2950.25           1236          18.00        60.16
  256.42        2950.50           1239          20.00        68.88
  256.45        2950.75           1242          21.00        73.23
  256.47        2951.00           1246          18.00        60.16
  256.50        2951.25           1249          23.00        81.95
  256.53        2951.50           1252          20.00        68.88
  256.56        2951.75           1256          20.00        68.88
  256.58        2952.00           1259          17.00        55.80
  256.61        2952.25           1262          19.00        64.52
  256.64        2952.50           1266          20.00        68.88
  256.67        2952.75           1269          23.00        81.95
  256.69        2953.00           1272          18.00        60.16
  256.72        2953.25           1276          24.00        86.31
  256.75        2953.50           1279          19.00        64.52
  256.77        2953.75           1282          20.00        68.88
  256.80        2954.00           1286          20.00        68.88
  256.83        2954.25           1289          21.00        73.23
  256.86        2954.50           1292          18.00        60.16
  256.88        2954.75           1295          18.00        60.16
  256.91        2955.00           1299          18.00        60.16
  256.94        2955.25           1302          22.00        77.59
  256.96        2955.50           1305          21.00        73.23
  256.99        2955.75           1309          16.00        51.44
  257.02        2956.00           1312          19.00        64.52
  257.05        2956.25           1315          20.00        68.88
  257.07        2956.50           1319          19.00        64.52
  257.10        2956.75           1322          18.00        60.16
  257.13        2957.00           1325          23.00        81.95
  257.15        2957.25           1329          24.00        86.31
  257.18        2957.50           1332          19.00        64.52
  257.21        2957.75           1335          22.00        77.59
  257.24        2958.00           1339          17.00        55.80
  257.26        2958.25           1342          22.00        77.59
  257.29        2958.50           1345          22.00        77.59
  257.32        2958.75           1348          19.00        64.52
  257.34        2959.00           1352          12.00        34.00
  257.37        2959.25           1355          23.00        81.95
  257.40        2959.50           1358          20.00        68.88
  257.43        2959.75           1362          20.00        68.88
  257.45        2960.00           1365          19.00        64.52
  257.48        2960.25           1368          23.00        81.95
  257.51        2960.50           1372          27.00        99.39
  257.53        2960.75           1375          35.00       134.26
  257.56        2961.00           1378          92.00       382.74
  257.59        2961.25           1382         463.00      2000.11
  257.62        2961.50           1385        1058.00      4594.31
  257.64        2961.75           1388        2152.00      9365.14
  257.67        2962.00           1392        4354.00     18971.71
  257.70        2962.25           1395        6361.00     27732.08
  257.73        2962.50           1398        8555.00     37313.60
  257.75        2962.75           1402       11281.00     49225.61
  257.78        2963.00           1405       13293.00     58022.71
  257.81        2963.25           1408       15400.00     67239.81
  257.83        2963.50           1412       18337.00     80095.75
  257.86        2963.75           1415       20578.00     89911.34
  257.89        2964.00           1418       22512.00     98386.62
  257.92        2964.25           1422       25385.00    110984.30
  257.94        2964.50           1425       27504.00    120281.50
  257.97        2964.75           1428       29676.00    129816.30
  258.00        2965.00           1431       31935.00    139738.40
  258.03        2965.25           1435       34894.00    152743.40
  258.05        2965.50           1438       37040.00    162181.20
  258.08        2965.75           1441       39253.00    171918.90
  258.11        2966.00           1445       41812.00    183185.70
  258.13        2966.25           1448       43987.00    192767.40
  258.16        2966.50           1451       45392.00    198959.70
  258.19        2966.75           1455       46646.00    204488.30
  258.22        2967.00           1458       46736.00    204885.20
  258.24        2967.25           1461       46738.00    204894.00
  258.27        2967.50           1465       46523.00    203946.00
  258.30        2967.75           1468       46410.00    203447.70
  258.33        2968.00           1471       45582.00    199797.30
  258.35        2968.25           1475       43621.00    191154.70
  258.38        2968.50           1478       41707.00    182723.20
  258.41        2968.75           1481       39585.00    173380.20
  258.43        2969.00           1485       36490.00    159761.90
  258.46        2969.25           1488       34309.00    150171.60
  258.49        2969.50           1491       31896.00    139567.00
  258.52        2969.75           1495       29180.00    127638.40
  258.54        2970.00           1498       26791.00    117152.60
  258.57        2970.25           1501       24564.00    107383.40
  258.60        2970.50           1505       21778.00     95169.57
  258.63        2970.75           1508       19423.00     84851.76
  258.65        2971.00           1511       17238.00     75284.07
  258.68        2971.25           1515       14244.00     62182.28
  258.71        2971.50           1518       11943.00     52119.60
  258.74        2971.75           1521        9912.00     43242.39
  258.76        2972.00           1525        7127.00     31076.73
  258.79        2972.25           1528        5067.00     22083.40
  258.82        2972.50           1531        3248.00     14145.97
  258.85        2972.75           1535        1368.00      5946.07
  258.87        2973.00           1538         541.00      2340.17
  258.90        2973.25           1541         170.00       722.77
  258.93        2973.50           1545          52.00       208.37
  258.95        2973.75           1548          31.00       116.83
  258.98        2974.00           1551          26.00        95.03
  259.01        2974.25           1555          20.00        68.88
  259.04        2974.50           1558          23.00        81.95
  259.06        2974.75           1561          28.00       103.75
  259.09        2975.00           1565          23.00        81.95
  259.12        2975.25           1568          20.00        68.88
  259.14        2975.50           1571          20.00        68.88
  259.17        2975.75           1575          20.00        68.88
  259.20        2976.00           1578          21.00        73.23
  259.23        2976.25           1581          19.00        64.52
  259.25        2976.50           1585          18.00        60.16
  259.28        2976.75           1588          20.00        68.88
  259.31        2977.00           1591          19.00        64.52
  259.33        2977.25           1595          22.00        77.59
  259.36        2977.50           1598          20.00        68.88
  259.39        2977.75           1601          23.00        81.95
  259.42        2978.00           1605          17.00        55.80
  259.44        2978.25           1608          24.00        86.31
  259.47        2978.50           1611          20.00        68.88
  259.50        2978.75           1615          19.00        64.52
  259.52        2979.00           1618          20.00        68.88
  259.55        2979.25           1621          18.00        60.16
  259.58        2979.50           1625          15.00        47.08
  259.61        2979.75           1628          20.00        68.88
  259.63        2980.00           1631          23.00        81.95
  259.66        2980.25           1635          21.00        73.23
  259.69        2980.50           1638          22.00        77.59
  259.71        2980.75           1641          20.00        68.88
  259.74        2981.00           1645          22.00        77.59
  259.77        2981.25           1648          20.00        68.88
  259.80        2981.50           1651          21.00        73.23
  259.82        2981.75           1655          19.00        64.52
  259.85        2982.00           1658          21.00        73.23
  259.88        2982.25           1661          18.00        60.16
  259.90        2982.50           1665          18.00        60.16
  259.93        2982.75           1668          23.00        81.95
  259.96        2983.00           1671          20.00        68.88
  259.99        2983.25           1675          17.00        55.80
  260.01        2983.50           1678          20.00        68.88
  260.04        2983.75           1681          17.00        55.80
  260.07        2984.00           1685          17.00        55.80
HS scan finished at 04:20:15
end
