************************************************************
  HS Scan of (1) Internal mercury lamp
************************************************************
Integration time is 0.2294 seconds per sample
dh111218Tamanrasset 22.79-5.529 4.974364pr865
************************************************************
Dead Time -------------------------  2.8E-08 
Number of Cycles Used -------------  4 
Starting Wavelength (Angstroms) ---  2950 
Final Wavelength (Angstoms) -------  2984 
Wavelength Increment (Angstroms) --  .25 
Filter Wheel #1 Position ---------- (1) Ground quartz diffuser (ND=2.32)
Filter Wheel #2 Position ---------- (1) Neutral Density 0.494



************************************************************
HS scan start time = 04:19:32
Dark Count =  5.3 


Time (GMT)  Wavelength (Ang)  Step Number  Raw Counts  Counts/Second

  259.89        2950.00           1233          22.00        72.80
  259.95        2950.25           1236          24.00        81.52
  259.98        2950.50           1239          19.00        59.72
  260.01        2950.75           1242          22.00        72.80
  260.03        2951.00           1246          24.00        81.52
  260.06        2951.25           1249          22.00        72.80
  260.09        2951.50           1252          21.00        68.44
  260.11        2951.75           1256          19.00        59.72
  260.14        2952.00           1259          16.00        46.64
  260.17        2952.25           1262          19.00        59.72
  260.20        2952.50           1266          21.00        68.44
  260.22        2952.75           1269          17.00        51.00
  260.25        2953.00           1272          20.00        64.08
  260.28        2953.25           1276          16.00        46.64
  260.30        2953.50           1279          21.00        68.44
  260.33        2953.75           1282          20.00        64.08
  260.36        2954.00           1286          15.00        42.28
  260.39        2954.25           1289          21.00        68.44
  260.41        2954.50           1292          16.00        46.64
  260.44        2954.75           1295          19.00        59.72
  260.47        2955.00           1299          20.00        64.08
  260.49        2955.25           1302          19.00        59.72
  260.52        2955.50           1305          20.00        64.08
  260.55        2955.75           1309          23.00        77.16
  260.58        2956.00           1312          17.00        51.00
  260.60        2956.25           1315          18.00        55.36
  260.63        2956.50           1319          22.00        72.80
  260.66        2956.75           1322          20.00        64.08
  260.68        2957.00           1325          20.00        64.08
  260.71        2957.25           1329          19.00        59.72
  260.74        2957.50           1332          20.00        64.08
  260.77        2957.75           1335          19.00        59.72
  260.79        2958.00           1339          17.00        51.00
  260.82        2958.25           1342          21.00        68.44
  260.85        2958.50           1345          21.00        68.44
  260.87        2958.75           1348          18.00        55.36
  260.90        2959.00           1352          17.00        51.00
  260.93        2959.25           1355          13.00        33.57
  260.96        2959.50           1358          17.00        51.00
  260.98        2959.75           1362          21.00        68.44
  261.01        2960.00           1365          25.00        85.88
  261.04        2960.25           1368          29.00       103.31
  261.06        2960.50           1372          34.00       125.11
  261.09        2960.75           1375          38.00       142.55
  261.12        2961.00           1378          70.00       282.04
  261.15        2961.25           1382         319.00      1367.53
  261.17        2961.50           1385         848.00      3673.87
  261.20        2961.75           1388        1822.00      7921.11
  261.23        2962.00           1392        3766.00     16401.17
  261.26        2962.25           1395        5821.00     25369.81
  261.28        2962.50           1398        8004.00     34902.01
  261.31        2962.75           1402       10730.00     46812.42
  261.34        2963.00           1405       12806.00     55888.17
  261.36        2963.25           1408       15045.00     65681.72
  261.39        2963.50           1412       17767.00     77595.16
  261.42        2963.75           1415       19685.00     85994.52
  261.45        2964.00           1418       21938.00     95865.96
  261.47        2964.25           1422       24785.00    108347.80
  261.50        2964.50           1425       26786.00    117125.90
  261.53        2964.75           1428       29086.00    127220.90
  261.56        2965.00           1431       31543.00    138011.40
  261.58        2965.25           1435       34022.00    148905.10
  261.61        2965.50           1438       36268.00    158780.60
  261.64        2965.75           1441       38481.00    168516.50
  261.67        2966.00           1445       41519.00    181890.40
  261.69        2966.25           1448       43262.00    189568.10
  261.72        2966.50           1451       44608.00    195499.20
  261.75        2966.75           1455       46072.00    201952.60
  261.78        2967.00           1458       46146.00    202278.90
  261.80        2967.25           1461       46689.00    204673.10
  261.83        2967.50           1465       46504.00    203857.30
  261.86        2967.75           1468       46027.00    201754.20
  261.89        2968.00           1471       45284.00    198478.80
  261.91        2968.25           1475       43510.00    190660.70
  261.94        2968.50           1478       41687.00    182630.30
  261.97        2968.75           1481       39777.00    174220.50
  261.99        2969.00           1485       36605.00    160262.90
  262.02        2969.25           1488       34390.00    150522.80
  262.05        2969.50           1491       32205.00    140919.80
  262.08        2969.75           1495       29064.00    127124.30
  262.10        2970.00           1498       27069.00    118367.70
  262.13        2970.25           1501       24653.00    107768.90
  262.16        2970.50           1505       21865.00     95546.03
  262.19        2970.75           1508       19670.00     85928.81
  262.21        2971.00           1511       17613.00     76920.94
  262.24        2971.25           1515       14663.00     64010.44
  262.27        2971.50           1518       12587.00     54930.55
  262.30        2971.75           1521       10481.00     45724.16
  262.32        2972.00           1525        7673.00     33456.35
  262.35        2972.25           1528        5669.00     24706.28
  262.38        2972.50           1531        3645.00     15873.23
  262.41        2972.75           1535        1597.00      6939.88
  262.43        2973.00           1538         708.00      3063.47
  262.46        2973.25           1541         241.00      1027.49
  262.49        2973.50           1545          54.00       212.29
  262.51        2973.75           1548          36.00       133.83
  262.54        2974.00           1551          26.00        90.24
  262.57        2974.25           1555          29.00       103.31
  262.59        2974.50           1558          22.00        72.80
  262.62        2974.75           1561          20.00        64.08
  262.65        2975.00           1565          23.00        77.16
  262.68        2975.25           1568          23.00        77.16
  262.70        2975.50           1571          20.00        64.08
  262.73        2975.75           1575          21.00        68.44
  262.76        2976.00           1578          20.00        64.08
  262.79        2976.25           1581          22.00        72.80
  262.81        2976.50           1585          23.00        77.16
  262.84        2976.75           1588          25.00        85.88
  262.87        2977.00           1591          19.00        59.72
  262.89        2977.25           1595          18.00        55.36
  262.92        2977.50           1598          21.00        68.44
  262.95        2977.75           1601          21.00        68.44
  262.98        2978.00           1605          19.00        59.72
  263.00        2978.25           1608          22.00        72.80
  263.03        2978.50           1611          24.00        81.52
  263.06        2978.75           1615          21.00        68.44
  263.08        2979.00           1618          20.00        64.08
  263.11        2979.25           1621          16.00        46.64
  263.14        2979.50           1625          17.00        51.00
  263.17        2979.75           1628          18.00        55.36
  263.19        2980.00           1631          22.00        72.80
  263.22        2980.25           1635          23.00        77.16
  263.25        2980.50           1638          19.00        59.72
  263.27        2980.75           1641          16.00        46.64
  263.30        2981.00           1645          22.00        72.80
  263.33        2981.25           1648          19.00        59.72
  263.36        2981.50           1651          16.00        46.64
  263.38        2981.75           1655          19.00        59.72
  263.41        2982.00           1658          19.00        59.72
  263.44        2982.25           1661          16.00        46.64
  263.46        2982.50           1665          19.00        59.72
  263.49        2982.75           1668          13.00        33.57
  263.52        2983.00           1671          22.00        72.80
  263.55        2983.25           1675          19.00        59.72
  263.57        2983.50           1678          21.00        68.44
  263.60        2983.75           1681          23.00        77.16
  263.63        2984.00           1685          22.00        72.80
HS scan finished at 04:23:49
end
