************************************************************
  HS Scan of (1) Internal mercury lamp
************************************************************
Integration time is 0.2294 seconds per sample
dh121218Tamanrasset 22.79-5.529 4.974364pr865
************************************************************
Dead Time -------------------------  2.8E-08 
Number of Cycles Used -------------  4 
Starting Wavelength (Angstroms) ---  2950 
Final Wavelength (Angstoms) -------  2984 
Wavelength Increment (Angstroms) --  .25 
Filter Wheel #1 Position ---------- (1) Ground quartz diffuser (ND=2.32)
Filter Wheel #2 Position ---------- (1) Neutral Density 0.494



************************************************************
HS scan start time = 04:19:04
Dark Count =  5.4 


Time (GMT)  Wavelength (Ang)  Step Number  Raw Counts  Counts/Second

  259.42        2950.00           1233          20.00        63.64
  259.48        2950.25           1236          19.00        59.29
  259.51        2950.50           1239          21.00        68.00
  259.54        2950.75           1242          22.00        72.36
  259.57        2951.00           1246          18.00        54.93
  259.59        2951.25           1249          20.00        63.64
  259.62        2951.50           1252          19.00        59.29
  259.65        2951.75           1256          22.00        72.36
  259.67        2952.00           1259          19.00        59.29
  259.70        2952.25           1262          20.00        63.64
  259.73        2952.50           1266          15.00        41.85
  259.76        2952.75           1269          17.00        50.57
  259.78        2953.00           1272          24.00        81.08
  259.81        2953.25           1276          21.00        68.00
  259.84        2953.50           1279          20.00        63.64
  259.86        2953.75           1282          18.00        54.93
  259.89        2954.00           1286          20.00        63.64
  259.92        2954.25           1289          20.00        63.64
  259.95        2954.50           1292          19.00        59.29
  259.97        2954.75           1295          18.00        54.93
  260.00        2955.00           1299          19.00        59.29
  260.03        2955.25           1302          17.00        50.57
  260.05        2955.50           1305          24.00        81.08
  260.08        2955.75           1309          22.00        72.36
  260.11        2956.00           1312          22.00        72.36
  260.14        2956.25           1315          21.00        68.00
  260.16        2956.50           1319          17.00        50.57
  260.19        2956.75           1322          17.00        50.57
  260.22        2957.00           1325          21.00        68.00
  260.24        2957.25           1329          22.00        72.36
  260.27        2957.50           1332          18.00        54.93
  260.30        2957.75           1335          18.00        54.93
  260.33        2958.00           1339          19.00        59.29
  260.35        2958.25           1342          16.00        46.21
  260.38        2958.50           1345          17.00        50.57
  260.41        2958.75           1348          23.00        76.72
  260.44        2959.00           1352          20.00        63.64
  260.46        2959.25           1355          19.00        59.29
  260.49        2959.50           1358          18.00        54.93
  260.52        2959.75           1362          19.00        59.29
  260.54        2960.00           1365          23.00        76.72
  260.57        2960.25           1368          25.00        85.44
  260.60        2960.50           1372          29.00       102.88
  260.63        2960.75           1375          31.00       111.60
  260.65        2961.00           1378          69.00       277.25
  260.68        2961.25           1382         379.00      1628.67
  260.71        2961.50           1385         970.00      4205.38
  260.73        2961.75           1388        2001.00      8701.34
  260.76        2962.00           1392        4145.00     18054.46
  260.79        2962.25           1395        6128.00     26709.60
  260.82        2962.50           1398        8311.00     36242.52
  260.84        2962.75           1402       11068.00     48289.32
  260.87        2963.00           1405       13209.00     57650.09
  260.90        2963.25           1408       15448.00     67444.60
  260.93        2963.50           1412       18215.00     79556.27
  260.95        2963.75           1415       20301.00     88692.52
  260.98        2964.00           1418       22381.00     97807.16
  261.01        2964.25           1422       25501.00    111487.90
  261.03        2964.50           1425       27545.00    120456.20
  261.06        2964.75           1428       29715.00    129982.20
  261.09        2965.00           1431       31819.00    139223.50
  261.12        2965.25           1435       34701.00    151889.60
  261.14        2965.50           1438       36972.00    161876.80
  261.17        2965.75           1441       39099.00    171235.80
  261.20        2966.00           1445       42051.00    184233.00
  261.23        2966.25           1448       43858.00    192193.70
  261.25        2966.50           1451       45256.00    198354.90
  261.28        2966.75           1455       46363.00    203235.20
  261.31        2967.00           1458       46881.00    205519.30
  261.34        2967.25           1461       47088.00    206432.10
  261.36        2967.50           1465       46751.00    204946.00
  261.39        2967.75           1468       46225.00    202626.70
  261.42        2968.00           1471       45320.00    198637.10
  261.44        2968.25           1475       43792.00    191902.90
  261.47        2968.50           1478       41960.00    183832.20
  261.50        2968.75           1481       39809.00    174361.00
  261.53        2969.00           1485       36910.00    161604.10
  261.55        2969.25           1488       34557.00    151256.50
  261.58        2969.50           1491       32364.00    141618.00
  261.61        2969.75           1495       29233.00    127865.90
  261.64        2970.00           1498       26896.00    117608.10
  261.66        2970.25           1501       24854.00    108650.00
  261.69        2970.50           1505       21830.00     95392.21
  261.72        2970.75           1508       19707.00     86090.44
  261.75        2971.00           1511       17343.00     75738.48
  261.77        2971.25           1515       14626.00     63848.14
  261.80        2971.50           1518       12407.00     54143.05
  261.83        2971.75           1521       10290.00     44888.99
  261.85        2972.00           1525        7464.00     32543.16
  261.88        2972.25           1528        5334.00     23243.55
  261.91        2972.50           1531        3475.00     15131.08
  261.94        2972.75           1535        1487.00      6459.76
  261.96        2973.00           1538         577.00      2491.89
  261.99        2973.25           1541         189.00       800.37
  262.02        2973.50           1545          53.00       207.50
  262.04        2973.75           1548          36.00       133.39
  262.07        2974.00           1551          26.00        89.80
  262.10        2974.25           1555          28.00        98.52
  262.13        2974.50           1558          27.00        94.16
  262.15        2974.75           1561          23.00        76.72
  262.18        2975.00           1565          22.00        72.36
  262.21        2975.25           1568          25.00        85.44
  262.23        2975.50           1571          21.00        68.00
  262.26        2975.75           1575          18.00        54.93
  262.29        2976.00           1578          22.00        72.36
  262.32        2976.25           1581          17.00        50.57
  262.34        2976.50           1585          22.00        72.36
  262.37        2976.75           1588          19.00        59.29
  262.40        2977.00           1591          23.00        76.72
  262.43        2977.25           1595          21.00        68.00
  262.45        2977.50           1598          19.00        59.29
  262.48        2977.75           1601          23.00        76.72
  262.51        2978.00           1605          22.00        72.36
  262.53        2978.25           1608          24.00        81.08
  262.56        2978.50           1611          22.00        72.36
  262.59        2978.75           1615          15.00        41.85
  262.62        2979.00           1618          21.00        68.00
  262.64        2979.25           1621          23.00        76.72
  262.67        2979.50           1625          25.00        85.44
  262.70        2979.75           1628          24.00        81.08
  262.72        2980.00           1631          24.00        81.08
  262.75        2980.25           1635          26.00        89.80
  262.78        2980.50           1638          25.00        85.44
  262.81        2980.75           1641          18.00        54.93
  262.83        2981.00           1645          19.00        59.29
  262.86        2981.25           1648          19.00        59.29
  262.89        2981.50           1651          22.00        72.36
  262.91        2981.75           1655          23.00        76.72
  262.94        2982.00           1658          20.00        63.64
  262.97        2982.25           1661          22.00        72.36
  263.00        2982.50           1665          17.00        50.57
  263.02        2982.75           1668          19.00        59.29
  263.05        2983.00           1671          16.00        46.21
  263.08        2983.25           1675          20.00        63.64
  263.11        2983.50           1678          22.00        72.36
  263.13        2983.75           1681          18.00        54.93
  263.16        2984.00           1685          18.00        54.93
HS scan finished at 04:23:21
end
