************************************************************
  HS Scan of (1) Internal mercury lamp
************************************************************
Integration time is 0.2294 seconds per sample
dh071218Tamanrasset 22.79-5.529 4.974364pr865
************************************************************
Dead Time -------------------------  2.8E-08 
Number of Cycles Used -------------  4 
Starting Wavelength (Angstroms) ---  2950 
Final Wavelength (Angstoms) -------  2984 
Wavelength Increment (Angstroms) --  .25 
Filter Wheel #1 Position ---------- (1) Ground quartz diffuser (ND=2.32)
Filter Wheel #2 Position ---------- (1) Neutral Density 0.494



************************************************************
HS scan start time = 04:16:59
Dark Count =  5.1 


Time (GMT)  Wavelength (Ang)  Step Number  Raw Counts  Counts/Second

  257.34        2950.00           1233          17.00        51.87
  257.40        2950.25           1236          19.00        60.59
  257.43        2950.50           1239          16.00        47.52
  257.46        2950.75           1242          20.00        64.95
  257.48        2951.00           1246          20.00        64.95
  257.51        2951.25           1249          26.00        91.11
  257.54        2951.50           1252          21.00        69.31
  257.56        2951.75           1256          20.00        64.95
  257.59        2952.00           1259          18.00        56.23
  257.62        2952.25           1262          22.00        73.67
  257.65        2952.50           1266          20.00        64.95
  257.67        2952.75           1269          21.00        69.31
  257.70        2953.00           1272          18.00        56.23
  257.73        2953.25           1276          17.00        51.87
  257.75        2953.50           1279          21.00        69.31
  257.78        2953.75           1282          18.00        56.23
  257.81        2954.00           1286          20.00        64.95
  257.84        2954.25           1289          19.00        60.59
  257.86        2954.50           1292          22.00        73.67
  257.89        2954.75           1295          20.00        64.95
  257.92        2955.00           1299          17.00        51.87
  257.94        2955.25           1302          25.00        86.75
  257.97        2955.50           1305          17.00        51.87
  258.00        2955.75           1309          19.00        60.59
  258.03        2956.00           1312          21.00        69.31
  258.05        2956.25           1315          19.00        60.59
  258.08        2956.50           1319          16.00        47.52
  258.11        2956.75           1322          20.00        64.95
  258.14        2957.00           1325          21.00        69.31
  258.16        2957.25           1329          18.00        56.23
  258.19        2957.50           1332          20.00        64.95
  258.22        2957.75           1335          19.00        60.59
  258.24        2958.00           1339          20.00        64.95
  258.27        2958.25           1342          20.00        64.95
  258.30        2958.50           1345          19.00        60.59
  258.33        2958.75           1348          22.00        73.67
  258.35        2959.00           1352          17.00        51.87
  258.38        2959.25           1355          20.00        64.95
  258.41        2959.50           1358          20.00        64.95
  258.43        2959.75           1362          22.00        73.67
  258.46        2960.00           1365          23.00        78.03
  258.49        2960.25           1368          24.00        82.39
  258.52        2960.50           1372          24.00        82.39
  258.54        2960.75           1375          33.00       121.62
  258.57        2961.00           1378          62.00       248.04
  258.60        2961.25           1382         297.00      1272.50
  258.62        2961.50           1385         775.00      3356.46
  258.65        2961.75           1388        1701.00      7394.30
  258.68        2962.00           1392        3733.00     16258.06
  258.71        2962.25           1395        5669.00     24707.15
  258.73        2962.50           1398        7734.00     33723.63
  258.76        2962.75           1402       10449.00     45585.18
  258.79        2963.00           1405       12529.00     54677.81
  258.81        2963.25           1408       14789.00     64562.56
  258.84        2963.50           1412       17468.00     76287.03
  258.87        2963.75           1415       19546.00     85386.56
  258.90        2964.00           1418       21751.00     95047.31
  258.92        2964.25           1422       24610.00    107581.20
  258.95        2964.50           1425       26720.00    116837.10
  258.98        2964.75           1428       28734.00    125676.40
  259.01        2965.00           1431       30983.00    135552.30
  259.03        2965.25           1435       33907.00    148400.50
  259.06        2965.50           1438       36316.00    158992.60
  259.09        2965.75           1441       38377.00    168059.70
  259.12        2966.00           1445       41430.00    181499.40
  259.14        2966.25           1448       43297.00    189723.10
  259.17        2966.50           1451       44725.00    196015.80
  259.20        2966.75           1455       46068.00    201935.90
  259.22        2967.00           1458       46540.00    204017.00
  259.25        2967.25           1461       46709.00    204762.20
  259.28        2967.50           1465       46731.00    204859.20
  259.31        2967.75           1468       46448.00    203611.30
  259.33        2968.00           1471       45818.00    200833.70
  259.36        2968.25           1475       44118.00    193340.70
  259.39        2968.50           1478       42565.00    186498.40
  259.42        2968.75           1481       40296.00    176506.20
  259.44        2969.00           1485       37448.00    163972.10
  259.47        2969.25           1488       35020.00    153293.40
  259.50        2969.50           1491       32670.00    142963.90
  259.53        2969.75           1495       29587.00    129421.50
  259.55        2970.00           1498       27482.00    120181.00
  259.58        2970.25           1501       24986.00    109230.30
  259.61        2970.50           1505       22202.00     97023.91
  259.63        2970.75           1508       20205.00     88273.28
  259.66        2971.00           1511       17848.00     77950.69
  259.69        2971.25           1515       14746.00     64374.44
  259.72        2971.50           1518       12729.00     55552.34
  259.74        2971.75           1521       10543.00     45996.00
  259.77        2972.00           1525        7647.00     33343.67
  259.80        2972.25           1528        5555.00     24209.52
  259.83        2972.50           1531        3655.00     15917.73
  259.85        2972.75           1535        1558.00      6770.68
  259.88        2973.00           1538         670.00      2898.67
  259.91        2973.25           1541         201.00       853.99
  259.93        2973.50           1545          55.00       217.53
  259.96        2973.75           1548          36.00       134.70
  259.99        2974.00           1551          32.00       117.26
  260.02        2974.25           1555          31.00       112.90
  260.04        2974.50           1558          22.00        73.67
  260.07        2974.75           1561          23.00        78.03
  260.10        2975.00           1565          18.00        56.23
  260.12        2975.25           1568          22.00        73.67
  260.15        2975.50           1571          24.00        82.39
  260.18        2975.75           1575          25.00        86.75
  260.21        2976.00           1578          19.00        60.59
  260.23        2976.25           1581          20.00        64.95
  260.26        2976.50           1585          27.00        95.47
  260.29        2976.75           1588          18.00        56.23
  260.31        2977.00           1591          23.00        78.03
  260.34        2977.25           1595          24.00        82.39
  260.37        2977.50           1598          19.00        60.59
  260.40        2977.75           1601          24.00        82.39
  260.42        2978.00           1605          21.00        69.31
  260.45        2978.25           1608          22.00        73.67
  260.48        2978.50           1611          14.00        38.80
  260.50        2978.75           1615          21.00        69.31
  260.53        2979.00           1618          24.00        82.39
  260.56        2979.25           1621          22.00        73.67
  260.59        2979.50           1625          20.00        64.95
  260.61        2979.75           1628          22.00        73.67
  260.64        2980.00           1631          18.00        56.23
  260.67        2980.25           1635          17.00        51.87
  260.69        2980.50           1638          19.00        60.59
  260.72        2980.75           1641          16.00        47.52
  260.75        2981.00           1645          23.00        78.03
  260.78        2981.25           1648          21.00        69.31
  260.80        2981.50           1651          25.00        86.75
  260.83        2981.75           1655          19.00        60.59
  260.86        2982.00           1658          20.00        64.95
  260.88        2982.25           1661          23.00        78.03
  260.91        2982.50           1665          21.00        69.31
  260.94        2982.75           1668          15.00        43.16
  260.97        2983.00           1671          22.00        73.67
  260.99        2983.25           1675          20.00        64.95
  261.02        2983.50           1678          20.00        64.95
  261.05        2983.75           1681          20.00        64.95
  261.07        2984.00           1685          21.00        69.31
HS scan finished at 04:21:16
end
