************************************************************
  HS Scan of (1) Internal mercury lamp
************************************************************
Integration time is 0.2294 seconds per sample
dh151218Tamanrasset 22.79-5.529 4.974364pr865
************************************************************
Dead Time -------------------------  2.8E-08 
Number of Cycles Used -------------  4 
Starting Wavelength (Angstroms) ---  2950 
Final Wavelength (Angstoms) -------  2984 
Wavelength Increment (Angstroms) --  .25 
Filter Wheel #1 Position ---------- (1) Ground quartz diffuser (ND=2.32)
Filter Wheel #2 Position ---------- (1) Neutral Density 0.494



************************************************************
HS scan start time = 04:20:33
Dark Count =  .8 


Time (GMT)  Wavelength (Ang)  Step Number  Raw Counts  Counts/Second

  260.91        2950.00           1233          19.00        79.34
  260.97        2950.25           1236          16.00        66.26
  261.00        2950.50           1239          22.00        92.42
  261.02        2950.75           1242          20.00        83.70
  261.05        2951.00           1246          21.00        88.06
  261.08        2951.25           1249          16.00        66.26
  261.11        2951.50           1252          21.00        88.06
  261.13        2951.75           1256          20.00        83.70
  261.16        2952.00           1259          16.00        66.26
  261.19        2952.25           1262          19.00        79.34
  261.21        2952.50           1266          21.00        88.06
  261.24        2952.75           1269          22.00        92.42
  261.27        2953.00           1272          21.00        88.06
  261.30        2953.25           1276          13.00        53.18
  261.32        2953.50           1279          19.00        79.34
  261.35        2953.75           1282          23.00        96.77
  261.38        2954.00           1286          18.00        74.98
  261.40        2954.25           1289          21.00        88.06
  261.43        2954.50           1292          22.00        92.42
  261.46        2954.75           1295          13.00        53.18
  261.49        2955.00           1299          17.00        70.62
  261.51        2955.25           1302          16.00        66.26
  261.54        2955.50           1305          18.00        74.98
  261.57        2955.75           1309          22.00        92.42
  261.59        2956.00           1312          16.00        66.26
  261.62        2956.25           1315          23.00        96.77
  261.65        2956.50           1319          21.00        88.06
  261.68        2956.75           1322          20.00        83.70
  261.70        2957.00           1325          22.00        92.42
  261.73        2957.25           1329          22.00        92.42
  261.76        2957.50           1332          19.00        79.34
  261.78        2957.75           1335          19.00        79.34
  261.81        2958.00           1339          20.00        83.70
  261.84        2958.25           1342          16.00        66.26
  261.87        2958.50           1345          21.00        88.06
  261.89        2958.75           1348          22.00        92.42
  261.92        2959.00           1352          18.00        74.98
  261.95        2959.25           1355          19.00        79.34
  261.97        2959.50           1358          20.00        83.70
  262.00        2959.75           1362          23.00        96.77
  262.03        2960.00           1365          19.00        79.34
  262.06        2960.25           1368          27.00       114.21
  262.08        2960.50           1372          32.00       136.01
  262.11        2960.75           1375          32.00       136.01
  262.14        2961.00           1378          70.00       301.66
  262.16        2961.25           1382         397.00      1727.20
  262.19        2961.50           1385        1006.00      4382.40
  262.22        2961.75           1388        1984.00      8647.25
  262.25        2962.00           1392        4107.00     17908.72
  262.27        2962.25           1395        6037.00     26332.40
  262.30        2962.50           1398        8128.00     35463.27
  262.33        2962.75           1402       10730.00     46832.08
  262.36        2963.00           1405       12900.00     56318.91
  262.38        2963.25           1408       14942.00     65250.76
  262.41        2963.50           1412       17792.00     77724.33
  262.44        2963.75           1415       19923.00     87056.77
  262.46        2964.00           1418       22055.00     96398.47
  262.49        2964.25           1422       24858.00    108687.70
  262.52        2964.50           1425       27004.00    118102.20
  262.55        2964.75           1428       29412.00    128672.00
  262.57        2965.00           1431       31594.00    138255.20
  262.60        2965.25           1435       34560.00    151289.90
  262.63        2965.50           1438       36821.00    161232.80
  262.66        2965.75           1441       38785.00    169874.10
  262.68        2966.00           1445       41588.00    182214.10
  262.71        2966.25           1448       43284.00    189684.80
  262.74        2966.50           1451       44800.00    196365.30
  262.76        2966.75           1455       46018.00    201734.40
  262.79        2967.00           1458       46803.00    205195.60
  262.82        2967.25           1461       46671.00    204613.60
  262.85        2967.50           1465       46481.00    203775.80
  262.87        2967.75           1468       46210.00    202580.90
  262.90        2968.00           1471       45247.00    198335.50
  262.93        2968.25           1475       43712.00    191570.60
  262.96        2968.50           1478       41743.00    182896.80
  262.98        2968.75           1481       39744.00    174095.10
  263.01        2969.00           1485       36919.00    161663.90
  263.04        2969.25           1488       34549.00    151241.60
  263.07        2969.50           1491       32285.00    141291.10
  263.09        2969.75           1495       29284.00    128110.00
  263.12        2970.00           1498       26893.00    117615.10
  263.15        2970.25           1501       24806.00    108459.70
  263.18        2970.50           1505       21786.00     95219.53
  263.20        2970.75           1508       19737.00     86242.00
  263.23        2971.00           1511       17460.00     76270.82
  263.26        2971.25           1515       14548.00     63527.03
  263.28        2971.50           1518       12470.00     54438.63
  263.31        2971.75           1521       10359.00     45210.64
  263.34        2972.00           1525        7536.00     32877.68
  263.37        2972.25           1528        5347.00     23320.37
  263.39        2972.50           1531        3517.00     15334.40
  263.42        2972.75           1535        1572.00      6850.49
  263.45        2973.00           1538         642.00      2795.34
  263.48        2973.25           1541         234.00      1016.59
  263.50        2973.50           1545          54.00       231.91
  263.53        2973.75           1548          31.00       131.65
  263.56        2974.00           1551          31.00       131.65
  263.59        2974.25           1555          24.00       101.13
  263.61        2974.50           1558          25.00       105.49
  263.64        2974.75           1561          21.00        88.06
  263.67        2975.00           1565          26.00       109.85
  263.69        2975.25           1568          17.00        70.62
  263.72        2975.50           1571          24.00       101.13
  263.75        2975.75           1575          23.00        96.77
  263.77        2976.00           1578          22.00        92.42
  263.80        2976.25           1581          23.00        96.77
  263.83        2976.50           1585          24.00       101.13
  263.86        2976.75           1588          18.00        74.98
  263.88        2977.00           1591          21.00        88.06
  263.91        2977.25           1595          21.00        88.06
  263.94        2977.50           1598          21.00        88.06
  263.97        2977.75           1601          22.00        92.42
  263.99        2978.00           1605          18.00        74.98
  264.02        2978.25           1608          22.00        92.42
  264.05        2978.50           1611          17.00        70.62
  264.07        2978.75           1615          19.00        79.34
  264.10        2979.00           1618          21.00        88.06
  264.13        2979.25           1621          21.00        88.06
  264.15        2979.50           1625          17.00        70.62
  264.18        2979.75           1628          18.00        74.98
  264.21        2980.00           1631          21.00        88.06
  264.24        2980.25           1635          21.00        88.06
  264.26        2980.50           1638          23.00        96.77
  264.29        2980.75           1641          18.00        74.98
  264.32        2981.00           1645          23.00        96.77
  264.34        2981.25           1648          18.00        74.98
  264.37        2981.50           1651          21.00        88.06
  264.40        2981.75           1655          19.00        79.34
  264.43        2982.00           1658          22.00        92.42
  264.45        2982.25           1661          19.00        79.34
  264.48        2982.50           1665          24.00       101.13
  264.51        2982.75           1668          23.00        96.77
  264.53        2983.00           1671          22.00        92.42
  264.56        2983.25           1675          20.00        83.70
  264.59        2983.50           1678          22.00        92.42
  264.62        2983.75           1681          25.00       105.49
  264.64        2984.00           1685          21.00        88.06
HS scan finished at 04:24:50
end
