************************************************************
  HS Scan of (1) Internal mercury lamp
************************************************************
Integration time is 0.2294 seconds per sample
dh131218Tamanrasset 22.79-5.529 4.974364pr865
************************************************************
Dead Time -------------------------  2.8E-08 
Number of Cycles Used -------------  4 
Starting Wavelength (Angstroms) ---  2950 
Final Wavelength (Angstoms) -------  2984 
Wavelength Increment (Angstroms) --  .25 
Filter Wheel #1 Position ---------- (1) Ground quartz diffuser (ND=2.32)
Filter Wheel #2 Position ---------- (1) Neutral Density 0.494



************************************************************
HS scan start time = 04:20:03
Dark Count =  4.7 


Time (GMT)  Wavelength (Ang)  Step Number  Raw Counts  Counts/Second

  260.40        2950.00           1233          18.00        57.98
  260.46        2950.25           1236          22.00        75.41
  260.49        2950.50           1239          20.00        66.70
  260.52        2950.75           1242          22.00        75.41
  260.54        2951.00           1246          19.00        62.34
  260.57        2951.25           1249          20.00        66.70
  260.60        2951.50           1252          19.00        62.34
  260.63        2951.75           1256          20.00        66.70
  260.65        2952.00           1259          21.00        71.06
  260.68        2952.25           1262          17.00        53.62
  260.71        2952.50           1266          19.00        62.34
  260.73        2952.75           1269          25.00        88.49
  260.76        2953.00           1272          16.00        49.26
  260.79        2953.25           1276          21.00        71.06
  260.82        2953.50           1279          18.00        57.98
  260.84        2953.75           1282          18.00        57.98
  260.87        2954.00           1286          19.00        62.34
  260.90        2954.25           1289          19.00        62.34
  260.92        2954.50           1292          20.00        66.70
  260.95        2954.75           1295          15.00        44.90
  260.98        2955.00           1299          25.00        88.49
  261.01        2955.25           1302          20.00        66.70
  261.03        2955.50           1305          17.00        53.62
  261.06        2955.75           1309          18.00        57.98
  261.09        2956.00           1312          16.00        49.26
  261.12        2956.25           1315          19.00        62.34
  261.14        2956.50           1319          20.00        66.70
  261.17        2956.75           1322          18.00        57.98
  261.20        2957.00           1325          19.00        62.34
  261.22        2957.25           1329          20.00        66.70
  261.25        2957.50           1332          23.00        79.77
  261.28        2957.75           1335          19.00        62.34
  261.31        2958.00           1339          16.00        49.26
  261.33        2958.25           1342          23.00        79.77
  261.36        2958.50           1345          20.00        66.70
  261.39        2958.75           1348          25.00        88.49
  261.41        2959.00           1352          16.00        49.26
  261.44        2959.25           1355          19.00        62.34
  261.47        2959.50           1358          25.00        88.49
  261.50        2959.75           1362          18.00        57.98
  261.52        2960.00           1365          24.00        84.13
  261.55        2960.25           1368          23.00        79.77
  261.58        2960.50           1372          25.00        88.49
  261.60        2960.75           1375          37.00       140.80
  261.63        2961.00           1378          77.00       315.17
  261.66        2961.25           1382         389.00      1675.32
  261.69        2961.50           1385         993.00      4308.72
  261.71        2961.75           1388        2034.00      8848.31
  261.74        2962.00           1392        4163.00     18136.06
  261.77        2962.25           1395        6212.00     27079.38
  261.79        2962.50           1398        8279.00     36105.80
  261.82        2962.75           1402       10915.00     47623.62
  261.85        2963.00           1405       13043.00     56927.20
  261.88        2963.25           1408       15252.00     66590.04
  261.90        2963.50           1412       18132.00     79195.91
  261.93        2963.75           1415       20102.00     87823.82
  261.96        2964.00           1418       22151.00     96802.13
  261.99        2964.25           1422       25158.00    109986.40
  262.01        2964.50           1425       27353.00    119616.60
  262.04        2964.75           1428       29545.00    129238.90
  262.07        2965.00           1431       31518.00    137904.20
  262.10        2965.25           1435       34665.00    151734.40
  262.12        2965.50           1438       36733.00    160828.60
  262.15        2965.75           1441       39109.00    171282.90
  262.18        2966.00           1445       41911.00    183619.50
  262.21        2966.25           1448       43550.00    190839.60
  262.23        2966.50           1451       44865.00    196634.60
  262.26        2966.75           1455       45972.00    201514.40
  262.29        2967.00           1458       46616.00    204353.80
  262.31        2967.25           1461       46665.00    204569.90
  262.34        2967.50           1465       46239.00    202691.60
  262.37        2967.75           1468       46268.00    202819.40
  262.40        2968.00           1471       45241.00    198291.90
  262.42        2968.25           1475       43620.00    191148.10
  262.45        2968.50           1478       41765.00    182976.50
  262.48        2968.75           1481       39552.00    173232.80
  262.51        2969.00           1485       36722.00    160780.20
  262.53        2969.25           1488       34261.00    149958.30
  262.56        2969.50           1491       31946.00    139784.50
  262.59        2969.75           1495       29203.00    127737.20
  262.61        2970.00           1498       26897.00    117615.60
  262.64        2970.25           1501       24727.00    108096.10
  262.67        2970.50           1505       21765.00     95110.41
  262.70        2970.75           1508       19687.00     86005.92
  262.72        2971.00           1511       17378.00     75894.77
  262.75        2971.25           1515       14493.00     63269.35
  262.78        2971.50           1518       12362.00     53949.35
  262.81        2971.75           1521       10218.00     44577.40
  262.83        2972.00           1525        7484.00     32633.56
  262.86        2972.25           1528        5412.00     23587.06
  262.89        2972.50           1531        3507.00     15273.75
  262.92        2972.75           1535        1461.00      6349.43
  262.94        2973.00           1538         626.00      2708.58
  262.97        2973.25           1541         204.00       868.81
  263.00        2973.50           1545          55.00       219.27
  263.02        2973.75           1548          38.00       145.16
  263.05        2974.00           1551          27.00        97.21
  263.08        2974.25           1555          23.00        79.77
  263.11        2974.50           1558          26.00        92.85
  263.13        2974.75           1561          27.00        97.21
  263.16        2975.00           1565          25.00        88.49
  263.19        2975.25           1568          21.00        71.06
  263.21        2975.50           1571          15.00        44.90
  263.24        2975.75           1575          18.00        57.98
  263.27        2976.00           1578          22.00        75.41
  263.30        2976.25           1581          20.00        66.70
  263.32        2976.50           1585          20.00        66.70
  263.35        2976.75           1588          18.00        57.98
  263.38        2977.00           1591          21.00        71.06
  263.40        2977.25           1595          20.00        66.70
  263.43        2977.50           1598          18.00        57.98
  263.46        2977.75           1601          21.00        71.06
  263.49        2978.00           1605          21.00        71.06
  263.51        2978.25           1608          22.00        75.41
  263.54        2978.50           1611          24.00        84.13
  263.57        2978.75           1615          22.00        75.41
  263.59        2979.00           1618          24.00        84.13
  263.62        2979.25           1621          22.00        75.41
  263.65        2979.50           1625          18.00        57.98
  263.68        2979.75           1628          20.00        66.70
  263.70        2980.00           1631          21.00        71.06
  263.73        2980.25           1635          21.00        71.06
  263.76        2980.50           1638          19.00        62.34
  263.78        2980.75           1641          21.00        71.06
  263.81        2981.00           1645          19.00        62.34
  263.84        2981.25           1648          22.00        75.41
  263.87        2981.50           1651          21.00        71.06
  263.89        2981.75           1655          22.00        75.41
  263.92        2982.00           1658          20.00        66.70
  263.95        2982.25           1661          22.00        75.41
  263.97        2982.50           1665          19.00        62.34
  264.00        2982.75           1668          17.00        53.62
  264.03        2983.00           1671          23.00        79.77
  264.06        2983.25           1675          16.00        49.26
  264.08        2983.50           1678          21.00        71.06
  264.11        2983.75           1681          23.00        79.77
  264.14        2984.00           1685          20.00        66.70
HS scan finished at 04:24:20
end
