************************************************************
  HS Scan of (1) Internal mercury lamp
************************************************************
Integration time is 0.2294 seconds per sample
dh141218Tamanrasset 22.79-5.529 4.974364pr865
************************************************************
Dead Time -------------------------  2.8E-08 
Number of Cycles Used -------------  4 
Starting Wavelength (Angstroms) ---  2950 
Final Wavelength (Angstoms) -------  2984 
Wavelength Increment (Angstroms) --  .25 
Filter Wheel #1 Position ---------- (1) Ground quartz diffuser (ND=2.32)
Filter Wheel #2 Position ---------- (1) Neutral Density 0.494



************************************************************
HS scan start time = 04:20:33
Dark Count =  5.3 


Time (GMT)  Wavelength (Ang)  Step Number  Raw Counts  Counts/Second

  260.91        2950.00           1233          17.00        51.00
  260.97        2950.25           1236          16.00        46.64
  261.00        2950.50           1239          19.00        59.72
  261.02        2950.75           1242          19.00        59.72
  261.05        2951.00           1246          20.00        64.08
  261.08        2951.25           1249          19.00        59.72
  261.11        2951.50           1252          24.00        81.52
  261.13        2951.75           1256          16.00        46.64
  261.16        2952.00           1259          20.00        64.08
  261.19        2952.25           1262          16.00        46.64
  261.21        2952.50           1266          22.00        72.80
  261.24        2952.75           1269          21.00        68.44
  261.27        2953.00           1272          22.00        72.80
  261.30        2953.25           1276          18.00        55.36
  261.32        2953.50           1279          18.00        55.36
  261.35        2953.75           1282          22.00        72.80
  261.38        2954.00           1286          20.00        64.08
  261.40        2954.25           1289          20.00        64.08
  261.43        2954.50           1292          20.00        64.08
  261.46        2954.75           1295          19.00        59.72
  261.49        2955.00           1299          17.00        51.00
  261.51        2955.25           1302          15.00        42.28
  261.54        2955.50           1305          18.00        55.36
  261.57        2955.75           1309          21.00        68.44
  261.59        2956.00           1312          19.00        59.72
  261.62        2956.25           1315          19.00        59.72
  261.65        2956.50           1319          22.00        72.80
  261.68        2956.75           1322          25.00        85.88
  261.70        2957.00           1325          21.00        68.44
  261.73        2957.25           1329          21.00        68.44
  261.76        2957.50           1332          19.00        59.72
  261.78        2957.75           1335          13.00        33.57
  261.81        2958.00           1339          19.00        59.72
  261.84        2958.25           1342          22.00        72.80
  261.87        2958.50           1345          20.00        64.08
  261.89        2958.75           1348          16.00        46.64
  261.92        2959.00           1352          19.00        59.72
  261.95        2959.25           1355          20.00        64.08
  261.97        2959.50           1358          22.00        72.80
  262.00        2959.75           1362          21.00        68.44
  262.03        2960.00           1365          23.00        77.16
  262.06        2960.25           1368          25.00        85.88
  262.08        2960.50           1372          29.00       103.31
  262.11        2960.75           1375          32.00       116.39
  262.14        2961.00           1378          85.00       347.43
  262.17        2961.25           1382         421.00      1812.21
  262.19        2961.50           1385        1060.00      4598.24
  262.22        2961.75           1388        2201.00      9574.06
  262.25        2962.00           1392        4327.00     18849.09
  262.27        2962.25           1395        6364.00     27740.37
  262.30        2962.50           1398        8375.00     36522.51
  262.33        2962.75           1402       11048.00     48202.33
  262.36        2963.00           1405       13263.00     57886.69
  262.38        2963.25           1408       15336.00     66954.96
  262.41        2963.50           1412       18160.00     79315.88
  262.44        2963.75           1415       20278.00     88592.19
  262.47        2964.00           1418       22446.00     98092.51
  262.49        2964.25           1422       25175.00    110058.30
  262.52        2964.50           1425       27486.00    120197.70
  262.55        2964.75           1428       29716.00    129987.10
  262.57        2965.00           1431       31818.00    139219.50
  262.60        2965.25           1435       34732.00    152026.30
  262.63        2965.50           1438       36886.00    161498.90
  262.66        2965.75           1441       38839.00    170091.90
  262.68        2966.00           1445       42057.00    184259.90
  262.71        2966.25           1448       43436.00    190334.70
  262.74        2966.50           1451       44975.00    197116.80
  262.77        2966.75           1455       46021.00    201727.80
  262.79        2967.00           1458       46304.00    202975.50
  262.82        2967.25           1461       46477.00    203738.30
  262.85        2967.50           1465       46382.00    203319.40
  262.87        2967.75           1468       45901.00    201198.70
  262.90        2968.00           1471       45392.00    198954.90
  262.93        2968.25           1475       43488.00    190563.80
  262.96        2968.50           1478       41219.00    180569.30
  262.98        2968.75           1481       39232.00    171821.60
  263.01        2969.00           1485       36291.00    158881.80
  263.04        2969.25           1488       34047.00    149015.00
  263.07        2969.50           1491       31747.00    138907.60
  263.09        2969.75           1495       28995.00    126821.40
  263.12        2970.00           1498       26654.00    116546.70
  263.15        2970.25           1501       24562.00    107369.80
  263.17        2970.50           1505       21509.00     93985.90
  263.20        2970.75           1508       19328.00     84430.84
  263.23        2971.00           1511       17132.00     74815.24
  263.26        2971.25           1515       14435.00     63013.01
  263.28        2971.50           1518       12133.00     52945.48
  263.31        2971.75           1521       10053.00     43853.73
  263.34        2972.00           1525        7328.00     31949.67
  263.37        2972.25           1528        5229.00     22785.68
  263.39        2972.50           1531        3320.00     14455.28
  263.42        2972.75           1535        1404.00      6098.25
  263.45        2973.00           1538         593.00      2562.08
  263.47        2973.25           1541         194.00       822.60
  263.50        2973.50           1545          51.00       199.22
  263.53        2973.75           1548          34.00       125.11
  263.56        2974.00           1551          31.00       112.03
  263.58        2974.25           1555          32.00       116.39
  263.61        2974.50           1558          26.00        90.24
  263.64        2974.75           1561          25.00        85.88
  263.66        2975.00           1565          22.00        72.80
  263.69        2975.25           1568          21.00        68.44
  263.72        2975.50           1571          23.00        77.16
  263.75        2975.75           1575          19.00        59.72
  263.77        2976.00           1578          18.00        55.36
  263.80        2976.25           1581          21.00        68.44
  263.83        2976.50           1585          23.00        77.16
  263.85        2976.75           1588          19.00        59.72
  263.88        2977.00           1591          22.00        72.80
  263.91        2977.25           1595          16.00        46.64
  263.94        2977.50           1598          19.00        59.72
  263.96        2977.75           1601          20.00        64.08
  263.99        2978.00           1605          20.00        64.08
  264.02        2978.25           1608          20.00        64.08
  264.05        2978.50           1611          25.00        85.88
  264.07        2978.75           1615          23.00        77.16
  264.10        2979.00           1618          21.00        68.44
  264.13        2979.25           1621          23.00        77.16
  264.15        2979.50           1625          16.00        46.64
  264.18        2979.75           1628          20.00        64.08
  264.21        2980.00           1631          19.00        59.72
  264.24        2980.25           1635          24.00        81.52
  264.26        2980.50           1638          21.00        68.44
  264.29        2980.75           1641          17.00        51.00
  264.32        2981.00           1645          17.00        51.00
  264.34        2981.25           1648          15.00        42.28
  264.37        2981.50           1651          19.00        59.72
  264.40        2981.75           1655          17.00        51.00
  264.43        2982.00           1658          21.00        68.44
  264.45        2982.25           1661          19.00        59.72
  264.48        2982.50           1665          25.00        85.88
  264.51        2982.75           1668          19.00        59.72
  264.53        2983.00           1671          12.00        29.21
  264.56        2983.25           1675          28.00        98.95
  264.59        2983.50           1678          21.00        68.44
  264.62        2983.75           1681          16.00        46.64
  264.64        2984.00           1685          18.00        55.36
HS scan finished at 04:24:50
end
