************************************************************
  HS Scan of (1) Internal mercury lamp
************************************************************
Integration time is 0.2294 seconds per sample
dh231218Tamanrasset 22.79-5.529 4.974364pr865
************************************************************
Dead Time -------------------------  2.8E-08 
Number of Cycles Used -------------  4 
Starting Wavelength (Angstroms) ---  2950 
Final Wavelength (Angstoms) -------  2984 
Wavelength Increment (Angstroms) --  .25 
Filter Wheel #1 Position ---------- (1) Ground quartz diffuser (ND=2.32)
Filter Wheel #2 Position ---------- (1) Neutral Density 0.494



************************************************************
HS scan start time = 04:25:06
Dark Count =  4.4 


Time (GMT)  Wavelength (Ang)  Step Number  Raw Counts  Counts/Second

  265.46        2950.00           1233          17.00        54.93
  265.52        2950.25           1236          18.00        59.29
  265.55        2950.50           1239          17.00        54.93
  265.58        2950.75           1242          20.00        68.00
  265.61        2951.00           1246          21.00        72.36
  265.63        2951.25           1249          17.00        54.93
  265.66        2951.50           1252          19.00        63.64
  265.69        2951.75           1256          23.00        81.08
  265.71        2952.00           1259          17.00        54.93
  265.74        2952.25           1262          22.00        76.72
  265.77        2952.50           1266          19.00        63.64
  265.80        2952.75           1269          22.00        76.72
  265.82        2953.00           1272          24.00        85.44
  265.85        2953.25           1276          19.00        63.64
  265.88        2953.50           1279          22.00        76.72
  265.90        2953.75           1282          21.00        72.36
  265.93        2954.00           1286          18.00        59.29
  265.96        2954.25           1289          15.00        46.21
  265.99        2954.50           1292          15.00        46.21
  266.01        2954.75           1295          19.00        63.64
  266.04        2955.00           1299          17.00        54.93
  266.07        2955.25           1302          20.00        68.00
  266.09        2955.50           1305          21.00        72.36
  266.12        2955.75           1309          16.00        50.57
  266.15        2956.00           1312          18.00        59.29
  266.18        2956.25           1315          19.00        63.64
  266.20        2956.50           1319          21.00        72.36
  266.23        2956.75           1322          18.00        59.29
  266.26        2957.00           1325          21.00        72.36
  266.28        2957.25           1329          22.00        76.72
  266.31        2957.50           1332          23.00        81.08
  266.34        2957.75           1335          20.00        68.00
  266.37        2958.00           1339          19.00        63.64
  266.39        2958.25           1342          23.00        81.08
  266.42        2958.50           1345          20.00        68.00
  266.45        2958.75           1348          20.00        68.00
  266.47        2959.00           1352          22.00        76.72
  266.50        2959.25           1355          21.00        72.36
  266.53        2959.50           1358          25.00        89.80
  266.56        2959.75           1362          21.00        72.36
  266.58        2960.00           1365          20.00        68.00
  266.61        2960.25           1368          23.00        81.08
  266.64        2960.50           1372          25.00        89.80
  266.66        2960.75           1375          32.00       120.31
  266.69        2961.00           1378          63.00       255.45
  266.72        2961.25           1382         333.00      1432.49
  266.75        2961.50           1385         842.00      3651.64
  266.77        2961.75           1388        1865.00      8112.57
  266.80        2962.00           1392        3821.00     16645.07
  266.83        2962.25           1395        5771.00     25155.47
  266.86        2962.50           1398        7819.00     34097.93
  266.88        2962.75           1402       10327.00     45055.06
  266.91        2963.00           1405       12400.00     54116.82
  266.94        2963.25           1408       14902.00     65059.99
  266.96        2963.50           1412       17583.00     76793.54
  266.99        2963.75           1415       19651.00     85849.54
  267.02        2964.00           1418       21865.00     95549.97
  267.05        2964.25           1422       24656.00    107786.00
  267.07        2964.50           1425       26800.00    117191.20
  267.10        2964.75           1428       29079.00    127194.10
  267.13        2965.00           1431       31154.00    136306.50
  267.16        2965.25           1435       34100.00    149251.90
  267.18        2965.50           1438       36258.00    158740.60
  267.21        2965.75           1441       38484.00    168533.60
  267.24        2966.00           1445       41344.00    181123.80
  267.27        2966.25           1448       43351.00    189964.20
  267.29        2966.50           1451       44629.00    195595.80
  267.32        2966.75           1455       45786.00    200695.70
  267.35        2967.00           1458       46339.00    203133.80
  267.37        2967.25           1461       46483.00    203768.70
  267.40        2967.50           1465       46470.00    203711.40
  267.43        2967.75           1468       46244.00    202714.90
  267.46        2968.00           1471       45565.00    199721.50
  267.48        2968.25           1475       43970.00    192691.60
  267.51        2968.50           1478       41713.00    182748.80
  267.54        2968.75           1481       39721.00    173978.00
  267.57        2969.00           1485       37139.00    162615.80
  267.59        2969.25           1488       34617.00    151524.70
  267.62        2969.50           1491       32266.00    141191.80
  267.65        2969.75           1495       29438.00    128770.40
  267.67        2970.00           1498       27188.00    118893.80
  267.70        2970.25           1501       25191.00    110132.50
  267.73        2970.50           1505       22250.00     97237.36
  267.76        2970.75           1508       19937.00     87102.32
  267.78        2971.00           1511       17804.00     77761.11
  267.81        2971.25           1515       14843.00     64801.87
  267.84        2971.50           1518       12628.00     55113.76
  267.87        2971.75           1521       10516.00     45881.05
  267.89        2972.00           1525        7752.00     33805.31
  267.92        2972.25           1528        5699.00     24841.16
  267.95        2972.50           1531        3736.00     16274.20
  267.97        2972.75           1535        1698.00      7384.26
  268.00        2973.00           1538         695.00      3010.72
  268.03        2973.25           1541         234.00      1000.90
  268.06        2973.50           1545          57.00       229.30
  268.08        2973.75           1548          38.00       146.47
  268.11        2974.00           1551          32.00       120.31
  268.14        2974.25           1555          25.00        89.80
  268.17        2974.50           1558          27.00        98.52
  268.19        2974.75           1561          23.00        81.08
  268.22        2975.00           1565          19.00        63.64
  268.25        2975.25           1568          20.00        68.00
  268.27        2975.50           1571          22.00        76.72
  268.30        2975.75           1575          18.00        59.29
  268.33        2976.00           1578          20.00        68.00
  268.36        2976.25           1581          20.00        68.00
  268.38        2976.50           1585          22.00        76.72
  268.41        2976.75           1588          20.00        68.00
  268.44        2977.00           1591          21.00        72.36
  268.46        2977.25           1595          20.00        68.00
  268.49        2977.50           1598          22.00        76.72
  268.52        2977.75           1601          26.00        94.16
  268.55        2978.00           1605          22.00        76.72
  268.57        2978.25           1608          19.00        63.64
  268.60        2978.50           1611          21.00        72.36
  268.63        2978.75           1615          27.00        98.52
  268.65        2979.00           1618          20.00        68.00
  268.68        2979.25           1621          20.00        68.00
  268.71        2979.50           1625          22.00        76.72
  268.74        2979.75           1628          19.00        63.64
  268.76        2980.00           1631          21.00        72.36
  268.79        2980.25           1635          19.00        63.64
  268.82        2980.50           1638          24.00        85.44
  268.84        2980.75           1641          18.00        59.29
  268.87        2981.00           1645          17.00        54.93
  268.90        2981.25           1648          19.00        63.64
  268.93        2981.50           1651          17.00        54.93
  268.95        2981.75           1655          20.00        68.00
  268.98        2982.00           1658          24.00        85.44
  269.01        2982.25           1661          19.00        63.64
  269.03        2982.50           1665          23.00        81.08
  269.06        2982.75           1668          19.00        63.64
  269.09        2983.00           1671          17.00        54.93
  269.12        2983.25           1675          19.00        63.64
  269.14        2983.50           1678          23.00        81.08
  269.17        2983.75           1681          15.00        46.21
  269.20        2984.00           1685          14.00        41.85
HS scan finished at 04:29:23
end
