************************************************************
  HS Scan of (1) Internal mercury lamp
************************************************************
Integration time is 0.2294 seconds per sample
dh201218Tamanrasset 22.79-5.529 4.974364pr865
************************************************************
Dead Time -------------------------  2.8E-08 
Number of Cycles Used -------------  4 
Starting Wavelength (Angstroms) ---  2950 
Final Wavelength (Angstoms) -------  2984 
Wavelength Increment (Angstroms) --  .25 
Filter Wheel #1 Position ---------- (1) Ground quartz diffuser (ND=2.32)
Filter Wheel #2 Position ---------- (1) Neutral Density 0.494



************************************************************
HS scan start time = 04:24:01
Dark Count =  2.6 


Time (GMT)  Wavelength (Ang)  Step Number  Raw Counts  Counts/Second

  264.37        2950.00           1233          18.00        67.13
  264.43        2950.25           1236          19.00        71.49
  264.46        2950.50           1239          20.00        75.85
  264.49        2950.75           1242          22.00        84.57
  264.52        2951.00           1246          17.00        62.77
  264.54        2951.25           1249          20.00        75.85
  264.57        2951.50           1252          20.00        75.85
  264.60        2951.75           1256          17.00        62.77
  264.62        2952.00           1259          19.00        71.49
  264.65        2952.25           1262          21.00        80.21
  264.68        2952.50           1266          17.00        62.77
  264.71        2952.75           1269          24.00        93.29
  264.73        2953.00           1272          25.00        97.65
  264.76        2953.25           1276          18.00        67.13
  264.79        2953.50           1279          18.00        67.13
  264.81        2953.75           1282          20.00        75.85
  264.84        2954.00           1286          18.00        67.13
  264.87        2954.25           1289          15.00        54.05
  264.90        2954.50           1292          19.00        71.49
  264.92        2954.75           1295          22.00        84.57
  264.95        2955.00           1299          19.00        71.49
  264.98        2955.25           1302          21.00        80.21
  265.00        2955.50           1305          18.00        67.13
  265.03        2955.75           1309          16.00        58.41
  265.06        2956.00           1312          24.00        93.29
  265.09        2956.25           1315          16.00        58.41
  265.11        2956.50           1319          21.00        80.21
  265.14        2956.75           1322          17.00        62.77
  265.17        2957.00           1325          18.00        67.13
  265.19        2957.25           1329          20.00        75.85
  265.22        2957.50           1332          17.00        62.77
  265.25        2957.75           1335          19.00        71.49
  265.28        2958.00           1339          20.00        75.85
  265.30        2958.25           1342          21.00        80.21
  265.33        2958.50           1345          19.00        71.49
  265.36        2958.75           1348          23.00        88.93
  265.38        2959.00           1352          23.00        88.93
  265.41        2959.25           1355          19.00        71.49
  265.44        2959.50           1358          19.00        71.49
  265.47        2959.75           1362          21.00        80.21
  265.49        2960.00           1365          24.00        93.29
  265.52        2960.25           1368          22.00        84.57
  265.55        2960.50           1372          33.00       132.52
  265.57        2960.75           1375          33.00       132.52
  265.60        2961.00           1378          87.00       367.92
  265.63        2961.25           1382         458.00      1985.29
  265.66        2961.50           1385        1091.00      4745.18
  265.68        2961.75           1388        2207.00      9612.00
  265.71        2962.00           1392        4286.00     18681.96
  265.74        2962.25           1395        6291.00     27433.45
  265.77        2962.50           1398        8367.00     36499.36
  265.79        2962.75           1402       10988.00     47951.88
  265.82        2963.00           1405       12999.00     56743.97
  265.85        2963.25           1408       15328.00     66931.78
  265.87        2963.50           1412       18080.00     78977.43
  265.90        2963.75           1415       20239.00     88433.18
  265.93        2964.00           1418       22445.00     98099.96
  265.96        2964.25           1422       25136.00    109899.10
  265.98        2964.50           1425       27322.00    119489.80
  266.01        2964.75           1428       29656.00    129735.50
  266.04        2965.00           1431       31642.00    138458.10
  266.07        2965.25           1435       34410.00    150622.60
  266.09        2965.50           1438       36691.00    160653.00
  266.12        2965.75           1441       38707.00    169522.90
  266.15        2966.00           1445       41396.00    181360.70
  266.17        2966.25           1448       43297.00    189734.20
  266.20        2966.50           1451       44501.00    195039.60
  266.23        2966.75           1455       45777.00    200664.00
  266.26        2967.00           1458       46242.00    202714.00
  266.28        2967.25           1461       45928.00    201329.70
  266.31        2967.50           1465       46168.00    202387.80
  266.34        2967.75           1468       45635.00    200038.00
  266.37        2968.00           1471       44994.00    197212.40
  266.39        2968.25           1475       43109.00    188905.90
  266.42        2968.50           1478       41227.00    180616.40
  266.45        2968.75           1481       38972.00    170689.20
  266.48        2969.00           1485       36120.00    158141.60
  266.50        2969.25           1488       33669.00    147365.30
  266.53        2969.50           1491       31508.00    137869.50
  266.56        2969.75           1495       28416.00    124291.50
  266.58        2970.00           1498       26323.00    115106.20
  266.61        2970.25           1501       24099.00    105351.30
  266.64        2970.50           1505       21352.00     93309.74
  266.67        2970.75           1508       19141.00     83623.66
  266.69        2971.00           1511       16991.00     74209.85
  266.72        2971.25           1515       14221.00     62088.67
  266.75        2971.50           1518       12037.00     52537.57
  266.78        2971.75           1521        9887.00     43140.14
  266.80        2972.00           1525        7098.00     30957.08
  266.83        2972.25           1528        5058.00     22051.10
  266.86        2972.50           1531        3189.00     13895.55
  266.88        2972.75           1535        1341.00      5835.30
  266.91        2973.00           1538         541.00      2347.15
  266.94        2973.25           1541         177.00       760.26
  266.97        2973.50           1545          49.00       202.27
  266.99        2973.75           1548          36.00       145.60
  267.02        2974.00           1551          30.00       119.44
  267.05        2974.25           1555          21.00        80.21
  267.07        2974.50           1558          25.00        97.65
  267.10        2974.75           1561          19.00        71.49
  267.13        2975.00           1565          25.00        97.65
  267.16        2975.25           1568          20.00        75.85
  267.18        2975.50           1571          18.00        67.13
  267.21        2975.75           1575          18.00        67.13
  267.24        2976.00           1578          19.00        71.49
  267.26        2976.25           1581          20.00        75.85
  267.29        2976.50           1585          23.00        88.93
  267.32        2976.75           1588          20.00        75.85
  267.35        2977.00           1591          22.00        84.57
  267.37        2977.25           1595          21.00        80.21
  267.40        2977.50           1598          19.00        71.49
  267.43        2977.75           1601          21.00        80.21
  267.45        2978.00           1605          16.00        58.41
  267.48        2978.25           1608          25.00        97.65
  267.51        2978.50           1611          23.00        88.93
  267.54        2978.75           1615          22.00        84.57
  267.56        2979.00           1618          22.00        84.57
  267.59        2979.25           1621          19.00        71.49
  267.62        2979.50           1625          18.00        67.13
  267.65        2979.75           1628          23.00        88.93
  267.67        2980.00           1631          19.00        71.49
  267.70        2980.25           1635          17.00        62.77
  267.73        2980.50           1638          19.00        71.49
  267.75        2980.75           1641          19.00        71.49
  267.78        2981.00           1645          16.00        58.41
  267.81        2981.25           1648          19.00        71.49
  267.84        2981.50           1651          21.00        80.21
  267.86        2981.75           1655          21.00        80.21
  267.89        2982.00           1658          20.00        75.85
  267.92        2982.25           1661          19.00        71.49
  267.95        2982.50           1665          16.00        58.41
  267.97        2982.75           1668          24.00        93.29
  268.00        2983.00           1671          17.00        62.77
  268.03        2983.25           1675          16.00        58.41
  268.05        2983.50           1678          22.00        84.57
  268.08        2983.75           1681          17.00        62.77
  268.11        2984.00           1685          21.00        80.21
HS scan finished at 04:28:18
end
