************************************************************
  HS Scan of (1) Internal mercury lamp
************************************************************
Integration time is 0.2294 seconds per sample
dh241218Tamanrasset 22.79-5.529 4.974364pr865
************************************************************
Dead Time -------------------------  2.8E-08 
Number of Cycles Used -------------  4 
Starting Wavelength (Angstroms) ---  2950 
Final Wavelength (Angstoms) -------  2984 
Wavelength Increment (Angstroms) --  .25 
Filter Wheel #1 Position ---------- (1) Ground quartz diffuser (ND=2.32)
Filter Wheel #2 Position ---------- (1) Neutral Density 0.494



************************************************************
HS scan start time = 04:26:04
Dark Count =  4.2 


Time (GMT)  Wavelength (Ang)  Step Number  Raw Counts  Counts/Second

  266.42        2950.00           1233          20.00        68.88
  266.48        2950.25           1236          20.00        68.88
  266.51        2950.50           1239          20.00        68.88
  266.53        2950.75           1242          19.00        64.52
  266.56        2951.00           1246          19.00        64.52
  266.59        2951.25           1249          19.00        64.52
  266.62        2951.50           1252          18.00        60.16
  266.64        2951.75           1256          16.00        51.44
  266.67        2952.00           1259          19.00        64.52
  266.70        2952.25           1262          20.00        68.88
  266.72        2952.50           1266          20.00        68.88
  266.75        2952.75           1269          18.00        60.16
  266.78        2953.00           1272          18.00        60.16
  266.81        2953.25           1276          20.00        68.88
  266.83        2953.50           1279          24.00        86.31
  266.86        2953.75           1282          19.00        64.52
  266.89        2954.00           1286          18.00        60.16
  266.91        2954.25           1289          21.00        73.23
  266.94        2954.50           1292          23.00        81.95
  266.97        2954.75           1295          19.00        64.52
  267.00        2955.00           1299          17.00        55.80
  267.02        2955.25           1302          20.00        68.88
  267.05        2955.50           1305          18.00        60.16
  267.08        2955.75           1309          21.00        73.23
  267.10        2956.00           1312          21.00        73.23
  267.13        2956.25           1315          19.00        64.52
  267.16        2956.50           1319          18.00        60.16
  267.19        2956.75           1322          21.00        73.23
  267.21        2957.00           1325          20.00        68.88
  267.24        2957.25           1329          19.00        64.52
  267.27        2957.50           1332          20.00        68.88
  267.29        2957.75           1335          17.00        55.80
  267.32        2958.00           1339          18.00        60.16
  267.35        2958.25           1342          23.00        81.95
  267.37        2958.50           1345          20.00        68.88
  267.40        2958.75           1348          20.00        68.88
  267.43        2959.00           1352          17.00        55.80
  267.46        2959.25           1355          18.00        60.16
  267.48        2959.50           1358          23.00        81.95
  267.51        2959.75           1362          24.00        86.31
  267.54        2960.00           1365          24.00        86.31
  267.57        2960.25           1368          27.00        99.39
  267.59        2960.50           1372          26.00        95.03
  267.62        2960.75           1375          38.00       147.34
  267.65        2961.00           1378         110.00       461.21
  267.67        2961.25           1382         530.00      2292.21
  267.70        2961.50           1385        1220.00      5300.70
  267.73        2961.75           1388        2413.00     10503.53
  267.76        2962.00           1392        4586.00     19984.15
  267.78        2962.25           1395        6647.00     28980.79
  267.81        2962.50           1398        8657.00     37759.17
  267.84        2962.75           1402       11495.00     50161.08
  267.87        2963.00           1405       13637.00     59527.21
  267.89        2963.25           1408       15851.00     69213.35
  267.92        2963.50           1412       18651.00     81470.74
  267.95        2963.75           1415       20681.00     90362.60
  267.97        2964.00           1418       22806.00     99675.37
  268.00        2964.25           1422       25537.00    111651.00
  268.03        2964.50           1425       27663.00    120979.30
  268.06        2964.75           1428       29945.00    130997.50
  268.08        2965.00           1431       31996.00    140006.40
  268.11        2965.25           1435       35040.00    153385.40
  268.14        2965.50           1438       37402.00    163773.70
  268.17        2965.75           1441       39208.00    171720.80
  268.19        2966.00           1445       41844.00    183326.60
  268.22        2966.25           1448       43547.00    190828.60
  268.25        2966.50           1451       44993.00    197201.00
  268.27        2966.75           1455       46136.00    202239.60
  268.30        2967.00           1458       46217.00    202596.80
  268.33        2967.25           1461       46392.00    203368.40
  268.36        2967.50           1465       46086.00    202019.20
  268.38        2967.75           1468       45358.00    198809.90
  268.41        2968.00           1471       44699.00    195905.20
  268.44        2968.25           1475       42591.00    186616.90
  268.47        2968.50           1478       40725.00    178398.90
  268.49        2968.75           1481       38761.00    169753.50
  268.52        2969.00           1485       35734.00    156437.00
  268.55        2969.25           1488       33370.00    146044.10
  268.58        2969.50           1491       31125.00    136180.00
  268.60        2969.75           1495       28381.00    124130.80
  268.63        2970.00           1498       26137.00    114283.20
  268.66        2970.25           1501       23827.00    104151.60
  268.68        2970.50           1505       20928.00     91444.83
  268.71        2970.75           1508       18767.00     81978.72
  268.74        2971.00           1511       16698.00     72920.32
  268.77        2971.25           1515       13779.00     60148.30
  268.79        2971.50           1518       11708.00     51092.22
  268.82        2971.75           1521        9713.00     42372.82
  268.85        2972.00           1525        6859.00     29906.46
  268.88        2972.25           1528        4777.00     20817.71
  268.90        2972.50           1531        3039.00     13234.20
  268.93        2972.75           1535        1212.00      5265.82
  268.96        2973.00           1538         468.00      2021.91
  268.99        2973.25           1541         145.00       613.79
  269.01        2973.50           1545          47.00       186.57
  269.04        2973.75           1548          38.00       147.34
  269.07        2974.00           1551          30.00       112.47
  269.09        2974.25           1555          25.00        90.67
  269.12        2974.50           1558          24.00        86.31
  269.15        2974.75           1561          25.00        90.67
  269.18        2975.00           1565          20.00        68.88
  269.20        2975.25           1568          22.00        77.59
  269.23        2975.50           1571          19.00        64.52
  269.26        2975.75           1575          22.00        77.59
  269.28        2976.00           1578          19.00        64.52
  269.31        2976.25           1581          21.00        73.23
  269.34        2976.50           1585          22.00        77.59
  269.37        2976.75           1588          23.00        81.95
  269.39        2977.00           1591          21.00        73.23
  269.42        2977.25           1595          22.00        77.59
  269.45        2977.50           1598          18.00        60.16
  269.47        2977.75           1601          19.00        64.52
  269.50        2978.00           1605          24.00        86.31
  269.53        2978.25           1608          22.00        77.59
  269.56        2978.50           1611          20.00        68.88
  269.58        2978.75           1615          20.00        68.88
  269.61        2979.00           1618          25.00        90.67
  269.64        2979.25           1621          21.00        73.23
  269.66        2979.50           1625          14.00        42.72
  269.69        2979.75           1628          21.00        73.23
  269.72        2980.00           1631          18.00        60.16
  269.75        2980.25           1635          23.00        81.95
  269.77        2980.50           1638          18.00        60.16
  269.80        2980.75           1641          23.00        81.95
  269.83        2981.00           1645          21.00        73.23
  269.85        2981.25           1648          20.00        68.88
  269.88        2981.50           1651          20.00        68.88
  269.91        2981.75           1655          17.00        55.80
  269.94        2982.00           1658          22.00        77.59
  269.96        2982.25           1661          17.00        55.80
  269.99        2982.50           1665          15.00        47.08
  270.02        2982.75           1668          18.00        60.16
  270.04        2983.00           1671          20.00        68.88
  270.07        2983.25           1675          18.00        60.16
  270.10        2983.50           1678          20.00        68.88
  270.13        2983.75           1681          18.00        60.16
  270.15        2984.00           1685          14.00        42.72
HS scan finished at 04:30:20
end
