************************************************************
  HS Scan of (1) Internal mercury lamp
************************************************************
Integration time is 0.2294 seconds per sample
dh251218Tamanrasset 22.79-5.529 4.974364pr865
************************************************************
Dead Time -------------------------  2.8E-08 
Number of Cycles Used -------------  4 
Starting Wavelength (Angstroms) ---  2950 
Final Wavelength (Angstoms) -------  2984 
Wavelength Increment (Angstroms) --  .25 
Filter Wheel #1 Position ---------- (1) Ground quartz diffuser (ND=2.32)
Filter Wheel #2 Position ---------- (1) Neutral Density 0.494



************************************************************
HS scan start time = 04:26:34
Dark Count =  6.5 


Time (GMT)  Wavelength (Ang)  Step Number  Raw Counts  Counts/Second

  266.92        2950.00           1233          20.00        58.85
  266.99        2950.25           1236          18.00        50.13
  267.01        2950.50           1239          21.00        63.21
  267.04        2950.75           1242          17.00        45.77
  267.07        2951.00           1246          21.00        63.21
  267.09        2951.25           1249          20.00        58.85
  267.12        2951.50           1252          21.00        63.21
  267.15        2951.75           1256          16.00        41.41
  267.17        2952.00           1259          24.00        76.29
  267.20        2952.25           1262          19.00        54.49
  267.23        2952.50           1266          22.00        67.57
  267.26        2952.75           1269          19.00        54.49
  267.28        2953.00           1272          21.00        63.21
  267.31        2953.25           1276          24.00        76.29
  267.34        2953.50           1279          18.00        50.13
  267.36        2953.75           1282          19.00        54.49
  267.39        2954.00           1286          18.00        50.13
  267.42        2954.25           1289          20.00        58.85
  267.45        2954.50           1292          17.00        45.77
  267.47        2954.75           1295          20.00        58.85
  267.50        2955.00           1299          22.00        67.57
  267.53        2955.25           1302          25.00        80.65
  267.55        2955.50           1305          18.00        50.13
  267.58        2955.75           1309          17.00        45.77
  267.61        2956.00           1312          22.00        67.57
  267.64        2956.25           1315          18.00        50.13
  267.66        2956.50           1319          16.00        41.41
  267.69        2956.75           1322          18.00        50.13
  267.72        2957.00           1325          22.00        67.57
  267.74        2957.25           1329          19.00        54.49
  267.77        2957.50           1332          21.00        63.21
  267.80        2957.75           1335          21.00        63.21
  267.83        2958.00           1339          22.00        67.57
  267.85        2958.25           1342          15.00        37.05
  267.88        2958.50           1345          20.00        58.85
  267.91        2958.75           1348          16.00        41.41
  267.94        2959.00           1352          20.00        58.85
  267.96        2959.25           1355          20.00        58.85
  267.99        2959.50           1358          14.00        32.69
  268.02        2959.75           1362          23.00        71.93
  268.04        2960.00           1365          25.00        80.65
  268.07        2960.25           1368          27.00        89.36
  268.10        2960.50           1372          29.00        98.08
  268.13        2960.75           1375          31.00       106.80
  268.15        2961.00           1378          89.00       359.64
  268.18        2961.25           1382         417.00      1789.54
  268.21        2961.50           1385        1029.00      4457.84
  268.23        2961.75           1388        2072.00      9006.20
  268.26        2962.00           1392        4173.00     18171.84
  268.29        2962.25           1395        6322.00     27551.76
  268.32        2962.50           1398        8316.00     36259.55
  268.34        2962.75           1402       11028.00     48109.67
  268.37        2963.00           1405       13133.00     57312.92
  268.40        2963.25           1408       15327.00     66910.34
  268.43        2963.50           1412       17877.00     78071.53
  268.45        2963.75           1415       19959.00     87189.49
  268.48        2964.00           1418       22201.00     97013.39
  268.51        2964.25           1422       24878.00    108750.40
  268.54        2964.50           1425       27010.00    118103.50
  268.56        2964.75           1428       29319.00    128238.60
  268.59        2965.00           1431       31296.00    136921.10
  268.62        2965.25           1435       34305.00    150143.80
  268.64        2965.50           1438       36368.00    159215.20
  268.67        2965.75           1441       38569.00    168898.40
  268.70        2966.00           1445       41067.00    179894.70
  268.73        2966.25           1448       43113.00    188906.30
  268.75        2966.50           1451       44515.00    195084.10
  268.78        2966.75           1455       45784.00    200677.60
  268.81        2967.00           1458       46254.00    202749.80
  268.84        2967.25           1461       46223.00    202613.10
  268.86        2967.50           1465       46162.00    202344.10
  268.89        2967.75           1468       45719.00    200391.10
  268.92        2968.00           1471       44780.00    196252.00
  268.94        2968.25           1475       42900.00    187968.00
  268.97        2968.50           1478       41174.00    180365.90
  269.00        2968.75           1481       39341.00    172296.10
  269.03        2969.00           1485       36148.00    158247.60
  269.05        2969.25           1488       33770.00    147792.10
  269.08        2969.50           1491       31640.00    138432.20
  269.11        2969.75           1495       28672.00    125398.10
  269.14        2970.00           1498       26280.00    114900.50
  269.16        2970.25           1501       24385.00    106588.40
  269.19        2970.50           1505       21424.00     93608.16
  269.22        2970.75           1508       19267.00     84158.42
  269.25        2971.00           1511       16957.00     74043.94
  269.27        2971.25           1515       14272.00     62294.71
  269.30        2971.50           1518       12039.00     52529.26
  269.33        2971.75           1521        9872.00     43057.55
  269.36        2972.00           1525        7073.00     30830.88
  269.38        2972.25           1528        5085.00     22151.93
  269.41        2972.50           1531        3322.00     14458.77
  269.44        2972.75           1535        1436.00      6232.56
  269.47        2973.00           1538         585.00      2521.97
  269.49        2973.25           1541         194.00       817.37
  269.52        2973.50           1545          40.00       146.03
  269.55        2973.75           1548          31.00       106.80
  269.57        2974.00           1551          33.00       115.52
  269.60        2974.25           1555          31.00       106.80
  269.63        2974.50           1558          25.00        80.65
  269.66        2974.75           1561          21.00        63.21
  269.68        2975.00           1565          20.00        58.85
  269.71        2975.25           1568          20.00        58.85
  269.74        2975.50           1571          22.00        67.57
  269.77        2975.75           1575          21.00        63.21
  269.79        2976.00           1578          23.00        71.93
  269.82        2976.25           1581          22.00        67.57
  269.85        2976.50           1585          19.00        54.49
  269.87        2976.75           1588          22.00        67.57
  269.90        2977.00           1591          17.00        45.77
  269.93        2977.25           1595          22.00        67.57
  269.96        2977.50           1598          19.00        54.49
  269.98        2977.75           1601          18.00        50.13
  270.01        2978.00           1605          19.00        54.49
  270.04        2978.25           1608          24.00        76.29
  270.06        2978.50           1611          20.00        58.85
  270.09        2978.75           1615          25.00        80.65
  270.12        2979.00           1618          18.00        50.13
  270.15        2979.25           1621          20.00        58.85
  270.17        2979.50           1625          21.00        63.21
  270.20        2979.75           1628          27.00        89.36
  270.23        2980.00           1631          20.00        58.85
  270.25        2980.25           1635          20.00        58.85
  270.28        2980.50           1638          20.00        58.85
  270.31        2980.75           1641          20.00        58.85
  270.34        2981.00           1645          20.00        58.85
  270.36        2981.25           1648          21.00        63.21
  270.39        2981.50           1651          19.00        54.49
  270.42        2981.75           1655          19.00        54.49
  270.44        2982.00           1658          20.00        58.85
  270.47        2982.25           1661          18.00        50.13
  270.50        2982.50           1665          20.00        58.85
  270.53        2982.75           1668          21.00        63.21
  270.55        2983.00           1671          19.00        54.49
  270.58        2983.25           1675          21.00        63.21
  270.61        2983.50           1678          18.00        50.13
  270.63        2983.75           1681          17.00        45.77
  270.66        2984.00           1685          13.00        28.33
HS scan finished at 04:30:51
end
