************************************************************
  HS Scan of (1) Internal mercury lamp
************************************************************
Integration time is 0.2294 seconds per sample
dh161218Tamanrasset 22.79-5.529 4.974364pr865
************************************************************
Dead Time -------------------------  2.8E-08 
Number of Cycles Used -------------  4 
Starting Wavelength (Angstroms) ---  2950 
Final Wavelength (Angstoms) -------  2984 
Wavelength Increment (Angstroms) --  .25 
Filter Wheel #1 Position ---------- (1) Ground quartz diffuser (ND=2.32)
Filter Wheel #2 Position ---------- (1) Neutral Density 0.494



************************************************************
HS scan start time = 04:21:04
Dark Count =  3.3 


Time (GMT)  Wavelength (Ang)  Step Number  Raw Counts  Counts/Second

  261.42        2950.00           1233          18.00        64.08
  261.48        2950.25           1236          24.00        90.24
  261.51        2950.50           1239          24.00        90.24
  261.54        2950.75           1242          21.00        77.16
  261.56        2951.00           1246          20.00        72.80
  261.59        2951.25           1249          18.00        64.08
  261.62        2951.50           1252          19.00        68.44
  261.65        2951.75           1256          22.00        81.52
  261.67        2952.00           1259          21.00        77.16
  261.70        2952.25           1262          18.00        64.08
  261.73        2952.50           1266          22.00        81.52
  261.75        2952.75           1269          20.00        72.80
  261.78        2953.00           1272          20.00        72.80
  261.81        2953.25           1276          20.00        72.80
  261.84        2953.50           1279          21.00        77.16
  261.86        2953.75           1282          21.00        77.16
  261.89        2954.00           1286          22.00        81.52
  261.92        2954.25           1289          23.00        85.88
  261.95        2954.50           1292          25.00        94.59
  261.97        2954.75           1295          21.00        77.16
  262.00        2955.00           1299          20.00        72.80
  262.03        2955.25           1302          18.00        64.08
  262.05        2955.50           1305          20.00        72.80
  262.08        2955.75           1309          14.00        46.64
  262.11        2956.00           1312          23.00        85.88
  262.14        2956.25           1315          22.00        81.52
  262.16        2956.50           1319          22.00        81.52
  262.19        2956.75           1322          16.00        55.36
  262.22        2957.00           1325          16.00        55.36
  262.24        2957.25           1329          17.00        59.72
  262.27        2957.50           1332          21.00        77.16
  262.30        2957.75           1335          27.00       103.31
  262.33        2958.00           1339          16.00        55.36
  262.35        2958.25           1342          18.00        64.08
  262.38        2958.50           1345          17.00        59.72
  262.41        2958.75           1348          18.00        64.08
  262.43        2959.00           1352          16.00        55.36
  262.46        2959.25           1355          19.00        68.44
  262.49        2959.50           1358          18.00        64.08
  262.52        2959.75           1362          19.00        68.44
  262.54        2960.00           1365          27.00       103.31
  262.57        2960.25           1368          29.00       112.03
  262.60        2960.50           1372          25.00        94.59
  262.62        2960.75           1375          29.00       112.03
  262.65        2961.00           1378          90.00       377.95
  262.68        2961.25           1382         445.00      1925.56
  262.71        2961.50           1385        1044.00      4537.19
  262.73        2961.75           1388        2093.00      9111.74
  262.76        2962.00           1392        4153.00     18098.54
  262.79        2962.25           1395        6099.00     26592.16
  262.82        2962.50           1398        8341.00     36382.74
  262.84        2962.75           1402       10943.00     47752.13
  262.87        2963.00           1405       12954.00     56544.12
  262.90        2963.25           1408       15082.00     65852.35
  262.92        2963.50           1412       17870.00     78054.88
  262.95        2963.75           1415       20008.00     87418.16
  262.98        2964.00           1418       22125.00     96694.31
  263.01        2964.25           1422       25082.00    109659.20
  263.03        2964.50           1425       27163.00    118789.00
  263.06        2964.75           1428       29272.00    128046.30
  263.09        2965.00           1431       31402.00    137400.70
  263.12        2965.25           1435       34399.00    150571.10
  263.14        2965.50           1438       36793.00    161098.60
  263.17        2965.75           1441       38737.00    169651.90
  263.20        2966.00           1445       41532.00    181956.50
  263.22        2966.25           1448       43290.00    189700.30
  263.25        2966.50           1451       45010.00    197279.90
  263.28        2966.75           1455       46129.00    202212.80
  263.31        2967.00           1458       46538.00    204016.10
  263.33        2967.25           1461       46646.00    204492.30
  263.36        2967.50           1465       46379.00    203315.00
  263.39        2967.75           1468       46200.00    202525.80
  263.42        2968.00           1471       45720.00    200409.60
  263.44        2968.25           1475       43846.00    192150.00
  263.47        2968.50           1478       41980.00    183929.60
  263.50        2968.75           1481       39922.00    174867.60
  263.53        2969.00           1485       37092.00    162413.90
  263.55        2969.25           1488       34631.00    151591.10
  263.58        2969.50           1491       32381.00    141701.90
  263.61        2969.75           1495       29460.00    128871.80
  263.64        2970.00           1498       27110.00    118556.40
  263.66        2970.25           1501       25208.00    110211.90
  263.69        2970.50           1505       22154.00     96821.41
  263.72        2970.75           1508       19973.00     87264.84
  263.75        2971.00           1511       17587.00     76815.87
  263.77        2971.25           1515       14793.00     64587.93
  263.80        2971.50           1518       12546.00     54760.01
  263.83        2971.75           1521       10465.00     45662.97
  263.85        2972.00           1525        7616.00     33216.15
  263.88        2972.25           1528        5382.00     23462.23
  263.91        2972.50           1531        3519.00     15332.21
  263.94        2972.75           1535        1569.00      6826.50
  263.96        2973.00           1538         658.00      2854.20
  263.99        2973.25           1541         208.00       892.35
  264.02        2973.50           1545          44.00       177.42
  264.05        2973.75           1548          39.00       155.62
  264.07        2974.00           1551          32.00       125.11
  264.10        2974.25           1555          22.00        81.52
  264.13        2974.50           1558          23.00        85.88
  264.15        2974.75           1561          26.00        98.95
  264.18        2975.00           1565          25.00        94.59
  264.21        2975.25           1568          22.00        81.52
  264.24        2975.50           1571          28.00       107.67
  264.26        2975.75           1575          21.00        77.16
  264.29        2976.00           1578          19.00        68.44
  264.32        2976.25           1581          23.00        85.88
  264.34        2976.50           1585          20.00        72.80
  264.37        2976.75           1588          23.00        85.88
  264.40        2977.00           1591          20.00        72.80
  264.43        2977.25           1595          22.00        81.52
  264.45        2977.50           1598          24.00        90.24
  264.48        2977.75           1601          21.00        77.16
  264.51        2978.00           1605          21.00        77.16
  264.53        2978.25           1608          22.00        81.52
  264.56        2978.50           1611          19.00        68.44
  264.59        2978.75           1615          18.00        64.08
  264.62        2979.00           1618          15.00        51.00
  264.64        2979.25           1621          20.00        72.80
  264.67        2979.50           1625          18.00        64.08
  264.70        2979.75           1628          25.00        94.59
  264.72        2980.00           1631          25.00        94.59
  264.75        2980.25           1635          25.00        94.59
  264.78        2980.50           1638          20.00        72.80
  264.81        2980.75           1641          20.00        72.80
  264.83        2981.00           1645          20.00        72.80
  264.86        2981.25           1648          17.00        59.72
  264.89        2981.50           1651          21.00        77.16
  264.91        2981.75           1655          20.00        72.80
  264.94        2982.00           1658          21.00        77.16
  264.97        2982.25           1661          21.00        77.16
  265.00        2982.50           1665          20.00        72.80
  265.02        2982.75           1668          23.00        85.88
  265.05        2983.00           1671          20.00        72.80
  265.08        2983.25           1675          18.00        64.08
  265.10        2983.50           1678          23.00        85.88
  265.13        2983.75           1681          20.00        72.80
  265.16        2984.00           1685          21.00        77.16
HS scan finished at 04:25:21
end
