************************************************************
  HS Scan of (1) Internal mercury lamp
************************************************************
Integration time is 0.2294 seconds per sample
dh181218Tamanrasset 22.79-5.529 4.974364pr865
************************************************************
Dead Time -------------------------  2.8E-08 
Number of Cycles Used -------------  4 
Starting Wavelength (Angstroms) ---  2950 
Final Wavelength (Angstoms) -------  2984 
Wavelength Increment (Angstroms) --  .25 
Filter Wheel #1 Position ---------- (1) Ground quartz diffuser (ND=2.32)
Filter Wheel #2 Position ---------- (1) Neutral Density 0.494



************************************************************
HS scan start time = 04:23:31
Dark Count =  4.6 


Time (GMT)  Wavelength (Ang)  Step Number  Raw Counts  Counts/Second

  263.87        2950.00           1233          22.00        75.85
  263.93        2950.25           1236          18.00        58.41
  263.96        2950.50           1239          18.00        58.41
  263.98        2950.75           1242          20.00        67.13
  264.01        2951.00           1246          22.00        75.85
  264.04        2951.25           1249          18.00        58.41
  264.07        2951.50           1252          23.00        80.21
  264.09        2951.75           1256          23.00        80.21
  264.12        2952.00           1259          21.00        71.49
  264.15        2952.25           1262          23.00        80.21
  264.17        2952.50           1266          17.00        54.05
  264.20        2952.75           1269          22.00        75.85
  264.23        2953.00           1272          22.00        75.85
  264.26        2953.25           1276          22.00        75.85
  264.28        2953.50           1279          18.00        58.41
  264.31        2953.75           1282          22.00        75.85
  264.34        2954.00           1286          16.00        49.69
  264.37        2954.25           1289          17.00        54.05
  264.39        2954.50           1292          18.00        58.41
  264.42        2954.75           1295          17.00        54.05
  264.45        2955.00           1299          17.00        54.05
  264.47        2955.25           1302          20.00        67.13
  264.50        2955.50           1305          21.00        71.49
  264.53        2955.75           1309          17.00        54.05
  264.56        2956.00           1312          21.00        71.49
  264.58        2956.25           1315          19.00        62.77
  264.61        2956.50           1319          19.00        62.77
  264.64        2956.75           1322          22.00        75.85
  264.66        2957.00           1325          19.00        62.77
  264.69        2957.25           1329          20.00        67.13
  264.72        2957.50           1332          20.00        67.13
  264.75        2957.75           1335          23.00        80.21
  264.77        2958.00           1339          17.00        54.05
  264.80        2958.25           1342          20.00        67.13
  264.83        2958.50           1345          20.00        67.13
  264.85        2958.75           1348          17.00        54.05
  264.88        2959.00           1352          19.00        62.77
  264.91        2959.25           1355          19.00        62.77
  264.94        2959.50           1358          22.00        75.85
  264.96        2959.75           1362          23.00        80.21
  264.99        2960.00           1365          22.00        75.85
  265.02        2960.25           1368          27.00        97.65
  265.04        2960.50           1372          27.00        97.65
  265.07        2960.75           1375          32.00       119.44
  265.10        2961.00           1378          49.00       193.55
  265.13        2961.25           1382         264.00      1130.81
  265.15        2961.50           1385         688.00      2979.32
  265.18        2961.75           1388        1565.00      6803.39
  265.21        2962.00           1392        3456.00     15051.68
  265.23        2962.25           1395        5261.00     22928.40
  265.26        2962.50           1398        7298.00     31821.72
  265.29        2962.75           1402       10029.00     43751.92
  265.32        2963.00           1405       12275.00     53569.40
  265.34        2963.25           1408       14368.00     62722.97
  265.37        2963.50           1412       17140.00     74853.32
  265.40        2963.75           1415       19399.00     84744.88
  265.43        2964.00           1418       21384.00     93441.19
  265.45        2964.25           1422       24251.00    106009.10
  265.48        2964.50           1425       26372.00    115312.40
  265.51        2964.75           1428       28595.00    125068.40
  265.53        2965.00           1431       30810.00    134794.60
  265.56        2965.25           1435       33761.00    147760.90
  265.59        2965.50           1438       35707.00    156316.50
  265.62        2965.75           1441       37975.00    166293.00
  265.64        2966.00           1445       40842.00    178912.40
  265.67        2966.25           1448       42810.00    187579.90
  265.70        2966.50           1451       44325.00    194255.10
  265.73        2966.75           1455       45974.00    201523.60
  265.75        2967.00           1458       46437.00    203565.00
  265.78        2967.25           1461       46668.00    204583.60
  265.81        2967.50           1465       46486.00    203781.10
  265.84        2967.75           1468       46508.00    203878.10
  265.86        2968.00           1471       45906.00    201223.90
  265.89        2968.25           1475       44375.00    194475.50
  265.92        2968.50           1478       42295.00    185311.30
  265.94        2968.75           1481       40598.00    177838.00
  265.97        2969.00           1485       37628.00    164766.20
  266.00        2969.25           1488       35455.00    155208.40
  266.03        2969.50           1491       33138.00    145022.70
  266.05        2969.75           1495       30080.00    131588.60
  266.08        2970.00           1498       27767.00    121434.00
  266.11        2970.25           1501       25527.00    111605.40
  266.14        2970.50           1505       22664.00     99051.15
  266.16        2970.75           1508       20343.00     88880.03
  266.19        2971.00           1511       18097.00     79043.10
  266.22        2971.25           1515       15247.00     66568.60
  266.24        2971.50           1518       12971.00     56612.78
  266.27        2971.75           1521       10930.00     47689.62
  266.30        2972.00           1525        8119.00     35407.36
  266.33        2972.25           1528        6104.00     26608.31
  266.35        2972.50           1531        4125.00     17970.68
  266.38        2972.75           1535        1967.00      8556.54
  266.41        2973.00           1538         837.00      3628.96
  266.44        2973.25           1541         289.00      1239.80
  266.46        2973.50           1545          64.00       258.94
  266.49        2973.75           1548          36.00       136.88
  266.52        2974.00           1551          31.00       115.08
  266.55        2974.25           1555          29.00       106.36
  266.57        2974.50           1558          23.00        80.21
  266.60        2974.75           1561          28.00       102.01
  266.63        2975.00           1565          20.00        67.13
  266.65        2975.25           1568          20.00        67.13
  266.68        2975.50           1571          22.00        75.85
  266.71        2975.75           1575          21.00        71.49
  266.74        2976.00           1578          20.00        67.13
  266.76        2976.25           1581          19.00        62.77
  266.79        2976.50           1585          21.00        71.49
  266.82        2976.75           1588          20.00        67.13
  266.84        2977.00           1591          24.00        84.57
  266.87        2977.25           1595          25.00        88.93
  266.90        2977.50           1598          20.00        67.13
  266.93        2977.75           1601          19.00        62.77
  266.95        2978.00           1605          22.00        75.85
  266.98        2978.25           1608          24.00        84.57
  267.01        2978.50           1611          17.00        54.05
  267.03        2978.75           1615          19.00        62.77
  267.06        2979.00           1618          20.00        67.13
  267.09        2979.25           1621          20.00        67.13
  267.12        2979.50           1625          20.00        67.13
  267.14        2979.75           1628          18.00        58.41
  267.17        2980.00           1631          17.00        54.05
  267.20        2980.25           1635          23.00        80.21
  267.22        2980.50           1638          20.00        67.13
  267.25        2980.75           1641          18.00        58.41
  267.28        2981.00           1645          21.00        71.49
  267.31        2981.25           1648          18.00        58.41
  267.33        2981.50           1651          14.00        40.98
  267.36        2981.75           1655          16.00        49.69
  267.39        2982.00           1658          19.00        62.77
  267.41        2982.25           1661          20.00        67.13
  267.44        2982.50           1665          19.00        62.77
  267.47        2982.75           1668          19.00        62.77
  267.50        2983.00           1671          22.00        75.85
  267.52        2983.25           1675          20.00        67.13
  267.55        2983.50           1678          17.00        54.05
  267.58        2983.75           1681          20.00        67.13
  267.61        2984.00           1685          15.00        45.34
HS scan finished at 04:27:47
end
