************************************************************
  HS Scan of (1) Internal mercury lamp
************************************************************
Integration time is 0.2294 seconds per sample
dh171218Tamanrasset 22.79-5.529 4.974364pr865
************************************************************
Dead Time -------------------------  2.8E-08 
Number of Cycles Used -------------  4 
Starting Wavelength (Angstroms) ---  2950 
Final Wavelength (Angstoms) -------  2984 
Wavelength Increment (Angstroms) --  .25 
Filter Wheel #1 Position ---------- (1) Ground quartz diffuser (ND=2.32)
Filter Wheel #2 Position ---------- (1) Neutral Density 0.494



************************************************************
HS scan start time = 04:22:30
Dark Count =  4.6 


Time (GMT)  Wavelength (Ang)  Step Number  Raw Counts  Counts/Second

  262.87        2950.00           1233          22.00        75.85
  262.93        2950.25           1236          20.00        67.13
  262.96        2950.50           1239          20.00        67.13
  262.98        2950.75           1242          21.00        71.49
  263.01        2951.00           1246          16.00        49.69
  263.04        2951.25           1249          19.00        62.77
  263.06        2951.50           1252          17.00        54.05
  263.09        2951.75           1256          20.00        67.13
  263.12        2952.00           1259          20.00        67.13
  263.15        2952.25           1262          20.00        67.13
  263.17        2952.50           1266          23.00        80.21
  263.20        2952.75           1269          24.00        84.57
  263.23        2953.00           1272          22.00        75.85
  263.25        2953.25           1276          13.00        36.62
  263.28        2953.50           1279          18.00        58.41
  263.31        2953.75           1282          18.00        58.41
  263.34        2954.00           1286          21.00        71.49
  263.36        2954.25           1289          19.00        62.77
  263.39        2954.50           1292          18.00        58.41
  263.42        2954.75           1295          18.00        58.41
  263.44        2955.00           1299          19.00        62.77
  263.47        2955.25           1302          19.00        62.77
  263.50        2955.50           1305          22.00        75.85
  263.53        2955.75           1309          19.00        62.77
  263.55        2956.00           1312          22.00        75.85
  263.58        2956.25           1315          18.00        58.41
  263.61        2956.50           1319          16.00        49.69
  263.63        2956.75           1322          19.00        62.77
  263.66        2957.00           1325          18.00        58.41
  263.69        2957.25           1329          17.00        54.05
  263.72        2957.50           1332          17.00        54.05
  263.74        2957.75           1335          17.00        54.05
  263.77        2958.00           1339          23.00        80.21
  263.80        2958.25           1342          22.00        75.85
  263.82        2958.50           1345          18.00        58.41
  263.85        2958.75           1348          20.00        67.13
  263.88        2959.00           1352          22.00        75.85
  263.91        2959.25           1355          19.00        62.77
  263.93        2959.50           1358          19.00        62.77
  263.96        2959.75           1362          21.00        71.49
  263.99        2960.00           1365          23.00        80.21
  264.01        2960.25           1368          21.00        71.49
  264.04        2960.50           1372          29.00       106.36
  264.07        2960.75           1375          32.00       119.44
  264.10        2961.00           1378          69.00       280.73
  264.12        2961.25           1382         309.00      1326.99
  264.15        2961.50           1385         816.00      3537.40
  264.18        2961.75           1388        1774.00      7714.83
  264.20        2962.00           1392        3684.00     16046.44
  264.23        2962.25           1395        5486.00     23910.51
  264.26        2962.50           1398        7594.00     33114.39
  264.29        2962.75           1402       10284.00     44866.27
  264.31        2963.00           1405       12556.00     54798.06
  264.34        2963.25           1408       14588.00     63685.39
  264.37        2963.50           1412       17516.00     76499.35
  264.40        2963.75           1415       19737.00     86225.36
  264.42        2964.00           1418       21722.00     94922.40
  264.45        2964.25           1422       24329.00    106351.10
  264.48        2964.50           1425       26676.00    116646.30
  264.51        2964.75           1428       28608.00    125125.50
  264.53        2965.00           1431       30805.00    134772.70
  264.56        2965.25           1435       33785.00    147866.40
  264.59        2965.50           1438       35909.00    157204.80
  264.61        2965.75           1441       38286.00    167661.40
  264.64        2966.00           1445       40933.00    179313.00
  264.67        2966.25           1448       42759.00    187355.20
  264.70        2966.50           1451       44193.00    193673.40
  264.72        2966.75           1455       45657.00    200126.10
  264.75        2967.00           1458       45928.00    201320.90
  264.78        2967.25           1461       46233.00    202665.60
  264.81        2967.50           1465       46300.00    202960.90
  264.83        2967.75           1468       45894.00    201170.90
  264.86        2968.00           1471       45158.00    197926.50
  264.89        2968.25           1475       43585.00    190994.30
  264.92        2968.50           1478       41550.00    182030.10
  264.94        2968.75           1481       39585.00    173378.40
  264.97        2969.00           1485       36858.00    161378.90
  265.00        2969.25           1488       34418.00    150648.90
  265.03        2969.50           1491       32191.00    140861.40
  265.05        2969.75           1495       29199.00    127720.10
  265.08        2970.00           1498       27234.00    119094.80
  265.11        2970.25           1501       24916.00    108925.40
  265.13        2970.50           1505       22019.00     96224.04
  265.16        2970.75           1508       20044.00     87570.18
  265.19        2971.00           1511       17686.00     77243.61
  265.22        2971.25           1515       14754.00     64411.63
  265.24        2971.50           1518       12596.00     54972.96
  265.27        2971.75           1521       10577.00     46146.78
  265.30        2972.00           1525        7713.00     33634.10
  265.33        2972.25           1528        5717.00     24918.86
  265.35        2972.50           1531        3694.00     16090.07
  265.38        2972.75           1535        1659.00      7213.31
  265.41        2973.00           1538         723.00      3131.92
  265.44        2973.25           1541         242.00      1034.90
  265.46        2973.50           1545          61.00       245.86
  265.49        2973.75           1548          37.00       141.24
  265.52        2974.00           1551          29.00       106.36
  265.54        2974.25           1555          21.00        71.49
  265.57        2974.50           1558          25.00        88.93
  265.60        2974.75           1561          23.00        80.21
  265.63        2975.00           1565          21.00        71.49
  265.65        2975.25           1568          23.00        80.21
  265.68        2975.50           1571          23.00        80.21
  265.71        2975.75           1575          18.00        58.41
  265.73        2976.00           1578          19.00        62.77
  265.76        2976.25           1581          15.00        45.34
  265.79        2976.50           1585          16.00        49.69
  265.82        2976.75           1588          20.00        67.13
  265.84        2977.00           1591          23.00        80.21
  265.87        2977.25           1595          21.00        71.49
  265.90        2977.50           1598          20.00        67.13
  265.92        2977.75           1601          22.00        75.85
  265.95        2978.00           1605          17.00        54.05
  265.98        2978.25           1608          19.00        62.77
  266.01        2978.50           1611          17.00        54.05
  266.03        2978.75           1615          23.00        80.21
  266.06        2979.00           1618          24.00        84.57
  266.09        2979.25           1621          19.00        62.77
  266.11        2979.50           1625          24.00        84.57
  266.14        2979.75           1628          18.00        58.41
  266.17        2980.00           1631          20.00        67.13
  266.20        2980.25           1635          22.00        75.85
  266.22        2980.50           1638          23.00        80.21
  266.25        2980.75           1641          20.00        67.13
  266.28        2981.00           1645          20.00        67.13
  266.30        2981.25           1648          23.00        80.21
  266.33        2981.50           1651          14.00        40.98
  266.36        2981.75           1655          19.00        62.77
  266.39        2982.00           1658          21.00        71.49
  266.41        2982.25           1661          18.00        58.41
  266.44        2982.50           1665          23.00        80.21
  266.47        2982.75           1668          20.00        67.13
  266.49        2983.00           1671          18.00        58.41
  266.52        2983.25           1675          20.00        67.13
  266.55        2983.50           1678          16.00        49.69
  266.58        2983.75           1681          16.00        49.69
  266.60        2984.00           1685          22.00        75.85
HS scan finished at 04:26:47
end
