************************************************************
  HS Scan of (1) Internal mercury lamp
************************************************************
Integration time is 0.2294 seconds per sample
dh211218Tamanrasset 22.79-5.529 4.974364pr865
************************************************************
Dead Time -------------------------  2.8E-08 
Number of Cycles Used -------------  4 
Starting Wavelength (Angstroms) ---  2950 
Final Wavelength (Angstoms) -------  2984 
Wavelength Increment (Angstroms) --  .25 
Filter Wheel #1 Position ---------- (1) Ground quartz diffuser (ND=2.32)
Filter Wheel #2 Position ---------- (1) Neutral Density 0.494



************************************************************
HS scan start time = 04:24:35
Dark Count =  6.3 


Time (GMT)  Wavelength (Ang)  Step Number  Raw Counts  Counts/Second

  264.94        2950.00           1233          17.00        46.64
  265.00        2950.25           1236          22.00        68.44
  265.03        2950.50           1239          20.00        59.72
  265.06        2950.75           1242          20.00        59.72
  265.08        2951.00           1246          17.00        46.64
  265.11        2951.25           1249          18.00        51.00
  265.14        2951.50           1252          21.00        64.08
  265.17        2951.75           1256          18.00        51.00
  265.19        2952.00           1259          15.00        37.93
  265.22        2952.25           1262          19.00        55.36
  265.25        2952.50           1266          20.00        59.72
  265.27        2952.75           1269          20.00        59.72
  265.30        2953.00           1272          19.00        55.36
  265.33        2953.25           1276          17.00        46.64
  265.36        2953.50           1279          18.00        51.00
  265.38        2953.75           1282          20.00        59.72
  265.41        2954.00           1286          20.00        59.72
  265.44        2954.25           1289          20.00        59.72
  265.46        2954.50           1292          22.00        68.44
  265.49        2954.75           1295          23.00        72.80
  265.52        2955.00           1299          20.00        59.72
  265.55        2955.25           1302          20.00        59.72
  265.57        2955.50           1305          17.00        46.64
  265.60        2955.75           1309          19.00        55.36
  265.63        2956.00           1312          22.00        68.44
  265.65        2956.25           1315          20.00        59.72
  265.68        2956.50           1319          19.00        55.36
  265.71        2956.75           1322          18.00        51.00
  265.74        2957.00           1325          21.00        64.08
  265.76        2957.25           1329          19.00        55.36
  265.79        2957.50           1332          17.00        46.64
  265.82        2957.75           1335          23.00        72.80
  265.84        2958.00           1339          17.00        46.64
  265.87        2958.25           1342          20.00        59.72
  265.90        2958.50           1345          21.00        64.08
  265.93        2958.75           1348          19.00        55.36
  265.95        2959.00           1352          22.00        68.44
  265.98        2959.25           1355          22.00        68.44
  266.01        2959.50           1358          20.00        59.72
  266.03        2959.75           1362          21.00        64.08
  266.06        2960.00           1365          24.00        77.16
  266.09        2960.25           1368          23.00        72.80
  266.12        2960.50           1372          30.00       103.31
  266.14        2960.75           1375          37.00       133.83
  266.17        2961.00           1378          67.00       264.61
  266.20        2961.25           1382         360.00      1541.91
  266.23        2961.50           1385         941.00      4075.01
  266.25        2961.75           1388        1871.00      8130.45
  266.28        2962.00           1392        3875.00     16872.40
  266.31        2962.25           1395        5859.00     25531.33
  266.34        2962.50           1398        7929.00     34570.06
  266.36        2962.75           1402       10619.00     46322.91
  266.39        2963.00           1405       12681.00     55337.21
  266.42        2963.25           1408       14781.00     64522.31
  266.44        2963.50           1412       17607.00     76890.30
  266.47        2963.75           1415       19682.00     85977.00
  266.50        2964.00           1418       22020.00     96220.96
  266.53        2964.25           1422       24525.00    107203.20
  266.55        2964.50           1425       26891.00    117582.20
  266.58        2964.75           1428       28995.00    126817.00
  266.61        2965.00           1431       31443.00    137567.70
  266.64        2965.25           1435       34306.00    150149.10
  266.66        2965.50           1438       36432.00    159497.60
  266.69        2965.75           1441       38459.00    168415.30
  266.72        2966.00           1445       41537.00    181965.30
  266.74        2966.25           1448       43114.00    188911.60
  266.77        2966.50           1451       44678.00    195803.40
  266.80        2966.75           1455       45975.00    201520.60
  266.83        2967.00           1458       46310.00    202997.60
  266.85        2967.25           1461       46643.00    204465.90
  266.88        2967.50           1465       46551.00    204060.20
  266.91        2967.75           1468       46150.00    202292.10
  266.94        2968.00           1471       45235.00    198258.40
  266.96        2968.25           1475       43678.00    191396.60
  266.99        2968.50           1478       41896.00    183546.40
  267.02        2968.75           1481       39609.00    173476.60
  267.05        2969.00           1485       36923.00    161657.30
  267.07        2969.25           1488       34485.00    150936.00
  267.10        2969.50           1491       32156.00    140700.10
  267.13        2969.75           1495       29216.00    127787.30
  267.16        2970.00           1498       27156.00    118745.10
  267.18        2970.25           1501       24682.00    107891.70
  267.21        2970.50           1505       21631.00     94516.14
  267.24        2970.75           1508       19610.00     85661.62
  267.26        2971.00           1511       17292.00     75511.28
  267.29        2971.25           1515       14639.00     63901.07
  267.32        2971.50           1518       12426.00     54222.19
  267.35        2971.75           1521       10164.00     44334.43
  267.37        2972.00           1525        7523.00     32796.89
  267.40        2972.25           1528        5558.00     24217.38
  267.43        2972.50           1531        3522.00     15332.21
  267.46        2972.75           1535        1590.00      6905.00
  267.48        2973.00           1538         625.00      2697.24
  267.51        2973.25           1541         200.00       844.40
  267.54        2973.50           1545          52.00       199.22
  267.56        2973.75           1548          34.00       120.75
  267.59        2974.00           1551          29.00        98.95
  267.62        2974.25           1555          26.00        85.88
  267.64        2974.50           1558          24.00        77.16
  267.67        2974.75           1561          24.00        77.16
  267.70        2975.00           1565          21.00        64.08
  267.73        2975.25           1568          21.00        64.08
  267.75        2975.50           1571          25.00        81.52
  267.78        2975.75           1575          21.00        64.08
  267.81        2976.00           1578          21.00        64.08
  267.83        2976.25           1581          24.00        77.16
  267.86        2976.50           1585          24.00        77.16
  267.89        2976.75           1588          20.00        59.72
  267.92        2977.00           1591          22.00        68.44
  267.94        2977.25           1595          21.00        64.08
  267.97        2977.50           1598          19.00        55.36
  268.00        2977.75           1601          23.00        72.80
  268.02        2978.00           1605          17.00        46.64
  268.05        2978.25           1608          21.00        64.08
  268.08        2978.50           1611          20.00        59.72
  268.11        2978.75           1615          26.00        85.88
  268.13        2979.00           1618          23.00        72.80
  268.16        2979.25           1621          16.00        42.28
  268.19        2979.50           1625          22.00        68.44
  268.22        2979.75           1628          18.00        51.00
  268.24        2980.00           1631          22.00        68.44
  268.27        2980.25           1635          25.00        81.52
  268.30        2980.50           1638          20.00        59.72
  268.32        2980.75           1641          17.00        46.64
  268.35        2981.00           1645          19.00        55.36
  268.38        2981.25           1648          21.00        64.08
  268.41        2981.50           1651          19.00        55.36
  268.43        2981.75           1655          21.00        64.08
  268.46        2982.00           1658          18.00        51.00
  268.49        2982.25           1661          19.00        55.36
  268.51        2982.50           1665          18.00        51.00
  268.54        2982.75           1668          22.00        68.44
  268.57        2983.00           1671          24.00        77.16
  268.60        2983.25           1675          17.00        46.64
  268.62        2983.50           1678          19.00        55.36
  268.65        2983.75           1681          17.00        46.64
  268.68        2984.00           1685          16.00        42.28
HS scan finished at 04:28:52
end
