************************************************************
  HS Scan of (1) Internal mercury lamp
************************************************************
Integration time is 0.2294 seconds per sample
dh191218Tamanrasset 22.79-5.529 4.974364pr865
************************************************************
Dead Time -------------------------  2.8E-08 
Number of Cycles Used -------------  4 
Starting Wavelength (Angstroms) ---  2950 
Final Wavelength (Angstoms) -------  2984 
Wavelength Increment (Angstroms) --  .25 
Filter Wheel #1 Position ---------- (1) Ground quartz diffuser (ND=2.32)
Filter Wheel #2 Position ---------- (1) Neutral Density 0.494



************************************************************
HS scan start time = 04:23:32
Dark Count =  6.6 


Time (GMT)  Wavelength (Ang)  Step Number  Raw Counts  Counts/Second

  263.88        2950.00           1233          21.00        62.77
  263.95        2950.25           1236          20.00        58.41
  263.97        2950.50           1239          18.00        49.69
  264.00        2950.75           1242          15.00        36.62
  264.03        2951.00           1246          20.00        58.41
  264.06        2951.25           1249          21.00        62.77
  264.08        2951.50           1252          22.00        67.13
  264.11        2951.75           1256          18.00        49.69
  264.14        2952.00           1259          22.00        67.13
  264.16        2952.25           1262          18.00        49.69
  264.19        2952.50           1266          20.00        58.41
  264.22        2952.75           1269          17.00        45.34
  264.25        2953.00           1272          18.00        49.69
  264.27        2953.25           1276          21.00        62.77
  264.30        2953.50           1279          16.00        40.98
  264.33        2953.75           1282          23.00        71.49
  264.35        2954.00           1286          19.00        54.05
  264.38        2954.25           1289          21.00        62.77
  264.41        2954.50           1292          13.00        27.90
  264.44        2954.75           1295          20.00        58.41
  264.46        2955.00           1299          21.00        62.77
  264.49        2955.25           1302          20.00        58.41
  264.52        2955.50           1305          23.00        71.49
  264.54        2955.75           1309          23.00        71.49
  264.57        2956.00           1312          20.00        58.41
  264.60        2956.25           1315          20.00        58.41
  264.63        2956.50           1319          19.00        54.05
  264.65        2956.75           1322          24.00        75.85
  264.68        2957.00           1325          24.00        75.85
  264.71        2957.25           1329          20.00        58.41
  264.73        2957.50           1332          19.00        54.05
  264.76        2957.75           1335          18.00        49.69
  264.79        2958.00           1339          23.00        71.49
  264.82        2958.25           1342          20.00        58.41
  264.84        2958.50           1345          24.00        75.85
  264.87        2958.75           1348          22.00        67.13
  264.90        2959.00           1352          21.00        62.77
  264.92        2959.25           1355          20.00        58.41
  264.95        2959.50           1358          24.00        75.85
  264.98        2959.75           1362          19.00        54.05
  265.01        2960.00           1365          23.00        71.49
  265.03        2960.25           1368          22.00        67.13
  265.06        2960.50           1372          30.00       102.01
  265.09        2960.75           1375          33.00       115.08
  265.11        2961.00           1378          89.00       359.20
  265.14        2961.25           1382         408.00      1749.87
  265.17        2961.50           1385         991.00      4291.71
  265.20        2961.75           1388        2057.00      8940.34
  265.22        2962.00           1392        4291.00     18686.32
  265.25        2962.25           1395        6351.00     27677.94
  265.28        2962.50           1398        8396.00     36608.56
  265.31        2962.75           1402       11121.00     48515.73
  265.33        2963.00           1405       13124.00     57273.12
  265.36        2963.25           1408       15344.00     66984.28
  265.39        2963.50           1412       18022.00     78705.96
  265.42        2963.75           1415       20180.00     88157.18
  265.44        2964.00           1418       22510.00     98367.34
  265.47        2964.25           1422       25144.00    109916.70
  265.50        2964.50           1425       27224.00    119042.20
  265.52        2964.75           1428       29537.00    129195.40
  265.55        2965.00           1431       31411.00    137425.80
  265.58        2965.25           1435       34458.00    150816.00
  265.61        2965.50           1438       36786.00    161053.30
  265.63        2965.75           1441       38812.00    169967.40
  265.66        2966.00           1445       41619.00    182325.10
  265.69        2966.25           1448       43485.00    190544.90
  265.72        2966.50           1451       45141.00    197842.70
  265.74        2966.75           1455       46011.00    201677.90
  265.77        2967.00           1458       46627.00    204394.00
  265.80        2967.25           1461       46785.00    205090.70
  265.82        2967.50           1465       46639.00    204446.90
  265.85        2967.75           1468       46052.00    201858.70
  265.88        2968.00           1471       45462.00    199257.70
  265.91        2968.25           1475       43567.00    190906.10
  265.93        2968.50           1478       41556.00    182047.70
  265.96        2968.75           1481       39661.00    173704.20
  265.99        2969.00           1485       36669.00    160538.70
  266.02        2969.25           1488       34356.00    150367.60
  266.04        2969.50           1491       32134.00    140602.10
  266.07        2969.75           1495       29094.00    127250.30
  266.10        2970.00           1498       26737.00    116905.20
  266.13        2970.25           1501       24695.00    107947.40
  266.15        2970.50           1505       21673.00     94698.89
  266.18        2970.75           1508       19459.00     84998.91
  266.21        2971.00           1511       17260.00     75369.88
  266.23        2971.25           1515       14360.00     62679.23
  266.26        2971.50           1518       12120.00     52882.96
  266.29        2971.75           1521       10014.00     43677.62
  266.32        2972.00           1525        7329.00     31948.36
  266.34        2972.25           1528        5285.00     23024.43
  266.37        2972.50           1531        3522.00     15330.90
  266.40        2972.75           1535        1494.00      6485.05
  266.43        2973.00           1538         630.00      2717.73
  266.45        2973.25           1541         195.00       821.29
  266.48        2973.50           1545          46.00       171.75
  266.51        2973.75           1548          36.00       128.16
  266.53        2974.00           1551          29.00        97.65
  266.56        2974.25           1555          29.00        97.65
  266.59        2974.50           1558          24.00        75.85
  266.62        2974.75           1561          25.00        80.21
  266.64        2975.00           1565          27.00        88.93
  266.67        2975.25           1568          19.00        54.05
  266.70        2975.50           1571          24.00        75.85
  266.72        2975.75           1575          22.00        67.13
  266.75        2976.00           1578          18.00        49.69
  266.78        2976.25           1581          18.00        49.69
  266.81        2976.50           1585          20.00        58.41
  266.83        2976.75           1588          21.00        62.77
  266.86        2977.00           1591          22.00        67.13
  266.89        2977.25           1595          24.00        75.85
  266.91        2977.50           1598          25.00        80.21
  266.94        2977.75           1601          22.00        67.13
  266.97        2978.00           1605          17.00        45.34
  267.00        2978.25           1608          18.00        49.69
  267.02        2978.50           1611          23.00        71.49
  267.05        2978.75           1615          26.00        84.57
  267.08        2979.00           1618          18.00        49.69
  267.10        2979.25           1621          23.00        71.49
  267.13        2979.50           1625          15.00        36.62
  267.16        2979.75           1628          24.00        75.85
  267.19        2980.00           1631          20.00        58.41
  267.21        2980.25           1635          21.00        62.77
  267.24        2980.50           1638          21.00        62.77
  267.27        2980.75           1641          18.00        49.69
  267.29        2981.00           1645          20.00        58.41
  267.32        2981.25           1648          17.00        45.34
  267.35        2981.50           1651          25.00        80.21
  267.38        2981.75           1655          22.00        67.13
  267.40        2982.00           1658          22.00        67.13
  267.43        2982.25           1661          21.00        62.77
  267.46        2982.50           1665          21.00        62.77
  267.48        2982.75           1668          23.00        71.49
  267.51        2983.00           1671          17.00        45.34
  267.54        2983.25           1675          17.00        45.34
  267.57        2983.50           1678          21.00        62.77
  267.59        2983.75           1681          19.00        54.05
  267.62        2984.00           1685          20.00        58.41
HS scan finished at 04:27:48
end
