************************************************************
  HS Scan of (1) Internal mercury lamp
************************************************************
Integration time is 0.2294 seconds per sample
dh311218Tamanrasset 22.79-5.529 4.974364pr865
************************************************************
Dead Time -------------------------  2.8E-08 
Number of Cycles Used -------------  4 
Starting Wavelength (Angstroms) ---  2950 
Final Wavelength (Angstoms) -------  2984 
Wavelength Increment (Angstroms) --  .25 
Filter Wheel #1 Position ---------- (1) Ground quartz diffuser (ND=2.32)
Filter Wheel #2 Position ---------- (1) Neutral Density 0.494



************************************************************
HS scan start time = 04:28:08
Dark Count =  4.5 


Time (GMT)  Wavelength (Ang)  Step Number  Raw Counts  Counts/Second

  268.49        2950.00           1233          21.00        71.93
  268.56        2950.25           1236          20.00        67.57
  268.58        2950.50           1239          20.00        67.57
  268.61        2950.75           1242          18.00        58.85
  268.64        2951.00           1246          19.00        63.21
  268.66        2951.25           1249          16.00        50.13
  268.69        2951.50           1252          21.00        71.93
  268.72        2951.75           1256          21.00        71.93
  268.75        2952.00           1259          20.00        67.57
  268.77        2952.25           1262          22.00        76.29
  268.80        2952.50           1266          19.00        63.21
  268.83        2952.75           1269          20.00        67.57
  268.85        2953.00           1272          18.00        58.85
  268.88        2953.25           1276          20.00        67.57
  268.91        2953.50           1279          20.00        67.57
  268.94        2953.75           1282          17.00        54.49
  268.96        2954.00           1286          19.00        63.21
  268.99        2954.25           1289          19.00        63.21
  269.02        2954.50           1292          19.00        63.21
  269.04        2954.75           1295          21.00        71.93
  269.07        2955.00           1299          19.00        63.21
  269.10        2955.25           1302          20.00        67.57
  269.13        2955.50           1305          17.00        54.49
  269.15        2955.75           1309          23.00        80.65
  269.18        2956.00           1312          19.00        63.21
  269.21        2956.25           1315          19.00        63.21
  269.23        2956.50           1319          21.00        71.93
  269.26        2956.75           1322          23.00        80.65
  269.29        2957.00           1325          19.00        63.21
  269.32        2957.25           1329          20.00        67.57
  269.34        2957.50           1332          18.00        58.85
  269.37        2957.75           1335          20.00        67.57
  269.40        2958.00           1339          21.00        71.93
  269.42        2958.25           1342          18.00        58.85
  269.45        2958.50           1345          18.00        58.85
  269.48        2958.75           1348          20.00        67.57
  269.51        2959.00           1352          19.00        63.21
  269.53        2959.25           1355          15.00        45.77
  269.56        2959.50           1358          23.00        80.65
  269.59        2959.75           1362          21.00        71.93
  269.62        2960.00           1365          26.00        93.72
  269.64        2960.25           1368          25.00        89.36
  269.67        2960.50           1372          26.00        93.72
  269.70        2960.75           1375          37.00       141.67
  269.72        2961.00           1378          69.00       281.17
  269.75        2961.25           1382         357.00      1536.68
  269.78        2961.50           1385         936.00      4061.05
  269.81        2961.75           1388        1978.00      8604.95
  269.83        2962.00           1392        4141.00     18040.93
  269.86        2962.25           1395        6032.00     26294.42
  269.89        2962.50           1398        8163.00     35599.99
  269.91        2962.75           1402       10637.00     46409.44
  269.94        2963.00           1405       12701.00     55432.53
  269.97        2963.25           1408       14924.00     65155.82
  270.00        2963.50           1412       17642.00     77051.40
  270.02        2963.75           1415       19644.00     85818.43
  270.05        2964.00           1418       22040.00     96316.51
  270.08        2964.25           1422       24643.00    107728.60
  270.10        2964.50           1425       26656.00    116559.00
  270.13        2964.75           1428       29027.00    126965.40
  270.16        2965.00           1431       31038.00    135796.50
  270.19        2965.25           1435       33926.00    148486.60
  270.21        2965.50           1438       36180.00    158397.10
  270.24        2965.75           1441       38258.00    167538.70
  270.27        2966.00           1445       41126.00    180163.30
  270.30        2966.25           1448       42924.00    188082.50
  270.32        2966.50           1451       44218.00    193784.00
  270.35        2966.75           1455       45311.00    198601.30
  270.38        2967.00           1458       45718.00    200395.50
  270.41        2967.25           1461       45915.00    201264.00
  270.43        2967.50           1465       45731.00    200452.80
  270.46        2967.75           1468       45483.00    199359.50
  270.49        2968.00           1471       44557.00    195278.00
  270.52        2968.25           1475       42859.00    187796.10
  270.54        2968.50           1478       40846.00    178930.40
  270.57        2968.75           1481       38862.00    170196.70
  270.60        2969.00           1485       35803.00    156739.10
  270.62        2969.25           1488       33357.00    145985.70
  270.65        2969.50           1491       31298.00    136938.60
  270.68        2969.75           1495       28592.00    125055.70
  270.71        2970.00           1498       26363.00    115273.40
  270.73        2970.25           1501       24082.00    105268.40
  270.76        2970.50           1505       21186.00     92574.00
  270.79        2970.75           1508       19023.00     83098.53
  270.82        2971.00           1511       16800.00     73365.47
  270.84        2971.25           1515       13939.00     60846.83
  270.87        2971.50           1518       11739.00     51226.44
  270.90        2971.75           1521        9686.00     42253.53
  270.93        2972.00           1525        6957.00     30333.08
  270.95        2972.25           1528        4805.00     20938.60
  270.98        2972.50           1531        2997.00     13049.67
  271.01        2972.75           1535        1237.00      5373.52
  271.03        2973.00           1538         516.00      2229.87
  271.06        2973.25           1541         149.00       629.92
  271.09        2973.50           1545          52.00       207.06
  271.12        2973.75           1548          34.00       128.60
  271.14        2974.00           1551          35.00       132.96
  271.17        2974.25           1555          22.00        76.29
  271.20        2974.50           1558          25.00        89.36
  271.23        2974.75           1561          19.00        63.21
  271.25        2975.00           1565          19.00        63.21
  271.28        2975.25           1568          22.00        76.29
  271.31        2975.50           1571          18.00        58.85
  271.33        2975.75           1575          18.00        58.85
  271.36        2976.00           1578          18.00        58.85
  271.39        2976.25           1581          25.00        89.36
  271.42        2976.50           1585          21.00        71.93
  271.44        2976.75           1588          20.00        67.57
  271.47        2977.00           1591          23.00        80.65
  271.50        2977.25           1595          22.00        76.29
  271.52        2977.50           1598          22.00        76.29
  271.55        2977.75           1601          23.00        80.65
  271.58        2978.00           1605          20.00        67.57
  271.61        2978.25           1608          20.00        67.57
  271.63        2978.50           1611          18.00        58.85
  271.66        2978.75           1615          21.00        71.93
  271.69        2979.00           1618          20.00        67.57
  271.71        2979.25           1621          18.00        58.85
  271.74        2979.50           1625          23.00        80.65
  271.77        2979.75           1628          23.00        80.65
  271.80        2980.00           1631          21.00        71.93
  271.82        2980.25           1635          22.00        76.29
  271.85        2980.50           1638          23.00        80.65
  271.88        2980.75           1641          23.00        80.65
  271.90        2981.00           1645          20.00        67.57
  271.93        2981.25           1648          19.00        63.21
  271.96        2981.50           1651          17.00        54.49
  271.99        2981.75           1655          21.00        71.93
  272.01        2982.00           1658          20.00        67.57
  272.04        2982.25           1661          20.00        67.57
  272.07        2982.50           1665          21.00        71.93
  272.09        2982.75           1668          17.00        54.49
  272.12        2983.00           1671          19.00        63.21
  272.15        2983.25           1675          22.00        76.29
  272.18        2983.50           1678          19.00        63.21
  272.20        2983.75           1681          20.00        67.57
  272.23        2984.00           1685          20.00        67.57
HS scan finished at 04:32:25
end
