************************************************************
  HS Scan of (1) Internal mercury lamp
************************************************************
Integration time is 0.2294 seconds per sample
dh261218Tamanrasset 22.79-5.529 4.974364pr865
************************************************************
Dead Time -------------------------  2.8E-08 
Number of Cycles Used -------------  4 
Starting Wavelength (Angstroms) ---  2950 
Final Wavelength (Angstoms) -------  2984 
Wavelength Increment (Angstroms) --  .25 
Filter Wheel #1 Position ---------- (1) Ground quartz diffuser (ND=2.32)
Filter Wheel #2 Position ---------- (1) Neutral Density 0.494



************************************************************
HS scan start time = 04:26:04
Dark Count =  4.4 


Time (GMT)  Wavelength (Ang)  Step Number  Raw Counts  Counts/Second

  266.42        2950.00           1233          20.00        68.00
  266.48        2950.25           1236          18.00        59.29
  266.51        2950.50           1239          14.00        41.85
  266.54        2950.75           1242          19.00        63.64
  266.56        2951.00           1246          24.00        85.44
  266.59        2951.25           1249          22.00        76.72
  266.62        2951.50           1252          23.00        81.08
  266.65        2951.75           1256          18.00        59.29
  266.67        2952.00           1259          21.00        72.36
  266.70        2952.25           1262          19.00        63.64
  266.73        2952.50           1266          22.00        76.72
  266.75        2952.75           1269          17.00        54.93
  266.78        2953.00           1272          21.00        72.36
  266.81        2953.25           1276          20.00        68.00
  266.83        2953.50           1279          21.00        72.36
  266.86        2953.75           1282          20.00        68.00
  266.89        2954.00           1286          20.00        68.00
  266.92        2954.25           1289          21.00        72.36
  266.94        2954.50           1292          22.00        76.72
  266.97        2954.75           1295          20.00        68.00
  267.00        2955.00           1299          22.00        76.72
  267.03        2955.25           1302          19.00        63.64
  267.05        2955.50           1305          18.00        59.29
  267.08        2955.75           1309          20.00        68.00
  267.11        2956.00           1312          16.00        50.57
  267.14        2956.25           1315          18.00        59.29
  267.16        2956.50           1319          21.00        72.36
  267.19        2956.75           1322          23.00        81.08
  267.22        2957.00           1325          17.00        54.93
  267.24        2957.25           1329          24.00        85.44
  267.27        2957.50           1332          23.00        81.08
  267.30        2957.75           1335          19.00        63.64
  267.33        2958.00           1339          19.00        63.64
  267.35        2958.25           1342          18.00        59.29
  267.38        2958.50           1345          15.00        46.21
  267.41        2958.75           1348          20.00        68.00
  267.43        2959.00           1352          17.00        54.93
  267.46        2959.25           1355          21.00        72.36
  267.49        2959.50           1358          23.00        81.08
  267.52        2959.75           1362          22.00        76.72
  267.54        2960.00           1365          22.00        76.72
  267.57        2960.25           1368          23.00        81.08
  267.60        2960.50           1372          29.00       107.24
  267.62        2960.75           1375          39.00       150.83
  267.65        2961.00           1378         113.00       473.42
  267.68        2961.25           1382         514.00      2221.59
  267.71        2961.50           1385        1247.00      5417.56
  267.73        2961.75           1388        2417.00     10520.10
  267.76        2962.00           1392        4596.00     20026.92
  267.79        2962.25           1395        6686.00     29150.20
  267.82        2962.50           1398        8702.00     37954.88
  267.84        2962.75           1402       11709.00     51095.72
  267.87        2963.00           1405       13736.00     59959.34
  267.90        2963.25           1408       15941.00     69606.33
  267.92        2963.50           1412       18520.00     80896.20
  267.95        2963.75           1415       20699.00     90440.60
  267.98        2964.00           1418       22877.00     99985.72
  268.01        2964.25           1422       25463.00    111325.60
  268.03        2964.50           1425       27670.00    121009.10
  268.06        2964.75           1428       29889.00    130750.70
  268.09        2965.00           1431       32069.00    140326.20
  268.12        2965.25           1435       34876.00    152663.40
  268.14        2965.50           1438       37002.00    162013.20
  268.17        2965.75           1441       38986.00    170742.90
  268.20        2966.00           1445       41778.00    183035.10
  268.22        2966.25           1448       43615.00    191127.40
  268.25        2966.50           1451       44834.00    196499.30
  268.28        2966.75           1455       45536.00    199593.60
  268.31        2967.00           1458       45988.00    201586.30
  268.33        2967.25           1461       45911.00    201246.80
  268.36        2967.50           1465       45754.00    200554.60
  268.39        2967.75           1468       45165.00    197958.20
  268.42        2968.00           1471       44226.00    193819.70
  268.44        2968.25           1475       42188.00    184840.90
  268.47        2968.50           1478       40250.00    176306.80
  268.50        2968.75           1481       38341.00    167904.40
  268.53        2969.00           1485       35231.00    154224.30
  268.55        2969.25           1488       32992.00    144382.00
  268.58        2969.50           1491       30422.00    133091.40
  268.61        2969.75           1495       27750.00    121360.30
  268.64        2970.00           1498       25423.00    111150.10
  268.66        2970.25           1501       23406.00    102304.80
  268.69        2970.50           1505       20482.00     89489.88
  268.72        2970.75           1508       18298.00     79924.09
  268.74        2971.00           1511       16316.00     71247.49
  268.77        2971.25           1515       13609.00     59403.87
  268.80        2971.50           1518       11243.00     49058.63
  268.83        2971.75           1521        9194.00     40104.29
  268.85        2972.00           1525        6497.00     28324.99
  268.88        2972.25           1528        4413.00     19228.31
  268.91        2972.50           1531        2734.00     11902.83
  268.94        2972.75           1535        1087.00      4719.89
  268.96        2973.00           1538         385.00      1659.19
  268.99        2973.25           1541         113.00       473.42
  269.02        2973.50           1545          36.00       137.75
  269.04        2973.75           1548          39.00       150.83
  269.07        2974.00           1551          30.00       111.60
  269.10        2974.25           1555          26.00        94.16
  269.13        2974.50           1558          22.00        76.72
  269.15        2974.75           1561          22.00        76.72
  269.18        2975.00           1565          27.00        98.52
  269.21        2975.25           1568          22.00        76.72
  269.24        2975.50           1571          22.00        76.72
  269.26        2975.75           1575          25.00        89.80
  269.29        2976.00           1578          20.00        68.00
  269.32        2976.25           1581          24.00        85.44
  269.34        2976.50           1585          19.00        63.64
  269.37        2976.75           1588          22.00        76.72
  269.40        2977.00           1591          20.00        68.00
  269.43        2977.25           1595          24.00        85.44
  269.45        2977.50           1598          21.00        72.36
  269.48        2977.75           1601          21.00        72.36
  269.51        2978.00           1605          23.00        81.08
  269.53        2978.25           1608          17.00        54.93
  269.56        2978.50           1611          21.00        72.36
  269.59        2978.75           1615          19.00        63.64
  269.62        2979.00           1618          23.00        81.08
  269.64        2979.25           1621          19.00        63.64
  269.67        2979.50           1625          17.00        54.93
  269.70        2979.75           1628          19.00        63.64
  269.72        2980.00           1631          24.00        85.44
  269.75        2980.25           1635          18.00        59.29
  269.78        2980.50           1638          23.00        81.08
  269.81        2980.75           1641          26.00        94.16
  269.83        2981.00           1645          19.00        63.64
  269.86        2981.25           1648          19.00        63.64
  269.89        2981.50           1651          19.00        63.64
  269.91        2981.75           1655          22.00        76.72
  269.94        2982.00           1658          22.00        76.72
  269.97        2982.25           1661          21.00        72.36
  270.00        2982.50           1665          18.00        59.29
  270.02        2982.75           1668          18.00        59.29
  270.05        2983.00           1671          19.00        63.64
  270.08        2983.25           1675          19.00        63.64
  270.10        2983.50           1678          17.00        54.93
  270.13        2983.75           1681          18.00        59.29
  270.16        2984.00           1685          20.00        68.00
HS scan finished at 04:30:21
end
