************************************************************
  HS Scan of (1) Internal mercury lamp
************************************************************
Integration time is 0.2294 seconds per sample
dh301218Tamanrasset 22.79-5.529 4.974364pr865
************************************************************
Dead Time -------------------------  2.8E-08 
Number of Cycles Used -------------  4 
Starting Wavelength (Angstroms) ---  2950 
Final Wavelength (Angstoms) -------  2984 
Wavelength Increment (Angstroms) --  .25 
Filter Wheel #1 Position ---------- (1) Ground quartz diffuser (ND=2.32)
Filter Wheel #2 Position ---------- (1) Neutral Density 0.494



************************************************************
HS scan start time = 04:27:42
Dark Count =  3.8 


Time (GMT)  Wavelength (Ang)  Step Number  Raw Counts  Counts/Second

  268.06        2950.00           1233          16.00        53.18
  268.13        2950.25           1236          19.00        66.26
  268.15        2950.50           1239          21.00        74.98
  268.18        2950.75           1242          21.00        74.98
  268.21        2951.00           1246          22.00        79.34
  268.24        2951.25           1249          19.00        66.26
  268.26        2951.50           1252          20.00        70.62
  268.29        2951.75           1256          21.00        74.98
  268.32        2952.00           1259          18.00        61.90
  268.34        2952.25           1262          18.00        61.90
  268.37        2952.50           1266          20.00        70.62
  268.40        2952.75           1269          19.00        66.26
  268.43        2953.00           1272          21.00        74.98
  268.45        2953.25           1276          22.00        79.34
  268.48        2953.50           1279          16.00        53.18
  268.51        2953.75           1282          22.00        79.34
  268.53        2954.00           1286          20.00        70.62
  268.56        2954.25           1289          16.00        53.18
  268.59        2954.50           1292          23.00        83.70
  268.62        2954.75           1295          21.00        74.98
  268.64        2955.00           1299          19.00        66.26
  268.67        2955.25           1302          19.00        66.26
  268.70        2955.50           1305          21.00        74.98
  268.72        2955.75           1309          17.00        57.54
  268.75        2956.00           1312          20.00        70.62
  268.78        2956.25           1315          17.00        57.54
  268.81        2956.50           1319          20.00        70.62
  268.83        2956.75           1322          18.00        61.90
  268.86        2957.00           1325          24.00        88.06
  268.89        2957.25           1329          18.00        61.90
  268.91        2957.50           1332          20.00        70.62
  268.94        2957.75           1335          19.00        66.26
  268.97        2958.00           1339          17.00        57.54
  269.00        2958.25           1342          18.00        61.90
  269.02        2958.50           1345          17.00        57.54
  269.05        2958.75           1348          17.00        57.54
  269.08        2959.00           1352          22.00        79.34
  269.10        2959.25           1355          19.00        66.26
  269.13        2959.50           1358          18.00        61.90
  269.16        2959.75           1362          19.00        66.26
  269.19        2960.00           1365          20.00        70.62
  269.21        2960.25           1368          25.00        92.42
  269.24        2960.50           1372          25.00        92.42
  269.27        2960.75           1375          37.00       144.73
  269.29        2961.00           1378          79.00       327.81
  269.32        2961.25           1382         349.00      1504.86
  269.35        2961.50           1385         968.00      4203.63
  269.38        2961.75           1388        1954.00      8503.33
  269.40        2962.00           1392        4003.00     17441.82
  269.43        2962.25           1395        5946.00     25922.04
  269.46        2962.50           1398        8180.00     35677.30
  269.49        2962.75           1402       10925.00     47671.27
  269.51        2963.00           1405       13104.00     57197.90
  269.54        2963.25           1408       15123.00     66029.55
  269.57        2963.50           1412       17794.00     77719.95
  269.59        2963.75           1415       20096.00     87801.46
  269.62        2964.00           1418       22125.00     96692.12
  269.65        2964.25           1422       24958.00    109113.20
  269.68        2964.50           1425       26736.00    116913.10
  269.70        2964.75           1428       29331.00    128303.20
  269.73        2965.00           1431       31400.00    137389.80
  269.76        2965.25           1435       34170.00    149562.30
  269.79        2965.50           1438       36615.00    160313.50
  269.81        2965.75           1441       38677.00    169385.60
  269.84        2966.00           1445       41383.00    181298.10
  269.87        2966.25           1448       43279.00    189649.60
  269.89        2966.50           1451       44621.00    195563.10
  269.92        2966.75           1455       45689.00    200270.70
  269.95        2967.00           1458       46012.00    201694.70
  269.98        2967.25           1461       46271.00    202836.60
  270.00        2967.50           1465       46025.00    201752.00
  270.03        2967.75           1468       45315.00    198622.10
  270.06        2968.00           1471       44610.00    195514.70
  270.09        2968.25           1475       42976.00    188314.70
  270.11        2968.50           1478       41173.00    180373.40
  270.14        2968.75           1481       39033.00    170952.40
  270.17        2969.00           1485       36114.00    158109.90
  270.20        2969.25           1488       33909.00    148415.00
  270.22        2969.50           1491       31584.00    138198.10
  270.25        2969.75           1495       28750.00    125752.40
  270.28        2970.00           1498       26379.00    115346.70
  270.30        2970.25           1501       24267.00    106082.70
  270.33        2970.50           1505       21245.00     92835.60
  270.36        2970.75           1508       19181.00     83793.58
  270.39        2971.00           1511       17059.00     74502.25
  270.41        2971.25           1515       14075.00     61444.78
  270.44        2971.50           1518       11960.00     52195.67
  270.47        2971.75           1521        9995.00     43606.83
  270.50        2972.00           1525        7146.00     31161.44
  270.52        2972.25           1528        5149.00     22443.05
  270.55        2972.50           1531        3316.00     14444.38
  270.58        2972.75           1535        1426.00      6200.73
  270.60        2973.00           1538         586.00      2538.11
  270.63        2973.25           1541         173.00       737.59
  270.66        2973.50           1545          49.00       197.04
  270.69        2973.75           1548          32.00       122.93
  270.71        2974.00           1551          30.00       114.21
  270.74        2974.25           1555          30.00       114.21
  270.77        2974.50           1558          25.00        92.42
  270.80        2974.75           1561          31.00       118.57
  270.82        2975.00           1565          19.00        66.26
  270.85        2975.25           1568          22.00        79.34
  270.88        2975.50           1571          21.00        74.98
  270.90        2975.75           1575          23.00        83.70
  270.93        2976.00           1578          20.00        70.62
  270.96        2976.25           1581          20.00        70.62
  270.99        2976.50           1585          20.00        70.62
  271.01        2976.75           1588          21.00        74.98
  271.04        2977.00           1591          21.00        74.98
  271.07        2977.25           1595          20.00        70.62
  271.09        2977.50           1598          23.00        83.70
  271.12        2977.75           1601          24.00        88.06
  271.15        2978.00           1605          18.00        61.90
  271.18        2978.25           1608          18.00        61.90
  271.20        2978.50           1611          19.00        66.26
  271.23        2978.75           1615          20.00        70.62
  271.26        2979.00           1618          19.00        66.26
  271.28        2979.25           1621          22.00        79.34
  271.31        2979.50           1625          23.00        83.70
  271.34        2979.75           1628          18.00        61.90
  271.37        2980.00           1631          20.00        70.62
  271.39        2980.25           1635          17.00        57.54
  271.42        2980.50           1638          21.00        74.98
  271.45        2980.75           1641          24.00        88.06
  271.47        2981.00           1645          17.00        57.54
  271.50        2981.25           1648          20.00        70.62
  271.53        2981.50           1651          17.00        57.54
  271.56        2981.75           1655          19.00        66.26
  271.58        2982.00           1658          23.00        83.70
  271.61        2982.25           1661          22.00        79.34
  271.64        2982.50           1665          20.00        70.62
  271.66        2982.75           1668          21.00        74.98
  271.69        2983.00           1671          20.00        70.62
  271.72        2983.25           1675          21.00        74.98
  271.75        2983.50           1678          22.00        79.34
  271.77        2983.75           1681          24.00        88.06
  271.80        2984.00           1685          20.00        70.62
HS scan finished at 04:31:59
end
