************************************************************
  HS Scan of (1) Internal mercury lamp
************************************************************
Integration time is 0.2294 seconds per sample
dh271218Tamanrasset 22.79-5.529 4.974364pr865
************************************************************
Dead Time -------------------------  2.8E-08 
Number of Cycles Used -------------  4 
Starting Wavelength (Angstroms) ---  2950 
Final Wavelength (Angstoms) -------  2984 
Wavelength Increment (Angstroms) --  .25 
Filter Wheel #1 Position ---------- (1) Ground quartz diffuser (ND=2.32)
Filter Wheel #2 Position ---------- (1) Neutral Density 0.494



************************************************************
HS scan start time = 04:27:35
Dark Count =  4.9 


Time (GMT)  Wavelength (Ang)  Step Number  Raw Counts  Counts/Second

  267.95        2950.00           1233          19.00        61.46
  268.01        2950.25           1236          22.00        74.54
  268.04        2950.50           1239          22.00        74.54
  268.07        2950.75           1242          16.00        48.39
  268.09        2951.00           1246          19.00        61.46
  268.12        2951.25           1249          20.00        65.82
  268.15        2951.50           1252          21.00        70.18
  268.17        2951.75           1256          19.00        61.46
  268.20        2952.00           1259          19.00        61.46
  268.23        2952.25           1262          16.00        48.39
  268.26        2952.50           1266          23.00        78.90
  268.28        2952.75           1269          16.00        48.39
  268.31        2953.00           1272          17.00        52.75
  268.34        2953.25           1276          18.00        57.11
  268.37        2953.50           1279          17.00        52.75
  268.39        2953.75           1282          19.00        61.46
  268.42        2954.00           1286          21.00        70.18
  268.45        2954.25           1289          16.00        48.39
  268.47        2954.50           1292          17.00        52.75
  268.50        2954.75           1295          22.00        74.54
  268.53        2955.00           1299          20.00        65.82
  268.56        2955.25           1302          19.00        61.46
  268.58        2955.50           1305          17.00        52.75
  268.61        2955.75           1309          23.00        78.90
  268.64        2956.00           1312          19.00        61.46
  268.66        2956.25           1315          20.00        65.82
  268.69        2956.50           1319          20.00        65.82
  268.72        2956.75           1322          16.00        48.39
  268.75        2957.00           1325          21.00        70.18
  268.77        2957.25           1329          25.00        87.62
  268.80        2957.50           1332          20.00        65.82
  268.83        2957.75           1335          17.00        52.75
  268.85        2958.00           1339          17.00        52.75
  268.88        2958.25           1342          16.00        48.39
  268.91        2958.50           1345          19.00        61.46
  268.94        2958.75           1348          18.00        57.11
  268.96        2959.00           1352          19.00        61.46
  268.99        2959.25           1355          16.00        48.39
  269.02        2959.50           1358          19.00        61.46
  269.04        2959.75           1362          23.00        78.90
  269.07        2960.00           1365          20.00        65.82
  269.10        2960.25           1368          24.00        83.26
  269.13        2960.50           1372          29.00       105.06
  269.15        2960.75           1375          29.00       105.06
  269.18        2961.00           1378          44.00       170.45
  269.21        2961.25           1382         229.00       976.92
  269.23        2961.50           1385         658.00      2847.22
  269.26        2961.75           1388        1491.00      6479.38
  269.29        2962.00           1392        3239.00     14103.65
  269.32        2962.25           1395        5070.00     22093.44
  269.34        2962.50           1398        7180.00     31305.11
  269.37        2962.75           1402        9823.00     42850.42
  269.40        2963.00           1405       12157.00     53052.16
  269.42        2963.25           1408       14193.00     61956.12
  269.45        2963.50           1412       17067.00     74532.46
  269.48        2963.75           1415       19266.00     84161.04
  269.51        2964.00           1418       21181.00     92550.34
  269.53        2964.25           1422       23959.00    104727.30
  269.56        2964.50           1425       26107.00    114148.50
  269.59        2964.75           1428       28275.00    123662.40
  269.62        2965.00           1431       30312.00    132606.10
  269.64        2965.25           1435       33317.00    145808.10
  269.67        2965.50           1438       35438.00    155132.30
  269.70        2965.75           1441       37755.00    165323.70
  269.73        2966.00           1445       40550.00    177625.40
  269.75        2966.25           1448       42465.00    186058.80
  269.78        2966.50           1451       43896.00    192363.30
  269.81        2966.75           1455       45473.00    199313.70
  269.84        2967.00           1458       45947.00    201403.30
  269.86        2967.25           1461       45963.00    201473.80
  269.89        2967.50           1465       46123.00    202179.30
  269.92        2967.75           1468       46090.00    202033.70
  269.94        2968.00           1471       45119.00    197753.20
  269.97        2968.25           1475       43673.00    191380.70
  270.00        2968.50           1478       41815.00    183195.80
  270.03        2968.75           1481       39862.00    174596.50
  270.05        2969.00           1485       37184.00    162811.60
  270.08        2969.25           1488       34901.00    152771.10
  270.11        2969.50           1491       32504.00    142235.40
  270.14        2969.75           1495       29745.00    130116.20
  270.16        2970.00           1498       27327.00    119501.60
  270.19        2970.25           1501       25081.00    109647.80
  270.22        2970.50           1505       22416.00     97962.76
  270.25        2970.75           1508       20195.00     88230.34
  270.27        2971.00           1511       17936.00     78336.85
  270.30        2971.25           1515       15026.00     65600.33
  270.33        2971.50           1518       13026.00     56851.98
  270.36        2971.75           1521       10900.00     47557.19
  270.38        2972.00           1525        8239.00     35930.20
  270.41        2972.25           1528        6117.00     26663.76
  270.44        2972.50           1531        4095.00     17838.47
  270.46        2972.75           1535        1944.00      8454.92
  270.49        2973.00           1538         868.00      3762.82
  270.52        2973.25           1541         301.00      1290.81
  270.55        2973.50           1545          63.00       253.27
  270.57        2973.75           1548          38.00       144.29
  270.60        2974.00           1551          31.00       113.78
  270.63        2974.25           1555          28.00       100.70
  270.66        2974.50           1558          24.00        83.26
  270.68        2974.75           1561          25.00        87.62
  270.71        2975.00           1565          21.00        70.18
  270.74        2975.25           1568          18.00        57.11
  270.76        2975.50           1571          26.00        91.98
  270.79        2975.75           1575          24.00        83.26
  270.82        2976.00           1578          20.00        65.82
  270.85        2976.25           1581          18.00        57.11
  270.87        2976.50           1585          21.00        70.18
  270.90        2976.75           1588          22.00        74.54
  270.93        2977.00           1591          23.00        78.90
  270.95        2977.25           1595          21.00        70.18
  270.98        2977.50           1598          16.00        48.39
  271.01        2977.75           1601          21.00        70.18
  271.04        2978.00           1605          17.00        52.75
  271.06        2978.25           1608          19.00        61.46
  271.09        2978.50           1611          25.00        87.62
  271.12        2978.75           1615          23.00        78.90
  271.14        2979.00           1618          17.00        52.75
  271.17        2979.25           1621          22.00        74.54
  271.20        2979.50           1625          22.00        74.54
  271.23        2979.75           1628          19.00        61.46
  271.25        2980.00           1631          25.00        87.62
  271.28        2980.25           1635          20.00        65.82
  271.31        2980.50           1638          19.00        61.46
  271.33        2980.75           1641          20.00        65.82
  271.36        2981.00           1645          17.00        52.75
  271.39        2981.25           1648          17.00        52.75
  271.42        2981.50           1651          20.00        65.82
  271.44        2981.75           1655          17.00        52.75
  271.47        2982.00           1658          20.00        65.82
  271.50        2982.25           1661          15.00        44.03
  271.52        2982.50           1665          20.00        65.82
  271.55        2982.75           1668          21.00        70.18
  271.58        2983.00           1671          28.00       100.70
  271.61        2983.25           1675          19.00        61.46
  271.63        2983.50           1678          20.00        65.82
  271.66        2983.75           1681          25.00        87.62
  271.69        2984.00           1685          21.00        70.18
HS scan finished at 04:31:52
end
