************************************************************
  HS Scan of (1) Internal mercury lamp
************************************************************
Integration time is 0.2294 seconds per sample
dh281218Tamanrasset 22.79-5.529 4.974364pr865
************************************************************
Dead Time -------------------------  2.8E-08 
Number of Cycles Used -------------  4 
Starting Wavelength (Angstroms) ---  2950 
Final Wavelength (Angstoms) -------  2984 
Wavelength Increment (Angstroms) --  .25 
Filter Wheel #1 Position ---------- (1) Ground quartz diffuser (ND=2.32)
Filter Wheel #2 Position ---------- (1) Neutral Density 0.494



************************************************************
HS scan start time = 04:27:07
Dark Count =  2.3 


Time (GMT)  Wavelength (Ang)  Step Number  Raw Counts  Counts/Second

  267.48        2950.00           1233          20.00        77.16
  267.55        2950.25           1236          19.00        72.80
  267.57        2950.50           1239          26.00       103.31
  267.60        2950.75           1242          20.00        77.16
  267.63        2951.00           1246          21.00        81.52
  267.65        2951.25           1249          21.00        81.52
  267.68        2951.50           1252          20.00        77.16
  267.71        2951.75           1256          19.00        72.80
  267.74        2952.00           1259          24.00        94.59
  267.76        2952.25           1262          20.00        77.16
  267.79        2952.50           1266          19.00        72.80
  267.82        2952.75           1269          20.00        77.16
  267.84        2953.00           1272          24.00        94.59
  267.87        2953.25           1276          18.00        68.44
  267.90        2953.50           1279          21.00        81.52
  267.93        2953.75           1282          23.00        90.24
  267.95        2954.00           1286          17.00        64.08
  267.98        2954.25           1289          22.00        85.88
  268.01        2954.50           1292          18.00        68.44
  268.03        2954.75           1295          21.00        81.52
  268.06        2955.00           1299          18.00        68.44
  268.09        2955.25           1302          20.00        77.16
  268.12        2955.50           1305          17.00        64.08
  268.14        2955.75           1309          20.00        77.16
  268.17        2956.00           1312          19.00        72.80
  268.20        2956.25           1315          23.00        90.24
  268.22        2956.50           1319          21.00        81.52
  268.25        2956.75           1322          20.00        77.16
  268.28        2957.00           1325          22.00        85.88
  268.31        2957.25           1329          15.00        55.36
  268.33        2957.50           1332          21.00        81.52
  268.36        2957.75           1335          22.00        85.88
  268.39        2958.00           1339          18.00        68.44
  268.41        2958.25           1342          18.00        68.44
  268.44        2958.50           1345          18.00        68.44
  268.47        2958.75           1348          22.00        85.88
  268.50        2959.00           1352          18.00        68.44
  268.52        2959.25           1355          21.00        81.52
  268.55        2959.50           1358          22.00        85.88
  268.58        2959.75           1362          21.00        81.52
  268.60        2960.00           1365          24.00        94.59
  268.63        2960.25           1368          24.00        94.59
  268.66        2960.50           1372          35.00       142.55
  268.69        2960.75           1375          29.00       116.39
  268.71        2961.00           1378          65.00       273.32
  268.74        2961.25           1382         347.00      1502.68
  268.77        2961.50           1385         857.00      3726.20
  268.79        2961.75           1388        1777.00      7737.95
  268.82        2962.00           1392        3844.00     16754.59
  268.85        2962.25           1395        5745.00     25051.13
  268.88        2962.50           1398        7939.00     34631.21
  268.90        2962.75           1402       10639.00     46427.80
  268.93        2963.00           1405       12787.00     55818.21
  268.96        2963.25           1408       14888.00     65007.94
  268.99        2963.50           1412       17592.00     76842.15
  269.01        2963.75           1415       19452.00     84987.09
  269.04        2964.00           1418       21787.00     95217.34
  269.07        2964.25           1422       24539.00    107282.10
  269.10        2964.50           1425       26384.00    115375.20
  269.12        2964.75           1428       28826.00    126092.60
  269.15        2965.00           1431       31055.00    135880.90
  269.18        2965.25           1435       33805.00    147964.40
  269.20        2965.50           1438       36141.00    158235.30
  269.23        2965.75           1441       38235.00    167447.10
  269.26        2966.00           1445       40962.00    179450.90
  269.29        2966.25           1448       42934.00    188136.20
  269.31        2966.50           1451       44130.00    193405.90
  269.34        2966.75           1455       45622.00    199982.00
  269.37        2967.00           1458       46204.00    202547.80
  269.40        2967.25           1461       46293.00    202940.20
  269.42        2967.50           1465       46098.00    202080.50
  269.45        2967.75           1468       45690.00    200281.80
  269.48        2968.00           1471       45055.00    197482.60
  269.51        2968.25           1475       43286.00    189687.00
  269.53        2968.50           1478       41245.00    180697.00
  269.56        2968.75           1481       39219.00    171777.60
  269.59        2969.00           1485       36625.00    160364.10
  269.61        2969.25           1488       34088.00    149208.40
  269.64        2969.50           1491       32102.00    140480.40
  269.67        2969.75           1495       29042.00    127040.90
  269.70        2970.00           1498       26835.00    117354.00
  269.72        2970.25           1501       24625.00    107659.30
  269.75        2970.50           1505       21920.00     95800.22
  269.78        2970.75           1508       19534.00     85346.25
  269.81        2971.00           1511       17247.00     75331.80
  269.83        2971.25           1515       14498.00     63301.73
  269.86        2971.50           1518       12310.00     53732.48
  269.89        2971.75           1521       10270.00     44815.14
  269.92        2972.00           1525        7512.00     32766.32
  269.94        2972.25           1528        5367.00     23401.12
  269.97        2972.50           1531        3456.00     15061.71
  270.00        2972.75           1535        1543.00      6717.48
  270.03        2973.00           1538         649.00      2819.32
  270.05        2973.25           1541         219.00       944.66
  270.08        2973.50           1545          55.00       229.73
  270.11        2973.75           1548          37.00       151.26
  270.13        2974.00           1551          32.00       129.47
  270.16        2974.25           1555          26.00       103.31
  270.19        2974.50           1558          27.00       107.67
  270.22        2974.75           1561          22.00        85.88
  270.24        2975.00           1565          16.00        59.72
  270.27        2975.25           1568          19.00        72.80
  270.30        2975.50           1571          18.00        68.44
  270.32        2975.75           1575          25.00        98.95
  270.35        2976.00           1578          22.00        85.88
  270.38        2976.25           1581          23.00        90.24
  270.40        2976.50           1585          20.00        77.16
  270.43        2976.75           1588          20.00        77.16
  270.46        2977.00           1591          21.00        81.52
  270.49        2977.25           1595          21.00        81.52
  270.51        2977.50           1598          18.00        68.44
  270.54        2977.75           1601          19.00        72.80
  270.57        2978.00           1605          22.00        85.88
  270.59        2978.25           1608          23.00        90.24
  270.62        2978.50           1611          20.00        77.16
  270.65        2978.75           1615          19.00        72.80
  270.68        2979.00           1618          22.00        85.88
  270.70        2979.25           1621          19.00        72.80
  270.73        2979.50           1625          18.00        68.44
  270.76        2979.75           1628          24.00        94.59
  270.78        2980.00           1631          21.00        81.52
  270.81        2980.25           1635          21.00        81.52
  270.84        2980.50           1638          18.00        68.44
  270.87        2980.75           1641          22.00        85.88
  270.89        2981.00           1645          19.00        72.80
  270.92        2981.25           1648          20.00        77.16
  270.95        2981.50           1651          19.00        72.80
  270.97        2981.75           1655          21.00        81.52
  271.00        2982.00           1658          17.00        64.08
  271.03        2982.25           1661          16.00        59.72
  271.06        2982.50           1665          26.00       103.31
  271.08        2982.75           1668          20.00        77.16
  271.11        2983.00           1671          18.00        68.44
  271.14        2983.25           1675          25.00        98.95
  271.17        2983.50           1678          16.00        59.72
  271.19        2983.75           1681          13.00        46.64
  271.22        2984.00           1685          20.00        77.16
HS scan finished at 04:31:25
end
