************************************************************
  HS Scan of (1) Internal mercury lamp
************************************************************
Integration time is 0.2294 seconds per sample
dh291218Tamanrasset 22.79-5.529 4.974364pr865
************************************************************
Dead Time -------------------------  2.8E-08 
Number of Cycles Used -------------  4 
Starting Wavelength (Angstroms) ---  2950 
Final Wavelength (Angstoms) -------  2984 
Wavelength Increment (Angstroms) --  .25 
Filter Wheel #1 Position ---------- (1) Ground quartz diffuser (ND=2.32)
Filter Wheel #2 Position ---------- (1) Neutral Density 0.494



************************************************************
HS scan start time = 04:27:40
Dark Count =  5.9 


Time (GMT)  Wavelength (Ang)  Step Number  Raw Counts  Counts/Second

  268.03        2950.00           1233          21.00        65.82
  268.09        2950.25           1236          21.00        65.82
  268.12        2950.50           1239          19.00        57.11
  268.15        2950.75           1242          22.00        70.18
  268.18        2951.00           1246          18.00        52.75
  268.20        2951.25           1249          16.00        44.03
  268.23        2951.50           1252          22.00        70.18
  268.26        2951.75           1256          19.00        57.11
  268.28        2952.00           1259          20.00        61.46
  268.31        2952.25           1262          24.00        78.90
  268.34        2952.50           1266          20.00        61.46
  268.37        2952.75           1269          18.00        52.75
  268.39        2953.00           1272          21.00        65.82
  268.42        2953.25           1276          19.00        57.11
  268.45        2953.50           1279          21.00        65.82
  268.47        2953.75           1282          17.00        48.39
  268.50        2954.00           1286          20.00        61.46
  268.53        2954.25           1289          21.00        65.82
  268.56        2954.50           1292          18.00        52.75
  268.58        2954.75           1295          20.00        61.46
  268.61        2955.00           1299          17.00        48.39
  268.64        2955.25           1302          19.00        57.11
  268.66        2955.50           1305          22.00        70.18
  268.69        2955.75           1309          20.00        61.46
  268.72        2956.00           1312          18.00        52.75
  268.75        2956.25           1315          19.00        57.11
  268.77        2956.50           1319          21.00        65.82
  268.80        2956.75           1322          22.00        70.18
  268.83        2957.00           1325          22.00        70.18
  268.85        2957.25           1329          17.00        48.39
  268.88        2957.50           1332          18.00        52.75
  268.91        2957.75           1335          22.00        70.18
  268.94        2958.00           1339          20.00        61.46
  268.96        2958.25           1342          23.00        74.54
  268.99        2958.50           1345          18.00        52.75
  269.02        2958.75           1348          19.00        57.11
  269.04        2959.00           1352          20.00        61.46
  269.07        2959.25           1355          18.00        52.75
  269.10        2959.50           1358          24.00        78.90
  269.13        2959.75           1362          21.00        65.82
  269.15        2960.00           1365          26.00        87.62
  269.18        2960.25           1368          22.00        70.18
  269.21        2960.50           1372          28.00        96.34
  269.23        2960.75           1375          39.00       144.29
  269.26        2961.00           1378          84.00       340.46
  269.29        2961.25           1382         381.00      1635.21
  269.32        2961.50           1385        1023.00      4434.29
  269.34        2961.75           1388        2032.00      8834.36
  269.37        2962.00           1392        3985.00     17354.12
  269.40        2962.25           1395        5984.00     26078.76
  269.42        2962.50           1398        8127.00     35436.63
  269.45        2962.75           1402       10651.00     46464.51
  269.48        2963.00           1405       12791.00     55819.96
  269.51        2963.25           1408       14902.00     65053.44
  269.53        2963.50           1412       17681.00     77216.02
  269.56        2963.75           1415       19730.00     86189.01
  269.59        2964.00           1418       22006.00     96161.36
  269.62        2964.25           1422       24655.00    107775.10
  269.64        2964.50           1425       26769.00    117048.60
  269.67        2964.75           1428       28932.00    126542.20
  269.70        2965.00           1431       30999.00    135619.10
  269.72        2965.25           1435       34042.00    148990.40
  269.75        2965.50           1438       36168.00    158338.20
  269.78        2965.75           1441       38407.00    168188.20
  269.81        2966.00           1445       41084.00    179972.20
  269.83        2966.25           1448       42909.00    188010.20
  269.86        2966.50           1451       44345.00    194337.50
  269.89        2966.75           1455       45348.00    198758.30
  269.92        2967.00           1458       45901.00    201196.10
  269.94        2967.25           1461       46193.00    202483.50
  269.97        2967.50           1465       46170.00    202382.10
  270.00        2967.75           1468       45711.00    200358.50
  270.03        2968.00           1471       44720.00    195990.20
  270.05        2968.25           1475       43221.00    189384.80
  270.08        2968.50           1478       41258.00    180738.40
  270.11        2968.75           1481       39000.00    170797.90
  270.14        2969.00           1485       36376.00    159253.00
  270.16        2969.25           1488       33963.00    148643.10
  270.19        2969.50           1491       31814.00    139199.30
  270.22        2969.75           1495       28765.00    125809.00
  270.24        2970.00           1498       26554.00    116105.30
  270.27        2970.25           1501       24526.00    107209.30
  270.30        2970.50           1505       21495.00     93921.92
  270.33        2970.75           1508       19242.00     84051.55
  270.35        2971.00           1511       17078.00     74576.23
  270.38        2971.25           1515       14316.00     62489.81
  270.41        2971.50           1518       12145.00     52995.32
  270.44        2971.75           1521       10097.00     44043.39
  270.46        2972.00           1525        7193.00     31357.51
  270.49        2972.25           1528        5211.00     22704.49
  270.52        2972.50           1531        3333.00     14509.38
  270.55        2972.75           1535        1437.00      6239.54
  270.57        2973.00           1538         582.00      2511.51
  270.60        2973.25           1541         203.00       859.22
  270.63        2973.50           1545          49.00       187.88
  270.65        2973.75           1548          41.00       153.01
  270.68        2974.00           1551          28.00        96.34
  270.71        2974.25           1555          25.00        83.26
  270.74        2974.50           1558          26.00        87.62
  270.76        2974.75           1561          23.00        74.54
  270.79        2975.00           1565          19.00        57.11
  270.82        2975.25           1568          23.00        74.54
  270.84        2975.50           1571          19.00        57.11
  270.87        2975.75           1575          23.00        74.54
  270.90        2976.00           1578          20.00        61.46
  270.93        2976.25           1581          23.00        74.54
  270.95        2976.50           1585          24.00        78.90
  270.98        2976.75           1588          20.00        61.46
  271.01        2977.00           1591          21.00        65.82
  271.03        2977.25           1595          21.00        65.82
  271.06        2977.50           1598          17.00        48.39
  271.09        2977.75           1601          23.00        74.54
  271.12        2978.00           1605          23.00        74.54
  271.14        2978.25           1608          22.00        70.18
  271.17        2978.50           1611          23.00        74.54
  271.20        2978.75           1615          23.00        74.54
  271.22        2979.00           1618          27.00        91.98
  271.25        2979.25           1621          21.00        65.82
  271.28        2979.50           1625          23.00        74.54
  271.31        2979.75           1628          21.00        65.82
  271.33        2980.00           1631          22.00        70.18
  271.36        2980.25           1635          17.00        48.39
  271.39        2980.50           1638          20.00        61.46
  271.41        2980.75           1641          18.00        52.75
  271.44        2981.00           1645          21.00        65.82
  271.47        2981.25           1648          19.00        57.11
  271.50        2981.50           1651          19.00        57.11
  271.52        2981.75           1655          21.00        65.82
  271.55        2982.00           1658          19.00        57.11
  271.58        2982.25           1661          20.00        61.46
  271.60        2982.50           1665          20.00        61.46
  271.63        2982.75           1668          19.00        57.11
  271.66        2983.00           1671          19.00        57.11
  271.69        2983.25           1675          20.00        61.46
  271.71        2983.50           1678          22.00        70.18
  271.74        2983.75           1681          18.00        52.75
  271.77        2984.00           1685          19.00        57.11
HS scan finished at 04:31:57
end
