************************************************************
  HL Scan of (1) Internal mercury lamp
************************************************************
Integration time is 0.2294 seconds per sample
dh290517inta 37.1 6.733 3.133874pr1000
************************************************************
Dead Time -------------------------  3E-08 
Number of Cycles Used -------------  4 
Starting Wavelength (Angstroms) ---  3331 
Final Wavelength (Angstoms) -------  3351 
Wavelength Increment (Angstroms) --  .25 
Filter Wheel #1 Position ---------- (1) Ground quartz diffuser (ND=2.32)
Filter Wheel #2 Position ---------- (0) Clear Aperture



************************************************************
HL scan start time = 20:38:56
Dark Count =  6.4 


Time (GMT)  Wavelength (Ang)  Step Number  Raw Counts  Counts/Second

 1239.42        3331.00           6596          68.00       268.53
 1239.64        3331.25           6599          77.00       307.76
 1239.67        3331.50           6603          77.00       307.76
 1239.70        3331.75           6607          75.00       299.04
 1239.73        3332.00           6611          64.00       251.09
 1239.76        3332.25           6614          74.00       294.68
 1239.79        3332.50           6618          79.00       316.48
 1239.82        3332.75           6622          72.00       285.97
 1239.85        3333.00           6626          73.00       290.33
 1239.88        3333.25           6629          77.00       307.76
 1239.91        3333.50           6633          74.00       294.68
 1239.93        3333.75           6637          76.00       303.40
 1239.96        3334.00           6640          76.00       303.40
 1239.99        3334.25           6644          78.00       312.12
 1240.02        3334.50           6648          70.00       277.25
 1240.05        3334.75           6652          76.00       303.40
 1240.08        3335.00           6655          83.00       333.92
 1240.11        3335.25           6659         129.00       534.45
 1240.14        3335.50           6663         379.00      1624.32
 1240.17        3335.75           6667        1021.00      4423.43
 1240.20        3336.00           6670        1870.00      8125.78
 1240.23        3336.25           6674        3477.00     15135.90
 1240.26        3336.50           6678        5885.00     25645.71
 1240.29        3336.75           6682        8765.00     38224.28
 1240.32        3337.00           6685       11083.00     48355.19
 1240.35        3337.25           6689       14615.00     63803.79
 1240.38        3337.50           6693       18157.00     79310.53
 1240.41        3337.75           6697       21601.00     94402.11
 1240.44        3338.00           6700       24126.00    105475.30
 1240.47        3338.25           6704       27798.00    121591.80
 1240.50        3338.50           6708       31599.00    138290.90
 1240.53        3338.75           6712       35259.00    154386.50
 1240.55        3339.00           6715       38025.00    166560.80
 1240.58        3339.25           6719       41625.00    182419.30
 1240.61        3339.50           6723       44923.00    196960.80
 1240.64        3339.75           6727       48406.00    212331.70
 1240.67        3340.00           6730       51049.00    224005.10
 1240.70        3340.25           6734       54179.00    237840.10
 1240.73        3340.50           6738       57131.00    250898.90
 1240.76        3340.75           6742       59861.00    262984.70
 1240.79        3341.00           6745       61798.00    271565.30
 1240.82        3341.25           6749       62814.00    276067.70
 1240.85        3341.50           6753       63249.00    277995.80
 1240.88        3341.75           6756       62432.00    274374.80
 1240.91        3342.00           6760       60600.00    266257.80
 1240.94        3342.25           6764       58019.00    254829.20
 1240.97        3342.50           6768       55147.00    242121.10
 1241.00        3342.75           6771       52529.00    230545.50
 1241.03        3343.00           6775       49249.00    216054.10
 1241.06        3343.25           6779       45819.00    200913.60
 1241.09        3343.50           6783       42353.00    185628.10
 1241.11        3343.75           6786       39859.00    174637.90
 1241.14        3344.00           6790       36326.00    159081.70
 1241.17        3344.25           6794       32527.00    142370.50
 1241.20        3344.50           6798       28820.00    126080.20
 1241.23        3344.75           6801       26262.00    114848.40
 1241.26        3345.00           6805       22272.00     97344.02
 1241.29        3345.25           6809       18386.00     80313.59
 1241.32        3345.50           6813       14808.00     64648.37
 1241.35        3345.75           6817       11300.00     49303.91
 1241.38        3346.00           6820        9054.00     39487.02
 1241.41        3346.25           6824        6138.00     26750.32
 1241.44        3346.50           6828        3681.00     16026.01
 1241.47        3346.75           6832        1871.00      8130.14
 1241.50        3347.00           6835         976.00      4227.21
 1241.53        3347.25           6839         398.00      1707.15
 1241.56        3347.50           6843         146.00       608.56
 1241.59        3347.75           6847         110.00       451.62
 1241.62        3348.00           6850          95.00       386.23
 1241.65        3348.25           6854          78.00       312.12
 1241.68        3348.50           6858          77.00       307.76
 1241.70        3348.75           6862          82.00       329.56
 1241.73        3349.00           6865          74.00       294.68
 1241.76        3349.25           6869          76.00       303.40
 1241.79        3349.50           6873          89.00       360.07
 1241.82        3349.75           6877          74.00       294.68
 1241.85        3350.00           6880          70.00       277.25
 1241.88        3350.25           6884          77.00       307.76
 1241.91        3350.50           6888          77.00       307.76
 1241.94        3350.75           6892          80.00       320.84
 1241.97        3351.00           6895          79.00       316.48
HL scan finished at 20:42:48
end
