************************************************************
  HL Scan of (1) Internal mercury lamp
************************************************************
Integration time is 0.2294 seconds per sample
dh310517inta 37.1 6.733 3.103284pr1000
************************************************************
Dead Time -------------------------  3E-08 
Number of Cycles Used -------------  4 
Starting Wavelength (Angstroms) ---  3331 
Final Wavelength (Angstoms) -------  3351 
Wavelength Increment (Angstroms) --  .25 
Filter Wheel #1 Position ---------- (1) Ground quartz diffuser (ND=2.32)
Filter Wheel #2 Position ---------- (0) Clear Aperture



************************************************************
HL scan start time = 02:08:48
Dark Count =  5.1 


Time (GMT)  Wavelength (Ang)  Step Number  Raw Counts  Counts/Second

  129.28        3331.00           6596          74.00       300.35
  129.50        3331.25           6599          76.00       309.07
  129.53        3331.50           6603          75.00       304.71
  129.56        3331.75           6607          73.00       295.99
  129.59        3332.00           6611          74.00       300.35
  129.62        3332.25           6614          72.00       291.63
  129.65        3332.50           6618          76.00       309.07
  129.68        3332.75           6622          66.00       265.48
  129.71        3333.00           6626          75.00       304.71
  129.74        3333.25           6629          76.00       309.07
  129.77        3333.50           6633          77.00       313.43
  129.80        3333.75           6637          81.00       330.87
  129.83        3334.00           6640          69.00       278.56
  129.86        3334.25           6644          70.00       282.91
  129.89        3334.50           6648          77.00       313.43
  129.92        3334.75           6652          85.00       348.30
  129.95        3335.00           6655          87.00       357.02
  129.97        3335.25           6659         117.00       487.80
  130.00        3335.50           6663         346.00      1486.12
  130.03        3335.75           6667         935.00      4054.11
  130.06        3336.00           6670        1790.00      7782.55
  130.09        3336.25           6674        3283.00     14295.14
  130.12        3336.50           6678        5553.00     24201.96
  130.15        3336.75           6682        8428.00     36757.60
  130.18        3337.00           6685       10775.00     47014.40
  130.21        3337.25           6689       14052.00     61346.01
  130.24        3337.50           6693       17344.00     75755.68
  130.27        3337.75           6697       21001.00     91777.63
  130.30        3338.00           6700       23473.00    102616.60
  130.33        3338.25           6704       27258.00    119226.50
  130.36        3338.50           6708       30765.00    134631.20
  130.39        3338.75           6712       34712.00    151985.70
  130.41        3339.00           6715       37235.00    163088.50
  130.44        3339.25           6719       40761.00    178617.60
  130.47        3339.50           6723       44099.00    193332.10
  130.50        3339.75           6727       47691.00    209180.90
  130.53        3340.00           6730       50111.00    219867.00
  130.56        3340.25           6734       53141.00    233256.50
  130.59        3340.50           6738       56260.00    247050.50
  130.62        3340.75           6742       59140.00    259797.70
  130.65        3341.00           6745       60544.00    266015.50
  130.68        3341.25           6749       61884.00    271952.10
  130.71        3341.50           6753       62073.00    272789.60
  130.74        3341.75           6756       61702.00    271145.60
  130.77        3342.00           6760       59892.00    263127.80
  130.80        3342.25           6764       57467.00    252391.70
  130.83        3342.50           6768       54401.00    238827.60
  130.86        3342.75           6771       51963.00    228049.60
  130.89        3343.00           6775       48421.00    212403.70
  130.91        3343.25           6779       44855.00    196666.50
  130.94        3343.50           6783       41610.00    182358.90
  130.97        3343.75           6786       39130.00    171432.60
  131.00        3344.00           6790       35632.00    156033.40
  131.03        3344.25           6794       32088.00    140446.20
  131.06        3344.50           6798       28539.00    124851.70
  131.09        3344.75           6801       25900.00    113265.20
  131.12        3345.00           6805       22037.00     96319.34
  131.15        3345.25           6809       18308.00     79977.63
  131.18        3345.50           6813       14775.00     64509.65
  131.21        3345.75           6817       11419.00     49829.89
  131.24        3346.00           6820        9103.00     39706.83
  131.27        3346.25           6824        6107.00     26620.64
  131.30        3346.50           6828        3710.00     16158.22
  131.33        3346.75           6832        1840.00      8000.61
  131.36        3347.00           6835        1027.00      4455.26
  131.38        3347.25           6839         373.00      1603.83
  131.41        3347.50           6843         167.00       705.77
  131.44        3347.75           6847         102.00       422.41
  131.47        3348.00           6850          95.00       391.90
  131.50        3348.25           6854          88.00       361.38
  131.53        3348.50           6858          82.00       335.23
  131.56        3348.75           6862          75.00       304.71
  131.59        3349.00           6865          79.00       322.15
  131.62        3349.25           6869          81.00       330.87
  131.65        3349.50           6873          73.00       295.99
  131.68        3349.75           6877          69.00       278.56
  131.71        3350.00           6880          81.00       330.87
  131.74        3350.25           6884          74.00       300.35
  131.77        3350.50           6888          74.00       300.35
  131.80        3350.75           6892          73.00       295.99
  131.83        3351.00           6895          68.00       274.20
HL scan finished at 02:12:40
end
************************************************************
  HL Scan of (1) Internal mercury lamp
************************************************************
Integration time is 0.2294 seconds per sample
dh310517inta 37.1 6.733 3.200152pr1000
************************************************************
Dead Time -------------------------  3E-08 
Number of Cycles Used -------------  4 
Starting Wavelength (Angstroms) ---  3331 
Final Wavelength (Angstoms) -------  3351 
Wavelength Increment (Angstroms) --  .25 
Filter Wheel #1 Position ---------- (1) Ground quartz diffuser (ND=2.32)
Filter Wheel #2 Position ---------- (0) Clear Aperture



************************************************************
HL scan start time = 21:59:06
Dark Count =  6.4 


Time (GMT)  Wavelength (Ang)  Step Number  Raw Counts  Counts/Second

 1319.59        3331.00           6596          76.00       303.40
 1319.81        3331.25           6599          74.00       294.68
 1319.84        3331.50           6603          72.00       285.97
 1319.87        3331.75           6607          79.00       316.48
 1319.90        3332.00           6611          74.00       294.68
 1319.93        3332.25           6614          77.00       307.76
 1319.95        3332.50           6618          78.00       312.12
 1319.98        3332.75           6622          70.00       277.25
 1320.01        3333.00           6626          76.00       303.40
 1320.04        3333.25           6629          70.00       277.25
 1320.07        3333.50           6633          80.00       320.84
 1320.10        3333.75           6637          84.00       338.28
 1320.13        3334.00           6640          77.00       307.76
 1320.16        3334.25           6644          75.00       299.04
 1320.19        3334.50           6648          82.00       329.56
 1320.22        3334.75           6652          86.00       347.00
 1320.25        3335.00           6655         101.00       412.39
 1320.28        3335.25           6659         118.00       486.49
 1320.31        3335.50           6663         372.00      1593.80
 1320.34        3335.75           6667        1016.00      4401.63
 1320.37        3336.00           6670        1862.00      8090.89
 1320.40        3336.25           6674        3560.00     15498.05
 1320.43        3336.50           6678        6085.00     26518.91
 1320.46        3336.75           6682        9124.00     39792.90
 1320.48        3337.00           6685       11642.00     50799.24
 1320.51        3337.25           6689       15198.00     66355.15
 1320.54        3337.50           6693       18731.00     81824.85
 1320.57        3337.75           6697       22758.00     99475.14
 1320.60        3338.00           6700       25695.00    112359.80
 1320.63        3338.25           6704       29557.00    129317.60
 1320.66        3338.50           6708       33297.00    145756.30
 1320.69        3338.75           6712       37479.00    164156.90
 1320.72        3339.00           6715       40092.00    175664.40
 1320.75        3339.25           6719       44034.00    193039.70
 1320.78        3339.50           6723       47701.00    209219.30
 1320.81        3339.75           6727       51305.00    225136.20
 1320.84        3340.00           6730       53927.00    236725.80
 1320.87        3340.25           6734       57673.00    253297.60
 1320.90        3340.50           6738       60546.00    266018.70
 1320.93        3340.75           6742       63380.00    278576.50
 1320.95        3341.00           6745       65164.00    286486.50
 1320.98        3341.25           6749       66855.00    293987.80
 1321.01        3341.50           6753       66921.00    294280.60
 1321.04        3341.75           6756       66353.00    291760.50
 1321.07        3342.00           6760       64736.00    284588.50
 1321.10        3342.25           6764       61761.00    271401.30
 1321.13        3342.50           6768       58387.00    256458.20
 1321.16        3342.75           6771       55785.00    244943.30
 1321.19        3343.00           6775       51951.00    227990.90
 1321.22        3343.25           6779       48601.00    213192.70
 1321.25        3343.50           6783       45102.00    197750.30
 1321.28        3343.75           6786       42091.00    184473.20
 1321.31        3344.00           6790       38295.00    167749.70
 1321.34        3344.25           6794       34704.00    151944.80
 1321.37        3344.50           6798       30720.00    134427.70
 1321.40        3344.75           6801       27819.00    121684.00
 1321.43        3345.00           6805       23748.00    103817.20
 1321.46        3345.25           6809       19740.00     86245.52
 1321.49        3345.50           6813       15809.00     69029.47
 1321.52        3345.75           6817       12149.00     53016.26
 1321.55        3346.00           6820        9615.00     41938.52
 1321.58        3346.25           6824        6551.00     28553.66
 1321.60        3346.50           6828        3991.00     17378.72
 1321.63        3346.75           6832        2105.00      9150.73
 1321.66        3347.00           6835        1075.00      4658.89
 1321.69        3347.25           6839         376.00      1611.24
 1321.72        3347.50           6843         169.00       708.82
 1321.75        3347.75           6847          96.00       390.59
 1321.78        3348.00           6850          84.00       338.28
 1321.81        3348.25           6854          82.00       329.56
 1321.84        3348.50           6858          75.00       299.04
 1321.87        3348.75           6862          78.00       312.12
 1321.90        3349.00           6865          71.00       281.61
 1321.93        3349.25           6869          72.00       285.97
 1321.96        3349.50           6873          76.00       303.40
 1321.99        3349.75           6877          68.00       268.53
 1322.02        3350.00           6880          82.00       329.56
 1322.05        3350.25           6884          82.00       329.56
 1322.08        3350.50           6888          87.00       351.36
 1322.11        3350.75           6892          79.00       316.48
 1322.14        3351.00           6895          77.00       307.76
HL scan finished at 22:02:58
end
