************************************************************
  HL Scan of (1) Internal mercury lamp
************************************************************
Integration time is 0.2294 seconds per sample
dh300517inta 37.1 6.733 3.001317pr1000
************************************************************
Dead Time -------------------------  3E-08 
Number of Cycles Used -------------  4 
Starting Wavelength (Angstroms) ---  3331 
Final Wavelength (Angstoms) -------  3351 
Wavelength Increment (Angstroms) --  .25 
Filter Wheel #1 Position ---------- (1) Ground quartz diffuser (ND=2.32)
Filter Wheel #2 Position ---------- (0) Clear Aperture



************************************************************
HL scan start time = 02:05:51
Dark Count =  6.2 


Time (GMT)  Wavelength (Ang)  Step Number  Raw Counts  Counts/Second

  126.32        3331.00           6596          65.00       256.32
  126.55        3331.25           6599          77.00       308.63
  126.57        3331.50           6603          75.00       299.92
  126.60        3331.75           6607          68.00       269.40
  126.63        3332.00           6611          76.00       304.27
  126.66        3332.25           6614          63.00       247.60
  126.69        3332.50           6618          69.00       273.76
  126.72        3332.75           6622          74.00       295.56
  126.75        3333.00           6626          66.00       260.68
  126.78        3333.25           6629          68.00       269.40
  126.81        3333.50           6633          68.00       269.40
  126.84        3333.75           6637          69.00       273.76
  126.87        3334.00           6640          73.00       291.20
  126.90        3334.25           6644          75.00       299.92
  126.93        3334.50           6648          84.00       339.15
  126.95        3334.75           6652          87.00       352.23
  126.98        3335.00           6655          97.00       395.82
  127.01        3335.25           6659         123.00       509.16
  127.04        3335.50           6663         329.00      1407.21
  127.07        3335.75           6667         859.00      3717.94
  127.10        3336.00           6670        1635.00      7101.77
  127.13        3336.25           6674        3139.00     13662.10
  127.16        3336.50           6678        5287.00     23035.97
  127.19        3336.75           6682        8043.00     35070.88
  127.22        3337.00           6685       10172.00     44373.76
  127.25        3337.25           6689       13282.00     57972.58
  127.28        3337.50           6693       16276.00     71074.68
  127.31        3337.75           6697       19836.00     86667.08
  127.34        3338.00           6700       22524.00     98449.89
  127.36        3338.25           6704       25790.00    112777.60
  127.39        3338.50           6708       29268.00    128049.00
  127.42        3338.75           6712       32498.00    142243.90
  127.45        3339.00           6715       35066.00    153538.20
  127.48        3339.25           6719       38398.00    168204.10
  127.51        3339.50           6723       41547.00    182076.40
  127.54        3339.75           6727       44543.00    195285.50
  127.57        3340.00           6730       46872.00    205561.10
  127.60        3340.25           6734       50329.00    220825.10
  127.63        3340.50           6738       52903.00    232199.50
  127.66        3340.75           6742       55672.00    244444.30
  127.69        3341.00           6745       57156.00    251010.40
  127.72        3341.25           6749       58118.00    255268.20
  127.75        3341.50           6753       58512.00    257012.40
  127.78        3341.75           6756       58004.00    254763.60
  127.81        3342.00           6760       55928.00    245576.80
  127.83        3342.25           6764       53708.00    235758.40
  127.86        3342.50           6768       50903.00    223360.90
  127.89        3342.75           6771       48686.00    213568.90
  127.92        3343.00           6775       45404.00    199083.50
  127.95        3343.25           6779       42330.00    185527.60
  127.98        3343.50           6783       39228.00    171859.40
  128.01        3343.75           6786       36763.00    161006.00
  128.04        3344.00           6790       33389.00    146161.70
  128.07        3344.25           6794       29972.00    131141.80
  128.10        3344.50           6798       26551.00    116117.90
  128.13        3344.75           6801       24163.00    105638.50
  128.16        3345.00           6805       20700.00     90453.49
  128.19        3345.25           6809       17130.00     74813.77
  128.22        3345.50           6813       13616.00     59433.69
  128.25        3345.75           6817       10571.00     46117.82
  128.28        3346.00           6820        8212.00     35809.16
  128.31        3346.25           6824        5523.00     24066.19
  128.33        3346.50           6828        3364.00     14643.75
  128.36        3346.75           6832        1761.00      7651.28
  128.39        3347.00           6835         928.00      4018.79
  128.42        3347.25           6839         343.00      1468.24
  128.45        3347.50           6843         147.00       613.79
  128.48        3347.75           6847          95.00       387.10
  128.51        3348.00           6850          89.00       360.95
  128.54        3348.25           6854          82.00       330.43
  128.57        3348.50           6858          92.00       374.02
  128.60        3348.75           6862          82.00       330.43
  128.63        3349.00           6865          71.00       282.48
  128.66        3349.25           6869          75.00       299.92
  128.68        3349.50           6873          71.00       282.48
  128.71        3349.75           6877          77.00       308.63
  128.74        3350.00           6880          66.00       260.68
  128.77        3350.25           6884          74.00       295.56
  128.80        3350.50           6888          74.00       295.56
  128.83        3350.75           6892          64.00       251.96
  128.86        3351.00           6895          73.00       291.20
HL scan finished at 02:09:42
end
************************************************************
  HL Scan of (1) Internal mercury lamp
************************************************************
Integration time is 0.2294 seconds per sample
dh300517inta 37.1 6.733 3.220545pr1000
************************************************************
Dead Time -------------------------  3E-08 
Number of Cycles Used -------------  4 
Starting Wavelength (Angstroms) ---  3331 
Final Wavelength (Angstoms) -------  3351 
Wavelength Increment (Angstroms) --  .25 
Filter Wheel #1 Position ---------- (1) Ground quartz diffuser (ND=2.32)
Filter Wheel #2 Position ---------- (0) Clear Aperture



************************************************************
HL scan start time = 20:38:50
Dark Count =  3.6 


Time (GMT)  Wavelength (Ang)  Step Number  Raw Counts  Counts/Second

 1239.31        3331.00           6596          75.00       311.25
 1239.53        3331.25           6599          81.00       337.41
 1239.56        3331.50           6603          83.00       346.12
 1239.59        3331.75           6607          71.00       293.81
 1239.62        3332.00           6611          66.00       272.02
 1239.65        3332.25           6614          71.00       293.81
 1239.68        3332.50           6618          76.00       315.61
 1239.71        3332.75           6622          74.00       306.89
 1239.74        3333.00           6626          74.00       306.89
 1239.77        3333.25           6629          72.00       298.17
 1239.80        3333.50           6633          79.00       328.69
 1239.83        3333.75           6637          84.00       350.48
 1239.86        3334.00           6640          78.00       324.33
 1239.89        3334.25           6644          74.00       306.89
 1239.92        3334.50           6648          88.00       367.92
 1239.95        3334.75           6652          86.00       359.20
 1239.98        3335.00           6655         100.00       420.23
 1240.01        3335.25           6659         133.00       564.09
 1240.04        3335.50           6663         354.00      1527.53
 1240.06        3335.75           6667        1024.00      4448.72
 1240.09        3336.00           6670        1931.00      8404.04
 1240.12        3336.25           6674        3627.00     15802.61
 1240.15        3336.50           6678        6201.00     27037.62
 1240.18        3336.75           6682        9271.00     40447.49
 1240.21        3337.00           6685       11780.00     51414.90
 1240.24        3337.25           6689       15208.00     66411.18
 1240.27        3337.50           6693       18903.00     82590.61
 1240.30        3337.75           6697       22712.00     99285.71
 1240.33        3338.00           6700       25442.00    111261.80
 1240.36        3338.25           6704       29248.00    127972.50
 1240.39        3338.50           6708       33341.00    145962.10
 1240.42        3338.75           6712       37545.00    164459.80
 1240.45        3339.00           6715       40082.00    175632.60
 1240.48        3339.25           6719       44100.00    193343.10
 1240.51        3339.50           6723       47334.00    207611.60
 1240.54        3339.75           6727       50773.00    222798.10
 1240.57        3340.00           6730       53807.00    236207.60
 1240.60        3340.25           6734       57271.00    251530.80
 1240.63        3340.50           6738       60418.00    265464.10
 1240.66        3340.75           6742       63673.00    279887.80
 1240.69        3341.00           6745       65032.00    285913.60
 1240.72        3341.25           6749       66680.00    293223.70
 1240.75        3341.50           6753       67061.00    294914.20
 1240.78        3341.75           6756       66200.00    291094.20
 1240.80        3342.00           6760       64336.00    282827.30
 1240.83        3342.25           6764       61394.00    269787.70
 1240.86        3342.50           6768       58179.00    255549.80
 1240.89        3342.75           6771       55555.00    243938.20
 1240.92        3343.00           6775       52329.00    229673.80
 1240.95        3343.25           6779       48484.00    212688.40
 1240.98        3343.50           6783       44887.00    196814.30
 1241.01        3343.75           6786       42126.00    184639.80
 1241.04        3344.00           6790       38191.00    167304.10
 1241.07        3344.25           6794       34648.00    151710.70
 1241.10        3344.50           6798       30409.00    133073.40
 1241.13        3344.75           6801       27810.00    121656.80
 1241.16        3345.00           6805       23798.00    104048.80
 1241.19        3345.25           6809       19890.00     86915.09
 1241.22        3345.50           6813       15889.00     69391.91
 1241.25        3345.75           6817       12185.00     53185.93
 1241.28        3346.00           6820        9614.00     41946.39
 1241.31        3346.25           6824        6496.00     28325.72
 1241.34        3346.50           6828        3967.00     17286.21
 1241.37        3346.75           6832        2075.00      9032.09
 1241.40        3347.00           6835        1119.00      4862.96
 1241.43        3347.25           6839         393.00      1697.56
 1241.45        3347.50           6843         162.00       690.51
 1241.48        3347.75           6847         105.00       442.03
 1241.51        3348.00           6850          94.00       394.08
 1241.54        3348.25           6854          88.00       367.92
 1241.57        3348.50           6858          80.00       333.05
 1241.60        3348.75           6862          80.00       333.05
 1241.63        3349.00           6865          69.00       285.09
 1241.66        3349.25           6869          77.00       319.97
 1241.69        3349.50           6873          72.00       298.17
 1241.72        3349.75           6877          72.00       298.17
 1241.75        3350.00           6880          79.00       328.69
 1241.78        3350.25           6884          74.00       306.89
 1241.81        3350.50           6888          74.00       306.89
 1241.84        3350.75           6892          76.00       315.61
 1241.87        3351.00           6895          74.00       306.89
HL scan finished at 20:42:42
end
