************************************************************
  HL Scan of (1) Internal mercury lamp
************************************************************
Integration time is 0.2294 seconds per sample
dh020617inta 37.1 6.733 3.240938pr1000
************************************************************
Dead Time -------------------------  3E-08 
Number of Cycles Used -------------  4 
Starting Wavelength (Angstroms) ---  3331 
Final Wavelength (Angstoms) -------  3351 
Wavelength Increment (Angstroms) --  .25 
Filter Wheel #1 Position ---------- (1) Ground quartz diffuser (ND=2.32)
Filter Wheel #2 Position ---------- (0) Clear Aperture



************************************************************
HL scan start time = 02:06:51
Dark Count =  3.9 


Time (GMT)  Wavelength (Ang)  Step Number  Raw Counts  Counts/Second

  127.33        3331.00           6596          79.00       327.38
  127.55        3331.25           6599          84.00       349.18
  127.58        3331.50           6603          65.00       266.35
  127.61        3331.75           6607          78.00       323.02
  127.64        3332.00           6611          76.00       314.30
  127.67        3332.25           6614          73.00       301.22
  127.70        3332.50           6618          75.00       309.94
  127.73        3332.75           6622          75.00       309.94
  127.76        3333.00           6626          74.00       305.58
  127.79        3333.25           6629          67.00       275.07
  127.82        3333.50           6633          81.00       336.10
  127.85        3333.75           6637          84.00       349.18
  127.88        3334.00           6640          78.00       323.02
  127.91        3334.25           6644          77.00       318.66
  127.94        3334.50           6648          89.00       370.97
  127.96        3334.75           6652          84.00       349.18
  127.99        3335.00           6655          93.00       388.41
  128.02        3335.25           6659         131.00       554.06
  128.05        3335.50           6663         388.00      1674.45
  128.08        3335.75           6667        1005.00      4364.56
  128.11        3336.00           6670        1997.00      8690.58
  128.14        3336.25           6674        3681.00     16036.92
  128.17        3336.50           6678        6274.00     27355.05
  128.20        3336.75           6682        9319.00     40655.92
  128.23        3337.00           6685       11802.00     51509.79
  128.26        3337.25           6689       15518.00     67766.66
  128.29        3337.50           6693       19121.00     83544.35
  128.32        3337.75           6697       23083.00    100911.40
  128.35        3338.00           6700       25806.00    112857.90
  128.38        3338.25           6704       30062.00    131547.30
  128.41        3338.50           6708       33909.00    148458.80
  128.44        3338.75           6712       38029.00    166589.40
  128.47        3339.00           6715       40918.00    179314.70
  128.50        3339.25           6719       44780.00    196341.00
  128.52        3339.50           6723       48619.00    213283.20
  128.55        3339.75           6727       52087.00    228603.00
  128.58        3340.00           6730       55082.00    241844.70
  128.61        3340.25           6734       58626.00    257527.30
  128.64        3340.50           6738       61785.00    271518.80
  128.67        3340.75           6742       64509.00    283593.00
  128.70        3341.00           6745       66651.00    293093.80
  128.73        3341.25           6749       67868.00    298494.10
  128.76        3341.50           6753       67961.00    298906.90
  128.79        3341.75           6756       67446.00    296621.30
  128.82        3342.00           6760       65238.00    286825.90
  128.85        3342.25           6764       62908.00    276495.50
  128.88        3342.50           6768       59305.00    260533.70
  128.91        3342.75           6771       56634.00    248710.60
  128.94        3343.00           6775       53044.00    232833.00
  128.97        3343.25           6779       49126.00    215522.00
  129.00        3343.50           6783       45624.00    200064.20
  129.03        3343.75           6786       42643.00    186917.50
  129.05        3344.00           6790       38750.00    169764.30
  129.08        3344.25           6794       34956.00    153064.40
  129.11        3344.50           6798       31113.00    136165.80
  129.14        3344.75           6801       28267.00    123662.40
  129.17        3345.00           6805       24107.00    105403.00
  129.20        3345.25           6809       19937.00     87119.72
  129.23        3345.50           6813       16187.00     70695.11
  129.26        3345.75           6817       12552.00     54789.64
  129.29        3346.00           6820        9827.00     42875.95
  129.32        3346.25           6824        6579.00     28686.84
  129.35        3346.50           6828        3984.00     17359.08
  129.38        3346.75           6832        2044.00      8895.57
  129.41        3347.00           6835        1101.00      4783.16
  129.44        3347.25           6839         403.00      1739.85
  129.46        3347.50           6843         167.00       711.00
  129.49        3347.75           6847          96.00       401.49
  129.52        3348.00           6850          97.00       405.85
  129.55        3348.25           6854          88.00       366.61
  129.58        3348.50           6858          79.00       327.38
  129.61        3348.75           6862          81.00       336.10
  129.64        3349.00           6865          78.00       323.02
  129.67        3349.25           6869          76.00       314.30
  129.70        3349.50           6873          82.00       340.46
  129.73        3349.75           6877          75.00       309.94
  129.76        3350.00           6880          85.00       353.53
  129.79        3350.25           6884          83.00       344.82
  129.82        3350.50           6888          77.00       318.66
  129.85        3350.75           6892          75.00       309.94
  129.88        3351.00           6895          80.00       331.74
HL scan finished at 02:10:43
end
************************************************************
  HL Scan of (1) Internal mercury lamp
************************************************************
Integration time is 0.2294 seconds per sample
dh020617inta 37.1 6.733 3.281725pr1000
************************************************************
Dead Time -------------------------  3E-08 
Number of Cycles Used -------------  4 
Starting Wavelength (Angstroms) ---  3331 
Final Wavelength (Angstoms) -------  3351 
Wavelength Increment (Angstroms) --  .25 
Filter Wheel #1 Position ---------- (1) Ground quartz diffuser (ND=2.32)
Filter Wheel #2 Position ---------- (0) Clear Aperture



************************************************************
HL scan start time = 21:59:07
Dark Count =  6.6 


Time (GMT)  Wavelength (Ang)  Step Number  Raw Counts  Counts/Second

 1319.59        3331.00           6596          71.00       280.73
 1319.81        3331.25           6599          74.00       293.81
 1319.84        3331.50           6603          75.00       298.17
 1319.87        3331.75           6607          73.00       289.45
 1319.90        3332.00           6611          74.00       293.81
 1319.93        3332.25           6614          81.00       324.33
 1319.96        3332.50           6618          78.00       311.25
 1319.99        3332.75           6622          74.00       293.81
 1320.02        3333.00           6626          72.00       285.09
 1320.05        3333.25           6629          71.00       280.73
 1320.08        3333.50           6633          71.00       280.73
 1320.11        3333.75           6637          80.00       319.97
 1320.14        3334.00           6640          77.00       306.89
 1320.17        3334.25           6644          79.00       315.61
 1320.20        3334.50           6648          79.00       315.61
 1320.23        3334.75           6652          92.00       372.28
 1320.26        3335.00           6655          99.00       402.79
 1320.29        3335.25           6659         137.00       568.45
 1320.32        3335.50           6663         380.00      1627.80
 1320.35        3335.75           6667        1039.00      4501.04
 1320.38        3336.00           6670        1900.00      8255.75
 1320.40        3336.25           6674        3618.00     15750.25
 1320.43        3336.50           6678        6058.00     26400.15
 1320.46        3336.75           6682        9215.00     40189.67
 1320.49        3337.00           6685       11827.00     51607.30
 1320.52        3337.25           6689       15426.00     67352.18
 1320.55        3337.50           6693       19177.00     83777.87
 1320.58        3337.75           6697       23039.00    100706.60
 1320.61        3338.00           6700       26146.00    114338.40
 1320.64        3338.25           6704       30141.00    131882.60
 1320.67        3338.50           6708       34105.00    149309.00
 1320.70        3338.75           6712       38048.00    166661.20
 1320.73        3339.00           6715       40877.00    179122.10
 1320.76        3339.25           6719       45020.00    197387.70
 1320.79        3339.50           6723       48737.00    213792.30
 1320.82        3339.75           6727       52465.00    230261.70
 1320.85        3340.00           6730       55206.00    242381.20
 1320.88        3340.25           6734       58722.00    257940.40
 1320.91        3340.50           6738       62180.00    273257.10
 1320.94        3340.75           6742       65145.00    286401.50
 1320.97        3341.00           6745       66804.00    293760.60
 1321.00        3341.25           6749       68475.00    301176.30
 1321.03        3341.50           6753       68735.00    302330.40
 1321.05        3341.75           6756       68060.00    299334.30
 1321.08        3342.00           6760       65913.00    289807.80
 1321.11        3342.25           6764       63491.00    279067.70
 1321.14        3342.50           6768       59744.00    262465.70
 1321.17        3342.75           6771       57288.00    251592.80
 1321.20        3343.00           6775       53954.00    236844.30
 1321.23        3343.25           6779       50037.00    219533.50
 1321.26        3343.50           6783       46119.00    202236.40
 1321.29        3343.75           6786       43218.00    189440.60
 1321.32        3344.00           6790       39611.00    173544.60
 1321.35        3344.25           6794       35406.00    155032.40
 1321.38        3344.50           6798       31482.00    137775.80
 1321.41        3344.75           6801       28524.00    124779.20
 1321.44        3345.00           6805       24401.00    106680.90
 1321.47        3345.25           6809       20406.00     89163.21
 1321.50        3345.50           6813       16395.00     71593.90
 1321.52        3345.75           6817       12695.00     55403.26
 1321.55        3346.00           6820       10055.00     43860.64
 1321.58        3346.25           6824        6812.00     29692.52
 1321.61        3346.50           6828        4174.00     18176.43
 1321.64        3346.75           6832        2081.00      9045.17
 1321.67        3347.00           6835        1136.00      4924.01
 1321.70        3347.25           6839         411.00      1762.95
 1321.73        3347.50           6843         182.00       764.62
 1321.76        3347.75           6847         121.00       498.70
 1321.79        3348.00           6850          92.00       372.28
 1321.82        3348.25           6854          95.00       385.36
 1321.85        3348.50           6858          78.00       311.25
 1321.88        3348.75           6862          84.00       337.41
 1321.91        3349.00           6865          70.00       276.38
 1321.94        3349.25           6869          77.00       306.89
 1321.97        3349.50           6873          82.00       328.69
 1322.00        3349.75           6877          71.00       280.73
 1322.03        3350.00           6880          86.00       346.12
 1322.05        3350.25           6884          77.00       306.89
 1322.08        3350.50           6888          69.00       272.02
 1322.11        3350.75           6892          73.00       289.45
 1322.14        3351.00           6895          75.00       298.17
HL scan finished at 22:02:59
end
