************************************************************
  HL Scan of (1) Internal mercury lamp
************************************************************
Integration time is 0.2294 seconds per sample
dh030617inta 37.1 6.733 3.133874pr1000
************************************************************
Dead Time -------------------------  3E-08 
Number of Cycles Used -------------  4 
Starting Wavelength (Angstroms) ---  3331 
Final Wavelength (Angstoms) -------  3351 
Wavelength Increment (Angstroms) --  .25 
Filter Wheel #1 Position ---------- (1) Ground quartz diffuser (ND=2.32)
Filter Wheel #2 Position ---------- (0) Clear Aperture



************************************************************
HL scan start time = 02:05:55
Dark Count =  7.2 


Time (GMT)  Wavelength (Ang)  Step Number  Raw Counts  Counts/Second

  126.40        3331.00           6596          71.00       278.12
  126.62        3331.25           6599          78.00       308.63
  126.65        3331.50           6603          72.00       282.48
  126.68        3331.75           6607          79.00       312.99
  126.71        3332.00           6611          77.00       304.27
  126.74        3332.25           6614          77.00       304.27
  126.77        3332.50           6618          68.00       265.04
  126.80        3332.75           6622          74.00       291.20
  126.83        3333.00           6626          63.00       243.25
  126.86        3333.25           6629          75.00       295.56
  126.89        3333.50           6633          71.00       278.12
  126.91        3333.75           6637          77.00       304.27
  126.94        3334.00           6640          76.00       299.92
  126.97        3334.25           6644          70.00       273.76
  127.00        3334.50           6648          71.00       278.12
  127.03        3334.75           6652          86.00       343.51
  127.06        3335.00           6655          95.00       382.74
  127.09        3335.25           6659         120.00       491.72
  127.12        3335.50           6663         335.00      1429.01
  127.15        3335.75           6667         902.00      3901.07
  127.18        3336.00           6670        1712.00      7433.22
  127.21        3336.25           6674        3237.00     14085.29
  127.24        3336.50           6678        5563.00     24236.45
  127.27        3336.75           6682        8442.00     36809.59
  127.30        3337.00           6685       10918.00     47630.35
  127.33        3337.25           6689       14274.00     62308.17
  127.36        3337.50           6693       17756.00     77550.75
  127.39        3337.75           6697       21377.00     93416.62
  127.42        3338.00           6700       23975.00    104809.40
  127.45        3338.25           6704       27730.00    121289.70
  127.47        3338.50           6708       31301.00    136977.60
  127.50        3338.75           6712       35017.00    153318.20
  127.53        3339.00           6715       37593.00    164655.30
  127.56        3339.25           6719       41285.00    180917.40
  127.59        3339.50           6723       44759.00    196233.80
  127.62        3339.75           6727       48187.00    211361.30
  127.65        3340.00           6730       50802.00    222910.30
  127.68        3340.25           6734       54240.00    238106.30
  127.71        3340.50           6738       57001.00    250320.00
  127.74        3340.75           6742       60057.00    263849.20
  127.77        3341.00           6745       61688.00    271074.30
  127.80        3341.25           6749       63256.00    278023.30
  127.83        3341.50           6753       63370.00    278528.70
  127.86        3341.75           6756       62684.00    275488.00
  127.89        3342.00           6760       61151.00    268695.20
  127.91        3342.25           6764       58545.00    257154.10
  127.94        3342.50           6768       55360.00    243059.70
  127.97        3342.75           6771       52881.00    232097.90
  128.00        3343.00           6775       49479.00    217066.30
  128.03        3343.25           6779       46324.00    203138.30
  128.06        3343.50           6783       42830.00    187727.30
  128.09        3343.75           6786       40002.00    175264.40
  128.12        3344.00           6790       36410.00    159447.90
  128.15        3344.25           6794       32932.00    144147.70
  128.18        3344.50           6798       28804.00    126006.40
  128.21        3344.75           6801       26154.00    114370.80
  128.24        3345.00           6805       22525.00     98449.89
  128.27        3345.25           6809       18664.00     81527.85
  128.30        3345.50           6813       15039.00     65655.79
  128.33        3345.75           6817       11732.00     51189.28
  128.35        3346.00           6820        9401.00     40999.83
  128.38        3346.25           6824        6183.00     26943.31
  128.41        3346.50           6828        3769.00     16406.51
  128.44        3346.75           6832        1997.00      8676.19
  128.47        3347.00           6835        1072.00      4642.32
  128.50        3347.25           6839         380.00      1625.19
  128.53        3347.50           6843         174.00       727.13
  128.56        3347.75           6847          88.00       352.23
  128.59        3348.00           6850          84.00       334.79
  128.62        3348.25           6854          76.00       299.92
  128.65        3348.50           6858          80.00       317.35
  128.68        3348.75           6862          78.00       308.63
  128.71        3349.00           6865          76.00       299.92
  128.73        3349.25           6869          77.00       304.27
  128.76        3349.50           6873          76.00       299.92
  128.79        3349.75           6877          71.00       278.12
  128.82        3350.00           6880          74.00       291.20
  128.85        3350.25           6884          75.00       295.56
  128.88        3350.50           6888          70.00       273.76
  128.91        3350.75           6892          84.00       334.79
  128.94        3351.00           6895          71.00       278.12
HL scan finished at 02:09:47
end
