************************************************************
  HL Scan of (1) Internal mercury lamp
************************************************************
Integration time is 0.2294 seconds per sample
dh010617inta 37.1 6.733 3.154267pr1000
************************************************************
Dead Time -------------------------  3E-08 
Number of Cycles Used -------------  4 
Starting Wavelength (Angstroms) ---  3331 
Final Wavelength (Angstoms) -------  3351 
Wavelength Increment (Angstroms) --  .25 
Filter Wheel #1 Position ---------- (1) Ground quartz diffuser (ND=2.32)
Filter Wheel #2 Position ---------- (0) Clear Aperture



************************************************************
HL scan start time = 02:07:00
Dark Count =  8.2 


Time (GMT)  Wavelength (Ang)  Step Number  Raw Counts  Counts/Second

  127.48        3331.00           6596          71.00       273.76
  127.70        3331.25           6599          73.00       282.48
  127.73        3331.50           6603          73.00       282.48
  127.76        3331.75           6607          72.00       278.12
  127.79        3332.00           6611          73.00       282.48
  127.81        3332.25           6614          75.00       291.20
  127.84        3332.50           6618          71.00       273.76
  127.87        3332.75           6622          86.00       339.15
  127.90        3333.00           6626          76.00       295.56
  127.93        3333.25           6629          70.00       269.40
  127.96        3333.50           6633          71.00       273.76
  127.99        3333.75           6637          77.00       299.92
  128.02        3334.00           6640          76.00       295.56
  128.05        3334.25           6644          76.00       295.56
  128.08        3334.50           6648          81.00       317.35
  128.11        3334.75           6652          88.00       347.87
  128.14        3335.00           6655          87.00       343.51
  128.17        3335.25           6659         127.00       517.88
  128.20        3335.50           6663         371.00      1581.59
  128.23        3335.75           6667         990.00      4280.41
  128.26        3336.00           6670        1772.00      7690.53
  128.28        3336.25           6674        3346.00     14556.49
  128.31        3336.50           6678        5838.00     25432.65
  128.34        3336.75           6682        8843.00     38557.22
  128.37        3337.00           6685       11153.00     48653.35
  128.40        3337.25           6689       14659.00     63988.46
  128.43        3337.50           6693       18059.00     78873.43
  128.46        3337.75           6697       21954.00     95941.84
  128.49        3338.00           6700       24489.00    107060.00
  128.52        3338.25           6704       28303.00    123801.60
  128.55        3338.50           6708       31866.00    139456.70
  128.58        3338.75           6712       35660.00    156143.00
  128.61        3339.00           6715       38555.00    168886.70
  128.64        3339.25           6719       41990.00    184020.10
  128.67        3339.50           6723       45852.00    201051.20
  128.70        3339.75           6727       49422.00    216810.20
  128.72        3340.00           6730       51750.00    227094.70
  128.75        3340.25           6734       55073.00    241785.90
  128.78        3340.50           6738       58338.00    256233.30
  128.81        3340.75           6742       61115.00    268531.30
  128.84        3341.00           6745       62992.00    276848.70
  128.87        3341.25           6749       64219.00    282288.10
  128.90        3341.50           6753       64618.00    284057.30
  128.93        3341.75           6756       64048.00    281530.00
  128.96        3342.00           6760       62186.00    273276.60
  128.99        3342.25           6764       59288.00    260439.30
  129.02        3342.50           6768       56041.00    246067.90
  129.05        3342.75           6771       53981.00    236956.60
  129.08        3343.00           6775       50359.00    220948.80
  129.11        3343.25           6779       46677.00    204691.70
  129.13        3343.50           6783       43466.00    190527.10
  129.16        3343.75           6786       40579.00    177802.00
  129.19        3344.00           6790       36815.00    161226.10
  129.22        3344.25           6794       33353.00    145994.60
  129.25        3344.50           6798       29611.00    129547.00
  129.28        3344.75           6801       26710.00    116807.00
  129.31        3345.00           6805       22912.00    100142.60
  129.34        3345.25           6809       19198.00     83862.86
  129.37        3345.50           6813       15525.00     67778.48
  129.40        3345.75           6817       11858.00     51735.86
  129.43        3346.00           6820        9222.00     40213.26
  129.46        3346.25           6824        6345.00     27646.29
  129.49        3346.50           6828        3835.00     16690.13
  129.52        3346.75           6832        1981.00      8602.05
  129.55        3347.00           6835         999.00      4319.65
  129.58        3347.25           6839         389.00      1660.07
  129.61        3347.50           6843         161.00       666.10
  129.63        3347.75           6847         109.00       439.41
  129.66        3348.00           6850          87.00       343.51
  129.69        3348.25           6854          85.00       334.79
  129.72        3348.50           6858          76.00       295.56
  129.75        3348.75           6862          75.00       291.20
  129.78        3349.00           6865          78.00       304.27
  129.81        3349.25           6869          83.00       326.07
  129.84        3349.50           6873          74.00       286.84
  129.87        3349.75           6877          78.00       304.27
  129.90        3350.00           6880          78.00       304.27
  129.93        3350.25           6884          74.00       286.84
  129.96        3350.50           6888          83.00       326.07
  129.99        3350.75           6892          76.00       295.56
  130.02        3351.00           6895          66.00       251.96
HL scan finished at 02:10:51
end
************************************************************
  HL Scan of (1) Internal mercury lamp
************************************************************
Integration time is 0.2294 seconds per sample
dh010617inta 37.1 6.733 3.276626pr1000
************************************************************
Dead Time -------------------------  3E-08 
Number of Cycles Used -------------  4 
Starting Wavelength (Angstroms) ---  3331 
Final Wavelength (Angstoms) -------  3351 
Wavelength Increment (Angstroms) --  .25 
Filter Wheel #1 Position ---------- (1) Ground quartz diffuser (ND=2.32)
Filter Wheel #2 Position ---------- (0) Clear Aperture



************************************************************
HL scan start time = 21:59:06
Dark Count =  6.9 


Time (GMT)  Wavelength (Ang)  Step Number  Raw Counts  Counts/Second

 1319.59        3331.00           6596          72.00       283.79
 1319.81        3331.25           6599          69.00       270.71
 1319.84        3331.50           6603          74.00       292.50
 1319.87        3331.75           6607          77.00       305.58
 1319.90        3332.00           6611          78.00       309.94
 1319.93        3332.25           6614          69.00       270.71
 1319.96        3332.50           6618          75.00       296.86
 1319.99        3332.75           6622          74.00       292.50
 1320.02        3333.00           6626          88.00       353.53
 1320.05        3333.25           6629          78.00       309.94
 1320.08        3333.50           6633          76.00       301.22
 1320.11        3333.75           6637          81.00       323.02
 1320.14        3334.00           6640          79.00       314.30
 1320.17        3334.25           6644          81.00       323.02
 1320.20        3334.50           6648          91.00       366.61
 1320.23        3334.75           6652          91.00       366.61
 1320.26        3335.00           6655          89.00       357.89
 1320.28        3335.25           6659         123.00       506.11
 1320.31        3335.50           6663         398.00      1704.97
 1320.34        3335.75           6667        1102.00      4774.44
 1320.37        3336.00           6670        2031.00      8825.79
 1320.40        3336.25           6674        3801.00     16547.45
 1320.43        3336.50           6678        6467.00     28184.68
 1320.46        3336.75           6682        9667.00     42163.59
 1320.49        3337.00           6685       12288.00     53621.94
 1320.52        3337.25           6689       16103.00     70314.25
 1320.55        3337.50           6693       19877.00     86843.65
 1320.58        3337.75           6697       23805.00    104065.00
 1320.61        3338.00           6700       26740.00    116944.40
 1320.64        3338.25           6704       30800.00    134777.10
 1320.67        3338.50           6708       35061.00    153513.10
 1320.70        3338.75           6712       39340.00    172349.60
 1320.73        3339.00           6715       42030.00    184202.10
 1320.76        3339.25           6719       45859.00    201087.80
 1320.78        3339.50           6723       49636.00    217761.10
 1320.81        3339.75           6727       53538.00    235003.70
 1320.84        3340.00           6730       56445.00    247861.10
 1320.87        3340.25           6734       59812.00    262765.50
 1320.90        3340.50           6738       63492.00    279070.80
 1320.93        3340.75           6742       66320.00    291611.90
 1320.96        3341.00           6745       68355.00    300642.30
 1320.99        3341.25           6749       69433.00    305428.00
 1321.02        3341.50           6753       69931.00    307639.20
 1321.05        3341.75           6756       69324.00    304944.00
 1321.08        3342.00           6760       67441.00    296585.80
 1321.11        3342.25           6764       64489.00    283491.00
 1321.14        3342.50           6768       60772.00    267017.50
 1321.17        3342.75           6771       58298.00    256062.00
 1321.20        3343.00           6775       54696.00    240124.20
 1321.23        3343.25           6779       50548.00    221789.50
 1321.26        3343.50           6783       47009.00    206162.60
 1321.28        3343.75           6786       43992.00    192852.30
 1321.31        3344.00           6790       40190.00    176093.90
 1321.34        3344.25           6794       36205.00    158547.00
 1321.37        3344.50           6798       31965.00    139897.60
 1321.40        3344.75           6801       28972.00    126745.60
 1321.43        3345.00           6805       24637.00    107715.00
 1321.46        3345.25           6809       20620.00     90099.80
 1321.49        3345.50           6813       16802.00     73374.50
 1321.52        3345.75           6817       12692.00     55388.83
 1321.55        3346.00           6820       10014.00     43680.14
 1321.58        3346.25           6824        6747.00     29407.36
 1321.61        3346.50           6828        4035.00     17568.54
 1321.64        3346.75           6832        2130.00      9257.58
 1321.67        3347.00           6835        1141.00      4944.50
 1321.70        3347.25           6839         407.00      1744.21
 1321.73        3347.50           6843         178.00       745.88
 1321.76        3347.75           6847         109.00       445.08
 1321.79        3348.00           6850          94.00       379.69
 1321.82        3348.25           6854          94.00       379.69
 1321.85        3348.50           6858          81.00       323.02
 1321.88        3348.75           6862          86.00       344.82
 1321.91        3349.00           6865          81.00       323.02
 1321.93        3349.25           6869          70.00       275.07
 1321.96        3349.50           6873          92.00       370.97
 1321.99        3349.75           6877          75.00       296.86
 1322.02        3350.00           6880          87.00       349.18
 1322.05        3350.25           6884          79.00       314.30
 1322.08        3350.50           6888          75.00       296.86
 1322.11        3350.75           6892          79.00       314.30
 1322.14        3351.00           6895          67.00       261.99
HL scan finished at 22:02:59
end
