************************************************************
  HL Scan of (1) Internal mercury lamp
************************************************************
Integration time is 0.2294 seconds per sample
dh180619inta 37.1 6.733 3.123677pr1000
************************************************************
Dead Time -------------------------  3E-08 
Number of Cycles Used -------------  4 
Starting Wavelength (Angstroms) ---  3331 
Final Wavelength (Angstoms) -------  3351 
Wavelength Increment (Angstroms) --  .25 
Filter Wheel #1 Position ---------- (1) Ground quartz diffuser (ND=2.32)
Filter Wheel #2 Position ---------- (0) Clear Aperture



************************************************************
HL scan start time = 03:25:04
Dark Count =  7.9 


Time (GMT)  Wavelength (Ang)  Step Number  Raw Counts  Counts/Second

  205.57        3331.00           6596          53.00       196.60
  205.79        3331.25           6599          66.00       253.27
  205.83        3331.50           6603          57.00       214.04
  205.86        3331.75           6607          51.00       187.88
  205.90        3332.00           6611          58.00       218.40
  205.93        3332.25           6614          70.00       270.71
  205.97        3332.50           6618          66.00       253.27
  206.00        3332.75           6622          66.00       253.27
  206.04        3333.00           6626          78.00       305.58
  206.07        3333.25           6629          64.00       244.55
  206.11        3333.50           6633          61.00       231.48
  206.14        3333.75           6637          57.00       214.04
  206.17        3334.00           6640          60.00       227.12
  206.21        3334.25           6644          60.00       227.12
  206.24        3334.50           6648          69.00       266.35
  206.28        3334.75           6652          79.00       309.94
  206.31        3335.00           6655          78.00       305.58
  206.35        3335.25           6659         108.00       436.36
  206.38        3335.50           6663         310.00      1316.97
  206.42        3335.75           6667         912.00      3941.62
  206.45        3336.00           6670        1708.00      7412.72
  206.49        3336.25           6674        3250.00     14138.95
  206.52        3336.50           6678        5375.00     23412.69
  206.55        3336.75           6682        8348.00     36395.86
  206.59        3337.00           6685       10639.00     46407.63
  206.62        3337.25           6689       13896.00     60651.23
  206.66        3337.50           6693       17322.00     75647.06
  206.69        3337.75           6697       20736.00     90603.83
  206.73        3338.00           6700       23225.00    101516.60
  206.76        3338.25           6704       26799.00    117199.10
  206.80        3338.50           6708       30406.00    133041.20
  206.83        3338.75           6712       33903.00    148414.80
  206.87        3339.00           6715       36612.00    160333.90
  206.90        3339.25           6719       39928.00    174935.30
  206.94        3339.50           6723       43157.00    189165.90
  206.97        3339.75           6727       46691.00    204754.80
  207.01        3340.00           6730       49089.00    215340.90
  207.04        3340.25           6734       52399.00    229964.20
  207.08        3340.50           6738       55233.00    242494.90
  207.11        3340.75           6742       57671.00    253282.10
  207.15        3341.00           6745       59421.00    261029.60
  207.18        3341.25           6749       60508.00    265843.70
  207.22        3341.50           6753       60641.00    266432.80
  207.25        3341.75           6756       60110.00    264080.90
  207.29        3342.00           6760       58302.00    256075.20
  207.32        3342.25           6764       55509.00    243715.70
  207.36        3342.50           6768       52634.00    231002.90
  207.39        3342.75           6771       50483.00    221497.90
  207.43        3343.00           6775       46921.00    205769.80
  207.46        3343.25           6779       43972.00    192759.70
  207.50        3343.50           6783       40333.00    176719.50
  207.53        3343.75           6786       38096.00    166866.80
  207.57        3344.00           6790       34526.00    151155.10
  207.60        3344.25           6794       31094.00    136064.70
  207.64        3344.50           6798       27546.00    120478.70
  207.67        3344.75           6801       24850.00    108645.20
  207.71        3345.00           6805       21035.00     91914.38
  207.74        3345.25           6809       17675.00     77192.93
  207.78        3345.50           6813       13992.00     61071.24
  207.81        3345.75           6817       10920.00     47636.03
  207.85        3346.00           6820        8512.00     37112.35
  207.88        3346.25           6824        5746.00     25032.30
  207.92        3346.50           6828        3402.00     14802.12
  207.95        3346.75           6832        1766.00      7665.67
  207.99        3347.00           6835         845.00      3649.48
  208.02        3347.25           6839         310.00      1316.97
  208.06        3347.50           6843         135.00       554.06
  208.09        3347.75           6847          89.00       353.53
  208.13        3348.00           6850          70.00       270.71
  208.16        3348.25           6854          69.00       266.35
  208.20        3348.50           6858          66.00       253.27
  208.23        3348.75           6862          59.00       222.76
  208.27        3349.00           6865          66.00       253.27
  208.31        3349.25           6869          65.00       248.91
  208.34        3349.50           6873          58.00       218.40
  208.37        3349.75           6877          65.00       248.91
  208.41        3350.00           6880          65.00       248.91
  208.44        3350.25           6884          58.00       218.40
  208.48        3350.50           6888          70.00       270.71
  208.51        3350.75           6892          70.00       270.71
  208.55        3351.00           6895          66.00       253.27
HL scan finished at 03:29:24
end
