************************************************************
  HL Scan of (1) Internal mercury lamp
************************************************************
Integration time is 0.2294 seconds per sample
dh170619inta 37.1 6.733 3.154267pr1000
************************************************************
Dead Time -------------------------  3E-08 
Number of Cycles Used -------------  4 
Starting Wavelength (Angstroms) ---  3331 
Final Wavelength (Angstoms) -------  3351 
Wavelength Increment (Angstroms) --  .25 
Filter Wheel #1 Position ---------- (1) Ground quartz diffuser (ND=2.32)
Filter Wheel #2 Position ---------- (0) Clear Aperture



************************************************************
HL scan start time = 22:02:00
Dark Count =  5.6 


Time (GMT)  Wavelength (Ang)  Step Number  Raw Counts  Counts/Second

 1322.50        3331.00           6596          57.00       224.06
 1322.73        3331.25           6599          55.00       215.35
 1322.76        3331.50           6603          60.00       237.14
 1322.80        3331.75           6607          65.00       258.94
 1322.83        3332.00           6611          53.00       206.63
 1322.87        3332.25           6614          56.00       219.71
 1322.90        3332.50           6618          58.00       228.42
 1322.94        3332.75           6622          52.00       202.27
 1322.97        3333.00           6626          65.00       258.94
 1323.01        3333.25           6629          66.00       263.30
 1323.04        3333.50           6633          62.00       245.86
 1323.08        3333.75           6637          57.00       224.06
 1323.11        3334.00           6640          64.00       254.58
 1323.15        3334.25           6644          68.00       272.02
 1323.18        3334.50           6648          64.00       254.58
 1323.22        3334.75           6652          78.00       315.61
 1323.25        3335.00           6655          75.00       302.53
 1323.29        3335.25           6659          98.00       402.79
 1323.32        3335.50           6663         308.00      1318.27
 1323.36        3335.75           6667         897.00      3886.24
 1323.39        3336.00           6670        1714.00      7448.92
 1323.43        3336.25           6674        3187.00     13874.13
 1323.46        3336.50           6678        5351.00     23317.96
 1323.50        3336.75           6682        8293.00     36165.63
 1323.53        3337.00           6685       10542.00     45993.67
 1323.57        3337.25           6689       13778.00     60145.04
 1323.60        3337.50           6693       17128.00     74807.63
 1323.64        3337.75           6697       20531.00     89715.42
 1323.67        3338.00           6700       23284.00    101785.50
 1323.71        3338.25           6704       26673.00    116656.00
 1323.74        3338.50           6708       30281.00    132502.10
 1323.78        3338.75           6712       33965.00    148697.60
 1323.81        3339.00           6715       36442.00    159595.70
 1323.85        3339.25           6719       39913.00    174879.30
 1323.88        3339.50           6723       42927.00    188162.00
 1323.92        3339.75           6727       46381.00    203396.90
 1323.95        3340.00           6730       48997.00    214944.80
 1323.99        3340.25           6734       51933.00    227914.80
 1324.02        3340.50           6738       55061.00    241744.30
 1324.05        3340.75           6742       57797.00    253850.00
 1324.09        3341.00           6745       59295.00    260481.80
 1324.13        3341.25           6749       60497.00    265805.10
 1324.16        3341.50           6753       60612.00    266314.50
 1324.20        3341.75           6756       59947.00    263369.10
 1324.23        3342.00           6760       58335.00    256231.50
 1324.27        3342.25           6764       55684.00    244500.00
 1324.30        3342.50           6768       52921.00    232281.70
 1324.34        3342.75           6771       50241.00    220439.00
 1324.37        3343.00           6775       47209.00    207051.10
 1324.41        3343.25           6779       43807.00    192042.20
 1324.44        3343.50           6783       40508.00    177500.60
 1324.48        3343.75           6786       38011.00    166502.70
 1324.51        3344.00           6790       34628.00    151613.90
 1324.55        3344.25           6794       31091.00    136061.70
 1324.58        3344.50           6798       27617.00    120800.50
 1324.62        3344.75           6801       24807.00    108466.60
 1324.65        3345.00           6805       20904.00     91350.27
 1324.69        3345.25           6809       17615.00     76940.25
 1324.72        3345.50           6813       14261.00     62258.29
 1324.76        3345.75           6817       10893.00     47528.05
 1324.79        3346.00           6820        8437.00     36794.74
 1324.83        3346.25           6824        5632.00     24544.66
 1324.86        3346.50           6828        3241.00     14109.72
 1324.90        3346.75           6832        1720.00      7475.08
 1324.93        3347.00           6835         899.00      3894.96
 1324.97        3347.25           6839         328.00      1405.46
 1325.00        3347.50           6843         151.00       633.84
 1325.04        3347.75           6847          90.00       367.92
 1325.07        3348.00           6850          78.00       315.61
 1325.11        3348.25           6854          81.00       328.69
 1325.14        3348.50           6858          69.00       276.38
 1325.18        3348.75           6862          67.00       267.66
 1325.21        3349.00           6865          64.00       254.58
 1325.25        3349.25           6869          65.00       258.94
 1325.28        3349.50           6873          63.00       250.22
 1325.32        3349.75           6877          65.00       258.94
 1325.35        3350.00           6880          71.00       285.09
 1325.39        3350.25           6884          61.00       241.50
 1325.42        3350.50           6888          63.00       250.22
 1325.46        3350.75           6892          68.00       272.02
 1325.49        3351.00           6895          64.00       254.58
HL scan finished at 22:06:21
end
