************************************************************
  HL Scan of (1) Internal mercury lamp
************************************************************
Integration time is 0.2294 seconds per sample
dh210619inta 37.1 6.733 3.159365pr1000
************************************************************
Dead Time -------------------------  3E-08 
Number of Cycles Used -------------  4 
Starting Wavelength (Angstroms) ---  3331 
Final Wavelength (Angstoms) -------  3351 
Wavelength Increment (Angstroms) --  .25 
Filter Wheel #1 Position ---------- (1) Ground quartz diffuser (ND=2.32)
Filter Wheel #2 Position ---------- (0) Clear Aperture



************************************************************
HL scan start time = 02:21:32
Dark Count =  6.2 


Time (GMT)  Wavelength (Ang)  Step Number  Raw Counts  Counts/Second

  142.03        3331.00           6596          70.00       278.12
  142.26        3331.25           6599          59.00       230.17
  142.29        3331.50           6603          59.00       230.17
  142.33        3331.75           6607          58.00       225.81
  142.36        3332.00           6611          52.00       199.65
  142.40        3332.25           6614          57.00       221.45
  142.43        3332.50           6618          69.00       273.76
  142.47        3332.75           6622          61.00       238.89
  142.50        3333.00           6626          60.00       234.53
  142.54        3333.25           6629          51.00       195.29
  142.57        3333.50           6633          59.00       230.17
  142.61        3333.75           6637          64.00       251.96
  142.64        3334.00           6640          57.00       221.45
  142.68        3334.25           6644          63.00       247.60
  142.71        3334.50           6648          70.00       278.12
  142.74        3334.75           6652          79.00       317.35
  142.78        3335.00           6655          76.00       304.27
  142.81        3335.25           6659         114.00       469.93
  142.85        3335.50           6663         348.00      1490.04
  142.88        3335.75           6667         987.00      4276.05
  142.92        3336.00           6670        1769.00      7686.17
  142.95        3336.25           6674        3469.00     15101.87
  142.99        3336.50           6678        5863.00     25550.53
  143.02        3336.75           6682        8764.00     38220.79
  143.06        3337.00           6685       11196.00     48850.09
  143.09        3337.25           6689       14462.00     63135.15
  143.13        3337.50           6693       17920.00     78273.38
  143.16        3337.75           6697       21350.00     93302.63
  143.20        3338.00           6700       23901.00    104489.20
  143.23        3338.25           6704       27315.00    119471.90
  143.27        3338.50           6708       31294.00    136951.20
  143.30        3338.75           6712       34909.00    152847.50
  143.34        3339.00           6715       37705.00    165152.80
  143.37        3339.25           6719       41097.00    180093.30
  143.41        3339.50           6723       44439.00    194826.80
  143.44        3339.75           6727       47855.00    209900.00
  143.48        3340.00           6730       50337.00    220860.40
  143.51        3340.25           6734       53696.00    235705.30
  143.55        3340.50           6738       56713.00    249050.00
  143.58        3340.75           6742       59235.00    260213.50
  143.62        3341.00           6745       60614.00    266320.70
  143.66        3341.25           6749       62062.00    272735.90
  143.69        3341.50           6753       62358.00    274047.70
  143.73        3341.75           6756       61452.00    270033.10
  143.76        3342.00           6760       59714.00    262334.60
  143.80        3342.25           6764       56699.00    248988.10
  143.83        3342.50           6768       53852.00    236395.10
  143.87        3342.75           6771       51284.00    225044.30
  143.90        3343.00           6775       48091.00    210941.80
  143.94        3343.25           6779       44924.00    196966.00
  143.97        3343.50           6783       41296.00    180970.30
  144.01        3343.75           6786       38894.00    170388.40
  144.04        3344.00           6790       35532.00    155588.50
  144.08        3344.25           6794       32022.00    140151.30
  144.11        3344.50           6798       28162.00    123191.10
  144.15        3344.75           6801       25087.00    109692.60
  144.18        3345.00           6805       21676.00     94731.77
  144.22        3345.25           6809       18026.00     78737.65
  144.25        3345.50           6813       14452.00     63091.40
  144.29        3345.75           6817       11086.00     48369.17
  144.33        3346.00           6820        8678.00     37845.03
  144.36        3346.25           6824        5787.00     25218.72
  144.40        3346.50           6828        3454.00     15036.42
  144.43        3346.75           6832        1808.00      7856.25
  144.47        3347.00           6835         873.00      3778.98
  144.50        3347.25           6839         332.00      1420.29
  144.53        3347.50           6843         146.00       609.43
  144.57        3347.75           6847          86.00       347.87
  144.60        3348.00           6850          76.00       304.27
  144.64        3348.25           6854          79.00       317.35
  144.67        3348.50           6858          63.00       247.60
  144.71        3348.75           6862          63.00       247.60
  144.74        3349.00           6865          64.00       251.96
  144.78        3349.25           6869          64.00       251.96
  144.81        3349.50           6873          70.00       278.12
  144.85        3349.75           6877          62.00       243.24
  144.88        3350.00           6880          64.00       251.96
  144.92        3350.25           6884          63.00       247.60
  144.95        3350.50           6888          59.00       230.17
  144.99        3350.75           6892          60.00       234.53
  145.02        3351.00           6895          67.00       265.04
HL scan finished at 02:25:53
end
************************************************************
  HL Scan of (1) Internal mercury lamp
************************************************************
Integration time is 0.2294 seconds per sample
dh210619inta 37.1 6.733 3.271528pr1000
************************************************************
Dead Time -------------------------  3E-08 
Number of Cycles Used -------------  4 
Starting Wavelength (Angstroms) ---  3331 
Final Wavelength (Angstoms) -------  3351 
Wavelength Increment (Angstroms) --  .25 
Filter Wheel #1 Position ---------- (1) Ground quartz diffuser (ND=2.32)
Filter Wheel #2 Position ---------- (0) Clear Aperture



************************************************************
HL scan start time = 22:01:59
Dark Count =  6.4 


Time (GMT)  Wavelength (Ang)  Step Number  Raw Counts  Counts/Second

 1322.48        3331.00           6596          63.00       246.73
 1322.70        3331.25           6599          65.00       255.45
 1322.74        3331.50           6603          61.00       238.01
 1322.78        3331.75           6607          68.00       268.53
 1322.81        3332.00           6611          70.00       277.25
 1322.85        3332.25           6614          57.00       220.58
 1322.88        3332.50           6618          55.00       211.86
 1322.92        3332.75           6622          64.00       251.09
 1322.95        3333.00           6626          66.00       259.81
 1322.99        3333.25           6629          63.00       246.73
 1323.02        3333.50           6633          66.00       259.81
 1323.06        3333.75           6637          62.00       242.37
 1323.09        3334.00           6640          64.00       251.09
 1323.13        3334.25           6644          64.00       251.09
 1323.16        3334.50           6648          70.00       277.25
 1323.20        3334.75           6652          79.00       316.48
 1323.23        3335.00           6655          79.00       316.48
 1323.27        3335.25           6659         111.00       455.98
 1323.30        3335.50           6663         379.00      1624.32
 1323.34        3335.75           6667        1047.00      4536.80
 1323.37        3336.00           6670        1954.00      8492.14
 1323.40        3336.25           6674        3699.00     16104.55
 1323.44        3336.50           6678        6136.00     26741.59
 1323.47        3336.75           6682        9270.00     40430.87
 1323.51        3337.00           6685       11675.00     50943.54
 1323.54        3337.25           6689       15321.00     66893.47
 1323.58        3337.50           6693       18783.00     82052.64
 1323.61        3337.75           6697       22541.00     98523.55
 1323.65        3338.00           6700       25500.00    111504.00
 1323.68        3338.25           6704       29359.00    128447.80
 1323.72        3338.50           6708       33200.00    145329.70
 1323.75        3338.75           6712       37361.00    163637.40
 1323.79        3339.00           6715       40136.00    175858.20
 1323.82        3339.25           6719       43706.00    191593.30
 1323.86        3339.50           6723       47527.00    208451.20
 1323.89        3339.75           6727       50882.00    223267.20
 1323.93        3340.00           6730       53692.00    235686.70
 1323.96        3340.25           6734       56998.00    250310.20
 1324.00        3340.50           6738       60404.00    265389.70
 1324.03        3340.75           6742       63239.00    277951.50
 1324.07        3341.00           6745       65015.00    285825.70
 1324.10        3341.25           6749       66279.00    291432.30
 1324.14        3341.50           6753       66236.00    291241.50
 1324.17        3341.75           6756       65579.00    288327.20
 1324.21        3342.00           6760       63826.00    280553.60
 1324.24        3342.25           6764       60851.00    267369.70
 1324.28        3342.50           6768       57566.00    252824.00
 1324.31        3342.75           6771       54820.00    240674.80
 1324.35        3343.00           6775       51339.00    225286.40
 1324.38        3343.25           6779       47751.00    209440.00
 1324.42        3343.50           6783       44122.00    193427.80
 1324.45        3343.75           6786       41526.00    181983.00
 1324.49        3344.00           6790       37782.00    165490.90
 1324.52        3344.25           6794       33790.00    147924.40
 1324.56        3344.50           6798       30121.00    131795.60
 1324.59        3344.75           6801       26934.00    117798.30
 1324.63        3345.00           6805       22965.00    100382.90
 1324.66        3345.25           6809       19077.00     83340.62
 1324.70        3345.50           6813       15367.00     67094.80
 1324.73        3345.75           6817       11944.00     52119.79
 1324.77        3346.00           6820        9423.00     41099.46
 1324.80        3346.25           6824        6236.00     27178.21
 1324.84        3346.50           6828        3676.00     16004.19
 1324.87        3346.75           6832        1858.00      8073.44
 1324.91        3347.00           6835         918.00      3974.32
 1324.94        3347.25           6839         330.00      1410.70
 1324.98        3347.50           6843         142.00       591.12
 1325.01        3347.75           6847          86.00       347.00
 1325.05        3348.00           6850          81.00       325.20
 1325.08        3348.25           6854          70.00       277.25
 1325.12        3348.50           6858          79.00       316.48
 1325.15        3348.75           6862          64.00       251.09
 1325.19        3349.00           6865          59.00       229.30
 1325.22        3349.25           6869          58.00       224.94
 1325.25        3349.50           6873          66.00       259.81
 1325.29        3349.75           6877          72.00       285.97
 1325.32        3350.00           6880          71.00       281.61
 1325.36        3350.25           6884          60.00       233.65
 1325.39        3350.50           6888          65.00       255.45
 1325.43        3350.75           6892          69.00       272.89
 1325.46        3351.00           6895          61.00       238.01
HL scan finished at 22:06:19
end
