************************************************************
  HL Scan of (1) Internal mercury lamp
************************************************************
Integration time is 0.2294 seconds per sample
dh200619inta 37.1 6.733 3.17466pr1000
************************************************************
Dead Time -------------------------  3E-08 
Number of Cycles Used -------------  4 
Starting Wavelength (Angstroms) ---  3331 
Final Wavelength (Angstoms) -------  3351 
Wavelength Increment (Angstroms) --  .25 
Filter Wheel #1 Position ---------- (1) Ground quartz diffuser (ND=2.32)
Filter Wheel #2 Position ---------- (0) Clear Aperture



************************************************************
HL scan start time = 02:21:29
Dark Count =  5.8 


Time (GMT)  Wavelength (Ang)  Step Number  Raw Counts  Counts/Second

  141.98        3331.00           6596          61.00       240.63
  142.21        3331.25           6599          64.00       253.71
  142.24        3331.50           6603          52.00       201.40
  142.28        3331.75           6607          59.00       231.91
  142.31        3332.00           6611          63.00       249.35
  142.35        3332.25           6614          68.00       271.14
  142.38        3332.50           6618          63.00       249.35
  142.42        3332.75           6622          65.00       258.07
  142.45        3333.00           6626          60.00       236.27
  142.49        3333.25           6629          62.00       244.99
  142.52        3333.50           6633          61.00       240.63
  142.56        3333.75           6637          59.00       231.91
  142.59        3334.00           6640          56.00       218.83
  142.63        3334.25           6644          60.00       236.27
  142.66        3334.50           6648          72.00       288.58
  142.69        3334.75           6652          63.00       249.35
  142.73        3335.00           6655          73.00       292.94
  142.76        3335.25           6659         105.00       432.44
  142.80        3335.50           6663         365.00      1565.90
  142.83        3335.75           6667        1036.00      4491.45
  142.87        3336.00           6670        1889.00      8211.26
  142.90        3336.25           6674        3607.00     15705.74
  142.94        3336.50           6678        5931.00     25849.15
  142.98        3336.75           6682        9003.00     39266.80
  143.01        3337.00           6685       11345.00     49503.28
  143.05        3337.25           6689       14613.00     63797.67
  143.08        3337.50           6693       18221.00     79593.49
  143.11        3337.75           6697       21762.00     95110.55
  143.15        3338.00           6700       24360.00    106504.50
  143.18        3338.25           6704       28012.00    122534.20
  143.22        3338.50           6708       31814.00    139238.60
  143.25        3338.75           6712       35327.00    154688.30
  143.29        3339.00           6715       38305.00    167796.30
  143.32        3339.25           6719       41824.00    183299.00
  143.36        3339.50           6723       45244.00    198379.40
  143.39        3339.75           6727       48673.00    213513.20
  143.43        3340.00           6730       51112.00    224286.10
  143.46        3340.25           6734       54306.00    238404.30
  143.50        3340.50           6738       57454.00    252331.00
  143.53        3340.75           6742       60221.00    264581.70
  143.57        3341.00           6745       62141.00    273087.80
  143.60        3341.25           6749       63215.00    277847.70
  143.64        3341.50           6753       63306.00    278251.10
  143.67        3341.75           6756       62632.00    275263.70
  143.71        3342.00           6760       60715.00    266769.90
  143.74        3342.25           6764       57769.00    253725.10
  143.78        3342.50           6768       54996.00    241455.90
  143.81        3342.75           6771       52607.00    230892.80
  143.85        3343.00           6775       48963.00    214793.70
  143.88        3343.25           6779       45569.00    199813.20
  143.92        3343.50           6783       42024.00    184180.50
  143.95        3343.75           6786       39746.00    174142.80
  143.99        3344.00           6790       35929.00    157337.20
  144.02        3344.25           6794       32362.00    141647.70
  144.06        3344.50           6798       28587.00    125059.40
  144.09        3344.75           6801       25677.00    112283.40
  144.13        3345.00           6805       21908.00     95750.66
  144.16        3345.25           6809       18169.00     79365.72
  144.20        3345.50           6813       14528.00     63425.71
  144.23        3345.75           6817       11196.00     48851.83
  144.27        3346.00           6820        8673.00     37824.94
  144.30        3346.25           6824        5815.00     25342.71
  144.34        3346.50           6828        3431.00     14937.82
  144.37        3346.75           6832        1712.00      7439.32
  144.41        3347.00           6835         812.00      3514.76
  144.44        3347.25           6839         316.00      1352.28
  144.48        3347.50           6843         135.00       563.22
  144.51        3347.75           6847          85.00       345.25
  144.55        3348.00           6850          77.00       310.38
  144.58        3348.25           6854          71.00       284.22
  144.62        3348.50           6858          69.00       275.50
  144.65        3348.75           6862          66.00       262.43
  144.69        3349.00           6865          55.00       214.47
  144.73        3349.25           6869          59.00       231.91
  144.76        3349.50           6873          69.00       275.50
  144.80        3349.75           6877          61.00       240.63
  144.83        3350.00           6880          67.00       266.79
  144.86        3350.25           6884          64.00       253.71
  144.90        3350.50           6888          67.00       266.79
  144.93        3350.75           6892          59.00       231.91
  144.97        3351.00           6895          62.00       244.99
HL scan finished at 02:25:49
end
