************************************************************
  HL Scan of (1) Internal mercury lamp
************************************************************
Integration time is 0.2294 seconds per sample
dh230619inta 37.1 6.733 3.179758pr1000
************************************************************
Dead Time -------------------------  3E-08 
Number of Cycles Used -------------  4 
Starting Wavelength (Angstroms) ---  3331 
Final Wavelength (Angstoms) -------  3351 
Wavelength Increment (Angstroms) --  .25 
Filter Wheel #1 Position ---------- (1) Ground quartz diffuser (ND=2.32)
Filter Wheel #2 Position ---------- (0) Clear Aperture



************************************************************
HL scan start time = 02:22:35
Dark Count =  6.3 


Time (GMT)  Wavelength (Ang)  Step Number  Raw Counts  Counts/Second

  143.09        3331.00           6596          61.00       238.45
  143.32        3331.25           6599          60.00       234.09
  143.35        3331.50           6603          63.00       247.17
  143.39        3331.75           6607          50.00       190.50
  143.42        3332.00           6611          60.00       234.09
  143.46        3332.25           6614          53.00       203.58
  143.49        3332.50           6618          61.00       238.45
  143.53        3332.75           6622          59.00       229.73
  143.56        3333.00           6626          67.00       264.61
  143.60        3333.25           6629          65.00       255.89
  143.63        3333.50           6633          71.00       282.04
  143.67        3333.75           6637          58.00       225.37
  143.70        3334.00           6640          63.00       247.17
  143.73        3334.25           6644          61.00       238.45
  143.77        3334.50           6648          68.00       268.96
  143.80        3334.75           6652          76.00       303.84
  143.84        3335.00           6655          74.00       295.12
  143.87        3335.25           6659         114.00       469.49
  143.91        3335.50           6663         369.00      1581.16
  143.94        3335.75           6667        1022.00      4428.23
  143.98        3336.00           6670        1881.00      8174.19
  144.01        3336.25           6674        3588.00     15620.65
  144.05        3336.50           6678        5953.00     25943.02
  144.08        3336.75           6682        8996.00     39234.03
  144.12        3337.00           6685       11507.00     50209.40
  144.15        3337.25           6689       14919.00     65134.55
  144.19        3337.50           6693       18462.00     80646.93
  144.23        3337.75           6697       21764.00     95117.13
  144.26        3338.00           6700       24705.00    108016.00
  144.29        3338.25           6704       28435.00    124389.60
  144.33        3338.50           6708       32142.00    140678.30
  144.36        3338.75           6712       35807.00    156798.20
  144.40        3339.00           6715       38563.00    168930.20
  144.43        3339.25           6719       42381.00    185751.90
  144.47        3339.50           6723       45607.00    199978.60
  144.50        3339.75           6727       49269.00    216142.80
  144.54        3340.00           6730       52119.00    228733.80
  144.57        3340.25           6734       55131.00    242050.70
  144.61        3340.50           6738       58154.00    255427.10
  144.64        3340.75           6742       61066.00    268322.60
  144.68        3341.00           6745       62598.00    275110.90
  144.71        3341.25           6749       64003.00    281338.80
  144.75        3341.50           6753       64215.00    282278.80
  144.78        3341.75           6756       63457.00    278918.30
  144.82        3342.00           6760       61641.00    270870.00
  144.85        3342.25           6764       58792.00    258251.50
  144.89        3342.50           6768       55484.00    243612.20
  144.93        3342.75           6771       53002.00    232636.70
  144.96        3343.00           6775       49795.00    218465.90
  145.00        3343.25           6779       46104.00    202171.50
  145.03        3343.50           6783       42964.00    188322.10
  145.07        3343.75           6786       39885.00    174752.90
  145.10        3344.00           6790       36500.00    159847.90
  145.14        3344.25           6794       32882.00    143931.80
  145.17        3344.50           6798       28975.00    126761.40
  145.21        3344.75           6801       26139.00    114308.90
  145.24        3345.00           6805       22178.00     96932.28
  145.28        3345.25           6809       18520.00     80900.99
  145.31        3345.50           6813       14770.00     64482.51
  145.35        3345.75           6817       11578.00     50519.83
  145.38        3346.00           6820        8830.00     38508.72
  145.42        3346.25           6824        6020.00     26235.55
  145.45        3346.50           6828        3609.00     15712.29
  145.48        3346.75           6832        1792.00      7786.04
  145.52        3347.00           6835         911.00      3944.23
  145.55        3347.25           6839         344.00      1472.17
  145.59        3347.50           6843         142.00       591.55
  145.62        3347.75           6847          82.00       329.99
  145.66        3348.00           6850          86.00       347.43
  145.69        3348.25           6854          74.00       295.12
  145.73        3348.50           6858          83.00       334.35
  145.76        3348.75           6862          59.00       229.73
  145.80        3349.00           6865          65.00       255.89
  145.83        3349.25           6869          78.00       312.56
  145.87        3349.50           6873          68.00       268.96
  145.90        3349.75           6877          69.00       273.32
  145.94        3350.00           6880          63.00       247.17
  145.97        3350.25           6884          60.00       234.09
  146.00        3350.50           6888          63.00       247.17
  146.04        3350.75           6892          64.00       251.53
  146.07        3351.00           6895          59.00       229.73
HL scan finished at 02:26:55
end
