************************************************************
  HL Scan of (1) Internal mercury lamp
************************************************************
Integration time is 0.2294 seconds per sample
dh240619inta 37.1 6.733 3.200152pr1000
************************************************************
Dead Time -------------------------  3E-08 
Number of Cycles Used -------------  4 
Starting Wavelength (Angstroms) ---  3331 
Final Wavelength (Angstoms) -------  3351 
Wavelength Increment (Angstroms) --  .25 
Filter Wheel #1 Position ---------- (1) Ground quartz diffuser (ND=2.32)
Filter Wheel #2 Position ---------- (0) Clear Aperture



************************************************************
HL scan start time = 02:22:37
Dark Count =  6.4 


Time (GMT)  Wavelength (Ang)  Step Number  Raw Counts  Counts/Second

  143.12        3331.00           6596          59.00       229.30
  143.35        3331.25           6599          63.00       246.73
  143.38        3331.50           6603          70.00       277.25
  143.42        3331.75           6607          62.00       242.37
  143.45        3332.00           6611          65.00       255.45
  143.49        3332.25           6614          64.00       251.09
  143.52        3332.50           6618          63.00       246.73
  143.56        3332.75           6622          65.00       255.45
  143.59        3333.00           6626          55.00       211.86
  143.63        3333.25           6629          52.00       198.78
  143.66        3333.50           6633          65.00       255.45
  143.69        3333.75           6637          64.00       251.09
  143.73        3334.00           6640          66.00       259.81
  143.76        3334.25           6644          62.00       242.37
  143.80        3334.50           6648          65.00       255.45
  143.83        3334.75           6652          68.00       268.53
  143.87        3335.00           6655          90.00       364.43
  143.90        3335.25           6659         116.00       477.77
  143.94        3335.50           6663         330.00      1410.70
  143.97        3335.75           6667        1015.00      4397.27
  144.01        3336.00           6670        1893.00      8226.09
  144.04        3336.25           6674        3506.00     15262.43
  144.08        3336.50           6678        5879.00     25619.51
  144.11        3336.75           6682        9111.00     39736.09
  144.15        3337.00           6685       11475.00     50069.04
  144.18        3337.25           6689       14786.00     64552.09
  144.22        3337.50           6693       18478.00     80716.57
  144.25        3337.75           6697       22091.00     96550.38
  144.29        3338.00           6700       24912.00    108923.80
  144.32        3338.25           6704       28733.00    125698.00
  144.36        3338.50           6708       32375.00    141702.20
  144.39        3338.75           6712       36210.00    158571.20
  144.43        3339.00           6715       39068.00    171153.80
  144.46        3339.25           6719       42784.00    187528.00
  144.50        3339.50           6723       46069.00    202016.60
  144.53        3339.75           6727       49802.00    218496.40
  144.57        3340.00           6730       52448.00    230187.40
  144.60        3340.25           6734       55737.00    244730.90
  144.64        3340.50           6738       58774.00    258171.40
  144.67        3340.75           6742       61447.00    270010.10
  144.71        3341.00           6745       63392.00    278629.70
  144.74        3341.25           6749       64659.00    284247.10
  144.78        3341.50           6753       64623.00    284087.50
  144.81        3341.75           6756       63872.00    280757.60
  144.85        3342.00           6760       62104.00    272921.20
  144.88        3342.25           6764       59278.00    260403.00
  144.91        3342.50           6768       55821.00    245102.50
  144.95        3342.75           6771       53606.00    235306.50
  144.99        3343.00           6775       50295.00    220674.00
  145.02        3343.25           6779       46652.00    204589.30
  145.05        3343.50           6783       43001.00    188484.80
  145.09        3343.75           6786       40385.00    176955.20
  145.13        3344.00           6790       36854.00    161405.60
  145.16        3344.25           6794       33110.00    144933.90
  145.20        3344.50           6798       29049.00    127086.00
  145.23        3344.75           6801       26356.00    115261.00
  145.27        3345.00           6805       22308.00     97501.85
  145.30        3345.25           6809       18741.00     81868.66
  145.34        3345.50           6813       14823.00     64714.00
  145.37        3345.75           6817       11649.00     50829.84
  145.41        3346.00           6820        8969.00     39115.61
  145.44        3346.25           6824        6066.00     26435.95
  145.48        3346.50           6828        3607.00     15703.12
  145.51        3346.75           6832        1772.00      7698.38
  145.55        3347.00           6835         915.00      3961.24
  145.58        3347.25           6839         314.00      1340.94
  145.62        3347.50           6843         149.00       621.63
  145.65        3347.75           6847          79.00       316.48
  145.69        3348.00           6850          79.00       316.48
  145.72        3348.25           6854          75.00       299.04
  145.76        3348.50           6858          71.00       281.61
  145.79        3348.75           6862          72.00       285.97
  145.83        3349.00           6865          66.00       259.81
  145.86        3349.25           6869          61.00       238.01
  145.90        3349.50           6873          62.00       242.37
  145.93        3349.75           6877          70.00       277.25
  145.97        3350.00           6880          63.00       246.73
  146.00        3350.25           6884          63.00       246.73
  146.04        3350.50           6888          65.00       255.45
  146.07        3350.75           6892          72.00       285.97
  146.11        3351.00           6895          58.00       224.94
HL scan finished at 02:26:57
end
************************************************************
  HL Scan of (1) Internal mercury lamp
************************************************************
Integration time is 0.2294 seconds per sample
dh240619inta 37.1 6.733 3.240938pr1000
************************************************************
Dead Time -------------------------  3E-08 
Number of Cycles Used -------------  4 
Starting Wavelength (Angstroms) ---  3331 
Final Wavelength (Angstoms) -------  3351 
Wavelength Increment (Angstroms) --  .25 
Filter Wheel #1 Position ---------- (1) Ground quartz diffuser (ND=2.32)
Filter Wheel #2 Position ---------- (0) Clear Aperture



************************************************************
HL scan start time = 20:53:23
Dark Count =  5.2 


Time (GMT)  Wavelength (Ang)  Step Number  Raw Counts  Counts/Second

 1253.89        3331.00           6596          66.00       265.04
 1254.11        3331.25           6599          63.00       251.96
 1254.15        3331.50           6603          64.00       256.32
 1254.18        3331.75           6607          64.00       256.32
 1254.22        3332.00           6611          59.00       234.53
 1254.25        3332.25           6614          62.00       247.60
 1254.28        3332.50           6618          63.00       251.96
 1254.32        3332.75           6622          67.00       269.40
 1254.35        3333.00           6626          61.00       243.24
 1254.39        3333.25           6629          69.00       278.12
 1254.42        3333.50           6633          66.00       265.04
 1254.46        3333.75           6637          70.00       282.48
 1254.49        3334.00           6640          65.00       260.68
 1254.53        3334.25           6644          69.00       278.12
 1254.56        3334.50           6648          70.00       282.48
 1254.60        3334.75           6652          79.00       321.71
 1254.63        3335.00           6655          78.00       317.35
 1254.67        3335.25           6659         121.00       504.80
 1254.70        3335.50           6663         421.00      1812.65
 1254.74        3335.75           6667        1159.00      5030.40
 1254.77        3336.00           6670        2128.00      9256.27
 1254.80        3336.25           6674        4015.00     17488.68
 1254.84        3336.50           6678        6560.00     28598.20
 1254.88        3336.75           6682       10002.00     43635.12
 1254.91        3337.00           6685       12656.00     55238.80
 1254.94        3337.25           6689       16366.00     71473.06
 1254.98        3337.50           6693       20342.00     88888.84
 1255.01        3337.75           6697       24055.00    105169.10
 1255.05        3338.00           6700       27028.00    118216.20
 1255.08        3338.25           6704       31076.00    135997.50
 1255.12        3338.50           6708       35185.00    154066.10
 1255.15        3338.75           6712       39244.00    171934.30
 1255.19        3339.00           6715       42202.00    184967.80
 1255.22        3339.25           6719       46240.00    202776.40
 1255.26        3339.50           6723       49990.00    219332.10
 1255.29        3339.75           6727       54019.00    237137.90
 1255.33        3340.00           6730       56485.00    248045.60
 1255.36        3340.25           6734       60095.00    264026.40
 1255.40        3340.50           6738       63440.00    278847.80
 1255.43        3340.75           6742       66303.00    291544.00
 1255.47        3341.00           6745       68222.00    300059.50
 1255.50        3341.25           6749       69584.00    306105.90
 1255.54        3341.50           6753       69728.00    306745.30
 1255.57        3341.75           6756       68717.00    302256.70
 1255.60        3342.00           6760       66714.00    293367.50
 1255.64        3342.25           6764       63826.00    280559.00
 1255.67        3342.50           6768       60256.00    264739.50
 1255.71        3342.75           6771       57623.00    253081.60
 1255.74        3343.00           6775       53752.00    235957.30
 1255.78        3343.25           6779       49952.00    219164.30
 1255.81        3343.50           6783       46012.00    201770.40
 1255.85        3343.75           6786       43610.00    191175.30
 1255.88        3344.00           6790       39485.00    172995.80
 1255.92        3344.25           6794       35511.00    155500.50
 1255.95        3344.50           6798       31462.00    137694.00
 1255.99        3344.75           6801       28216.00    123432.70
 1256.02        3345.00           6805       24007.00    104958.60
 1256.06        3345.25           6809       19907.00     86982.57
 1256.09        3345.50           6813       16066.00     70159.71
 1256.13        3345.75           6817       12285.00     53616.24
 1256.16        3346.00           6820        9797.00     42739.16
 1256.20        3346.25           6824        6485.00     28270.69
 1256.23        3346.50           6828        3815.00     16615.95
 1256.27        3346.75           6832        1909.00      8301.11
 1256.30        3347.00           6835         951.00      4123.44
 1256.34        3347.25           6839         341.00      1463.88
 1256.37        3347.50           6843         150.00       631.22
 1256.41        3347.75           6847          99.00       408.90
 1256.44        3348.00           6850          81.00       330.43
 1256.48        3348.25           6854          76.00       308.63
 1256.51        3348.50           6858          68.00       273.76
 1256.55        3348.75           6862          68.00       273.76
 1256.58        3349.00           6865          63.00       251.96
 1256.61        3349.25           6869          69.00       278.12
 1256.65        3349.50           6873          68.00       273.76
 1256.68        3349.75           6877          70.00       282.48
 1256.72        3350.00           6880          72.00       291.20
 1256.75        3350.25           6884          74.00       299.92
 1256.79        3350.50           6888          69.00       278.12
 1256.82        3350.75           6892          65.00       260.68
 1256.85        3351.00           6895          63.00       251.96
HL scan finished at 20:57:43
end
