************************************************************
  HL Scan of (1) Internal mercury lamp
************************************************************
Integration time is 0.2294 seconds per sample
dh200619inta 37.1 6.733 3.17466pr1000
************************************************************
Dead Time -------------------------  3E-08 
Number of Cycles Used -------------  4 
Starting Wavelength (Angstroms) ---  3331 
Final Wavelength (Angstoms) -------  3351 
Wavelength Increment (Angstroms) --  .25 
Filter Wheel #1 Position ---------- (1) Ground quartz diffuser (ND=2.32)
Filter Wheel #2 Position ---------- (0) Clear Aperture



************************************************************
HL scan start time = 02:21:29
Dark Count =  5.8 


Time (GMT)  Wavelength (Ang)  Step Number  Raw Counts  Counts/Second

  141.98        3331.00           6596          61.00       240.63
  142.21        3331.25           6599          64.00       253.71
  142.24        3331.50           6603          52.00       201.40
  142.28        3331.75           6607          59.00       231.91
  142.31        3332.00           6611          63.00       249.35
  142.35        3332.25           6614          68.00       271.14
  142.38        3332.50           6618          63.00       249.35
  142.42        3332.75           6622          65.00       258.07
  142.45        3333.00           6626          60.00       236.27
  142.49        3333.25           6629          62.00       244.99
  142.52        3333.50           6633          61.00       240.63
  142.56        3333.75           6637          59.00       231.91
  142.59        3334.00           6640          56.00       218.83
  142.63        3334.25           6644          60.00       236.27
  142.66        3334.50           6648          72.00       288.58
  142.69        3334.75           6652          63.00       249.35
  142.73        3335.00           6655          73.00       292.94
  142.76        3335.25           6659         105.00       432.44
  142.80        3335.50           6663         365.00      1565.90
  142.83        3335.75           6667        1036.00      4491.45
  142.87        3336.00           6670        1889.00      8211.26
  142.90        3336.25           6674        3607.00     15705.74
  142.94        3336.50           6678        5931.00     25849.15
  142.98        3336.75           6682        9003.00     39266.80
  143.01        3337.00           6685       11345.00     49503.28
  143.05        3337.25           6689       14613.00     63797.67
  143.08        3337.50           6693       18221.00     79593.49
  143.11        3337.75           6697       21762.00     95110.55
  143.15        3338.00           6700       24360.00    106504.50
  143.18        3338.25           6704       28012.00    122534.20
  143.22        3338.50           6708       31814.00    139238.60
  143.25        3338.75           6712       35327.00    154688.30
  143.29        3339.00           6715       38305.00    167796.30
  143.32        3339.25           6719       41824.00    183299.00
  143.36        3339.50           6723       45244.00    198379.40
  143.39        3339.75           6727       48673.00    213513.20
  143.43        3340.00           6730       51112.00    224286.10
  143.46        3340.25           6734       54306.00    238404.30
  143.50        3340.50           6738       57454.00    252331.00
  143.53        3340.75           6742       60221.00    264581.70
  143.57        3341.00           6745       62141.00    273087.80
  143.60        3341.25           6749       63215.00    277847.70
  143.64        3341.50           6753       63306.00    278251.10
  143.67        3341.75           6756       62632.00    275263.70
  143.71        3342.00           6760       60715.00    266769.90
  143.74        3342.25           6764       57769.00    253725.10
  143.78        3342.50           6768       54996.00    241455.90
  143.81        3342.75           6771       52607.00    230892.80
  143.85        3343.00           6775       48963.00    214793.70
  143.88        3343.25           6779       45569.00    199813.20
  143.92        3343.50           6783       42024.00    184180.50
  143.95        3343.75           6786       39746.00    174142.80
  143.99        3344.00           6790       35929.00    157337.20
  144.02        3344.25           6794       32362.00    141647.70
  144.06        3344.50           6798       28587.00    125059.40
  144.09        3344.75           6801       25677.00    112283.40
  144.13        3345.00           6805       21908.00     95750.66
  144.16        3345.25           6809       18169.00     79365.72
  144.20        3345.50           6813       14528.00     63425.71
  144.23        3345.75           6817       11196.00     48851.83
  144.27        3346.00           6820        8673.00     37824.94
  144.30        3346.25           6824        5815.00     25342.71
  144.34        3346.50           6828        3431.00     14937.82
  144.37        3346.75           6832        1712.00      7439.32
  144.41        3347.00           6835         812.00      3514.76
  144.44        3347.25           6839         316.00      1352.28
  144.48        3347.50           6843         135.00       563.22
  144.51        3347.75           6847          85.00       345.25
  144.55        3348.00           6850          77.00       310.38
  144.58        3348.25           6854          71.00       284.22
  144.62        3348.50           6858          69.00       275.50
  144.65        3348.75           6862          66.00       262.43
  144.69        3349.00           6865          55.00       214.47
  144.73        3349.25           6869          59.00       231.91
  144.76        3349.50           6873          69.00       275.50
  144.80        3349.75           6877          61.00       240.63
  144.83        3350.00           6880          67.00       266.79
  144.86        3350.25           6884          64.00       253.71
  144.90        3350.50           6888          67.00       266.79
  144.93        3350.75           6892          59.00       231.91
  144.97        3351.00           6895          62.00       244.99
HL scan finished at 02:25:49
end
************************************************************
  HL Scan of (1) Internal mercury lamp
************************************************************
Integration time is 0.2294 seconds per sample
dh200619inta 37.1 6.733 3.210348pr1000
************************************************************
Dead Time -------------------------  3E-08 
Number of Cycles Used -------------  4 
Starting Wavelength (Angstroms) ---  3331 
Final Wavelength (Angstoms) -------  3351 
Wavelength Increment (Angstroms) --  .25 
Filter Wheel #1 Position ---------- (1) Ground quartz diffuser (ND=2.32)
Filter Wheel #2 Position ---------- (0) Clear Aperture



************************************************************
HL scan start time = 22:01:59
Dark Count =  5.8 


Time (GMT)  Wavelength (Ang)  Step Number  Raw Counts  Counts/Second

 1322.49        3331.00           6596          65.00       258.07
 1322.72        3331.25           6599          57.00       223.19
 1322.75        3331.50           6603          63.00       249.35
 1322.79        3331.75           6607          59.00       231.91
 1322.82        3332.00           6611          64.00       253.71
 1322.86        3332.25           6614          57.00       223.19
 1322.89        3332.50           6618          71.00       284.22
 1322.93        3332.75           6622          56.00       218.83
 1322.96        3333.00           6626          57.00       223.19
 1323.00        3333.25           6629          71.00       284.22
 1323.03        3333.50           6633          61.00       240.63
 1323.07        3333.75           6637          56.00       218.83
 1323.10        3334.00           6640          67.00       266.79
 1323.14        3334.25           6644          64.00       253.71
 1323.17        3334.50           6648          69.00       275.50
 1323.20        3334.75           6652          79.00       319.10
 1323.24        3335.00           6655          76.00       306.02
 1323.27        3335.25           6659         111.00       458.59
 1323.31        3335.50           6663         393.00      1687.97
 1323.34        3335.75           6667        1064.00      4613.54
 1323.38        3336.00           6670        1925.00      8368.27
 1323.41        3336.25           6674        3650.00     15893.36
 1323.45        3336.50           6678        6034.00     26298.86
 1323.48        3336.75           6682        9173.00     40009.63
 1323.52        3337.00           6685       11709.00     51094.83
 1323.55        3337.25           6689       14989.00     65443.09
 1323.59        3337.50           6693       18648.00     81463.89
 1323.62        3337.75           6697       22336.00     97627.27
 1323.66        3338.00           6700       25060.00    109575.80
 1323.69        3338.25           6704       29000.00    126873.40
 1323.73        3338.50           6708       32676.00    143028.30
 1323.76        3338.75           6712       36482.00    159770.90
 1323.80        3339.00           6715       39492.00    173023.90
 1323.83        3339.25           6719       43176.00    189259.00
 1323.87        3339.50           6723       46705.00    204825.80
 1323.90        3339.75           6727       50338.00    220866.60
 1323.94        3340.00           6730       52785.00    231679.60
 1323.97        3340.25           6734       56494.00    248082.70
 1324.01        3340.50           6738       59454.00    261185.00
 1324.04        3340.75           6742       62051.00    272689.00
 1324.08        3341.00           6745       63788.00    280387.80
 1324.11        3341.25           6749       65151.00    286431.50
 1324.15        3341.50           6753       65323.00    287194.40
 1324.18        3341.75           6756       64564.00    283828.50
 1324.22        3342.00           6760       62481.00    274594.50
 1324.25        3342.25           6764       59807.00    262748.20
 1324.29        3342.50           6768       56735.00    249149.10
 1324.32        3342.75           6771       54166.00    237785.20
 1324.36        3343.00           6775       50538.00    221750.10
 1324.39        3343.25           6779       46976.00    206021.80
 1324.43        3343.50           6783       43287.00    189748.30
 1324.46        3343.75           6786       40890.00    179182.90
 1324.49        3344.00           6790       37159.00    162750.80
 1324.53        3344.25           6794       33286.00    145710.50
 1324.57        3344.50           6798       29412.00    128683.30
 1324.60        3344.75           6801       26367.00    115311.90
 1324.64        3345.00           6805       22684.00     99153.23
 1324.67        3345.25           6809       18694.00     81665.39
 1324.71        3345.50           6813       15244.00     66559.10
 1324.74        3345.75           6817       11576.00     50513.28
 1324.78        3346.00           6820        8937.00     38978.42
 1324.81        3346.25           6824        5960.00     25975.77
 1324.84        3346.50           6828        3680.00     16024.26
 1324.88        3346.75           6832        1824.00      7927.78
 1324.91        3347.00           6835         885.00      3833.05
 1324.95        3347.25           6839         317.00      1356.64
 1324.98        3347.50           6843         134.00       558.86
 1325.02        3347.75           6847          91.00       371.41
 1325.05        3348.00           6850          74.00       297.30
 1325.09        3348.25           6854          74.00       297.30
 1325.12        3348.50           6858          71.00       284.22
 1325.16        3348.75           6862          66.00       262.43
 1325.19        3349.00           6865          69.00       275.50
 1325.23        3349.25           6869          62.00       244.99
 1325.26        3349.50           6873          68.00       271.14
 1325.29        3349.75           6877          64.00       253.71
 1325.33        3350.00           6880          59.00       231.91
 1325.36        3350.25           6884          58.00       227.55
 1325.40        3350.50           6888          70.00       279.86
 1325.43        3350.75           6892          60.00       236.27
 1325.47        3351.00           6895          65.00       258.07
HL scan finished at 22:06:19
end
