************************************************************
  HL Scan of (1) Internal mercury lamp
************************************************************
Integration time is 0.2294 seconds per sample
dh190619inta 37.1 6.733 3.220545pr1000
************************************************************
Dead Time -------------------------  3E-08 
Number of Cycles Used -------------  4 
Starting Wavelength (Angstroms) ---  3331 
Final Wavelength (Angstoms) -------  3351 
Wavelength Increment (Angstroms) --  .25 
Filter Wheel #1 Position ---------- (1) Ground quartz diffuser (ND=2.32)
Filter Wheel #2 Position ---------- (0) Clear Aperture



************************************************************
HL scan start time = 02:02:59
Dark Count =  5.4 


Time (GMT)  Wavelength (Ang)  Step Number  Raw Counts  Counts/Second

  123.48        3331.00           6596          62.00       246.73
  123.70        3331.25           6599          65.00       259.81
  123.74        3331.50           6603          69.00       277.25
  123.77        3331.75           6607          66.00       264.17
  123.81        3332.00           6611          71.00       285.97
  123.84        3332.25           6614          64.00       255.45
  123.88        3332.50           6618          70.00       281.61
  123.91        3332.75           6622          67.00       268.53
  123.94        3333.00           6626          70.00       281.61
  123.98        3333.25           6629          68.00       272.89
  124.01        3333.50           6633          63.00       251.09
  124.05        3333.75           6637          75.00       303.40
  124.08        3334.00           6640          71.00       285.97
  124.12        3334.25           6644          58.00       229.30
  124.15        3334.50           6648          68.00       272.89
  124.19        3334.75           6652          68.00       272.89
  124.22        3335.00           6655          81.00       329.56
  124.26        3335.25           6659         116.00       482.13
  124.29        3335.50           6663         400.00      1720.23
  124.33        3335.75           6667        1133.00      4916.16
  124.36        3336.00           6670        2037.00      8858.50
  124.39        3336.25           6674        3838.00     16715.44
  124.43        3336.50           6678        6486.00     28274.19
  124.46        3336.75           6682        9891.00     43149.10
  124.50        3337.00           6685       12525.00     54664.99
  124.53        3337.25           6689       16074.00     70193.86
  124.57        3337.50           6693       20048.00     87599.57
  124.60        3337.75           6697       23701.00    103615.40
  124.64        3338.00           6700       26734.00    116924.70
  124.67        3338.25           6704       30785.00    134717.70
  124.71        3338.50           6708       34820.00    152459.40
  124.74        3338.75           6712       38838.00    170145.20
  124.78        3339.00           6715       41884.00    183565.20
  124.81        3339.25           6719       45728.00    200516.40
  124.85        3339.50           6723       49450.00    216946.20
  124.88        3339.75           6727       53128.00    233197.60
  124.92        3340.00           6730       55938.00    245624.50
  124.95        3340.25           6734       59564.00    261673.90
  124.99        3340.50           6738       62702.00    275575.80
  125.02        3340.75           6742       65444.00    287732.80
  125.06        3341.00           6745       67314.00    296028.80
  125.09        3341.25           6749       68866.00    302917.30
  125.13        3341.50           6753       69269.00    304706.40
  125.16        3341.75           6756       68056.00    299321.80
  125.20        3342.00           6760       65953.00    289990.50
  125.23        3342.25           6764       63019.00    276980.80
  125.27        3342.50           6768       59466.00    261239.90
  125.30        3342.75           6771       57132.00    250907.70
  125.34        3343.00           6775       52910.00    232234.00
  125.37        3343.25           6779       49430.00    216857.80
  125.40        3343.50           6783       45561.00    199779.60
  125.44        3343.75           6786       42819.00    187686.80
  125.47        3344.00           6790       38975.00    170748.60
  125.51        3344.25           6794       34877.00    152710.20
  125.54        3344.50           6798       31140.00    136277.90
  125.58        3344.75           6801       28030.00    122615.00
  125.61        3345.00           6805       23826.00    104163.70
  125.65        3345.25           6809       19666.00     85925.64
  125.68        3345.50           6813       15671.00     68429.78
  125.72        3345.75           6817       12099.00     52801.97
  125.75        3346.00           6820        9430.00     41134.42
  125.79        3346.25           6824        6231.00     27160.75
  125.82        3346.50           6828        3764.00     16392.54
  125.86        3346.75           6832        1871.00      8134.50
  125.89        3347.00           6835         947.00      4105.13
  125.93        3347.25           6839         341.00      1463.01
  125.96        3347.50           6843         148.00       621.63
  125.99        3347.75           6847          91.00       373.15
  126.03        3348.00           6850          82.00       333.92
  126.06        3348.25           6854          76.00       307.76
  126.10        3348.50           6858          73.00       294.68
  126.13        3348.75           6862          70.00       281.61
  126.17        3349.00           6865          71.00       285.97
  126.20        3349.25           6869          60.00       238.01
  126.24        3349.50           6873          69.00       277.25
  126.27        3349.75           6877          70.00       281.61
  126.31        3350.00           6880          69.00       277.25
  126.34        3350.25           6884          60.00       238.01
  126.38        3350.50           6888          68.00       272.89
  126.41        3350.75           6892          60.00       238.01
  126.44        3351.00           6895          62.00       246.73
HL scan finished at 02:07:18
end
