************************************************************
  HL Scan of (1) Internal mercury lamp
************************************************************
Integration time is 0.2294 seconds per sample
dh270619inta 37.1 6.733 3.225644pr1000
************************************************************
Dead Time -------------------------  3E-08 
Number of Cycles Used -------------  4 
Starting Wavelength (Angstroms) ---  3331 
Final Wavelength (Angstoms) -------  3351 
Wavelength Increment (Angstroms) --  .25 
Filter Wheel #1 Position ---------- (1) Ground quartz diffuser (ND=2.32)
Filter Wheel #2 Position ---------- (0) Clear Aperture



************************************************************
HL scan start time = 02:05:08
Dark Count =  7.4 


Time (GMT)  Wavelength (Ang)  Step Number  Raw Counts  Counts/Second

  125.63        3331.00           6596          73.00       285.97
  125.86        3331.25           6599          62.00       238.01
  125.89        3331.50           6603          61.00       233.65
  125.93        3331.75           6607          64.00       246.73
  125.96        3332.00           6611          63.00       242.37
  126.00        3332.25           6614          65.00       251.09
  126.03        3332.50           6618          68.00       264.17
  126.07        3332.75           6622          66.00       255.45
  126.10        3333.00           6626          62.00       238.01
  126.14        3333.25           6629          59.00       224.94
  126.18        3333.50           6633          63.00       242.37
  126.21        3333.75           6637          64.00       246.73
  126.24        3334.00           6640          68.00       264.17
  126.28        3334.25           6644          68.00       264.17
  126.31        3334.50           6648          75.00       294.68
  126.35        3334.75           6652          74.00       290.33
  126.38        3335.00           6655          91.00       364.43
  126.42        3335.25           6659         109.00       442.90
  126.45        3335.50           6663         388.00      1659.19
  126.49        3335.75           6667        1126.00      4876.91
  126.52        3336.00           6670        2059.00      8945.73
  126.56        3336.25           6674        3924.00     17081.99
  126.59        3336.50           6678        6598.00     28754.52
  126.63        3336.75           6682        9888.00     43127.26
  126.66        3337.00           6685       12401.00     54113.93
  126.70        3337.25           6689       15980.00     69773.61
  126.73        3337.50           6693       19691.00     86026.43
  126.77        3337.75           6697       23859.00    104299.70
  126.80        3338.00           6700       26619.00    116411.10
  126.84        3338.25           6704       30676.00    134229.90
  126.87        3338.50           6708       34587.00    151425.70
  126.91        3338.75           6712       38837.00    170132.10
  126.94        3339.00           6715       42006.00    184094.10
  126.98        3339.25           6719       45661.00    200212.00
  127.01        3339.50           6723       49307.00    216305.80
  127.05        3339.75           6727       52921.00    232273.70
  127.08        3340.00           6730       55969.00    245752.90
  127.11        3340.25           6734       59471.00    261253.20
  127.15        3340.50           6738       62847.00    276209.50
  127.18        3340.75           6742       65590.00    288371.50
  127.22        3341.00           6745       67229.00    295642.80
  127.25        3341.25           6749       68459.00    301101.60
  127.29        3341.50           6753       68750.00    302393.50
  127.32        3341.75           6756       67997.00    299051.00
  127.36        3342.00           6760       65888.00    289693.30
  127.39        3342.25           6764       62993.00    276856.60
  127.43        3342.50           6768       59666.00    262116.70
  127.46        3342.75           6771       57240.00    251376.80
  127.50        3343.00           6775       53291.00    233909.40
  127.53        3343.25           6779       49589.00    217551.20
  127.57        3343.50           6783       45828.00    200948.80
  127.60        3343.75           6786       43005.00    188498.00
  127.64        3344.00           6790       38918.00    170488.80
  127.67        3344.25           6794       35377.00    154901.20
  127.71        3344.50           6798       31035.00    135807.60
  127.74        3344.75           6801       27861.00    121864.10
  127.77        3345.00           6805       23857.00    104290.90
  127.81        3345.25           6809       19772.00     86381.36
  127.84        3345.50           6813       15790.00     68941.91
  127.88        3345.75           6817       12001.00     52364.67
  127.91        3346.00           6820        9431.00     41130.05
  127.95        3346.25           6824        6314.00     27514.42
  127.98        3346.50           6828        3743.00     16292.18
  128.02        3346.75           6832        1816.00      7885.91
  128.05        3347.00           6835         910.00      3935.08
  128.09        3347.25           6839         335.00      1428.13
  128.12        3347.50           6843         129.00       530.09
  128.15        3347.75           6847         101.00       408.03
  128.19        3348.00           6850          79.00       312.12
  128.23        3348.25           6854          82.00       325.20
  128.26        3348.50           6858          72.00       281.61
  128.30        3348.75           6862          67.00       259.81
  128.33        3349.00           6865          60.00       229.30
  128.36        3349.25           6869          78.00       307.76
  128.40        3349.50           6873          70.00       272.89
  128.43        3349.75           6877          70.00       272.89
  128.47        3350.00           6880          66.00       255.45
  128.50        3350.25           6884          67.00       259.81
  128.54        3350.50           6888          59.00       224.94
  128.57        3350.75           6892          71.00       277.25
  128.61        3351.00           6895          69.00       268.53
HL scan finished at 02:09:28
end
