************************************************************
  HL Scan of (1) Internal mercury lamp
************************************************************
Integration time is 0.2294 seconds per sample
dh260619inta 37.1 6.733 3.261331pr1000
************************************************************
Dead Time -------------------------  3E-08 
Number of Cycles Used -------------  4 
Starting Wavelength (Angstroms) ---  3331 
Final Wavelength (Angstoms) -------  3351 
Wavelength Increment (Angstroms) --  .25 
Filter Wheel #1 Position ---------- (1) Ground quartz diffuser (ND=2.32)
Filter Wheel #2 Position ---------- (0) Clear Aperture



************************************************************
HL scan start time = 02:04:50
Dark Count =  7.3 


Time (GMT)  Wavelength (Ang)  Step Number  Raw Counts  Counts/Second

  125.34        3331.00           6596          68.00       264.61
  125.57        3331.25           6599          58.00       221.01
  125.60        3331.50           6603          67.00       260.25
  125.64        3331.75           6607          62.00       238.45
  125.67        3332.00           6611          64.00       247.17
  125.70        3332.25           6614          63.00       242.81
  125.74        3332.50           6618          60.00       229.73
  125.78        3332.75           6622          63.00       242.81
  125.81        3333.00           6626          61.00       234.09
  125.84        3333.25           6629          65.00       251.53
  125.88        3333.50           6633          67.00       260.25
  125.91        3333.75           6637          70.00       273.32
  125.95        3334.00           6640          70.00       273.32
  125.98        3334.25           6644          67.00       260.25
  126.02        3334.50           6648          67.00       260.25
  126.05        3334.75           6652          80.00       316.92
  126.09        3335.00           6655          95.00       382.31
  126.12        3335.25           6659         121.00       495.65
  126.15        3335.50           6663         413.00      1768.62
  126.19        3335.75           6667        1228.00      5322.12
  126.22        3336.00           6670        2145.00      9321.26
  126.26        3336.25           6674        4051.00     17636.62
  126.29        3336.50           6678        6604.00     28781.16
  126.33        3336.75           6682        9853.00     42974.72
  126.36        3337.00           6685       12564.00     54827.24
  126.40        3337.25           6689       16179.00     70645.20
  126.43        3337.50           6693       20201.00     88261.72
  126.47        3337.75           6697       24239.00    105967.10
  126.50        3338.00           6700       27177.00    118861.20
  126.54        3338.25           6704       31133.00    136238.80
  126.57        3338.50           6708       35229.00    154250.50
  126.61        3338.75           6712       39319.00    172255.30
  126.64        3339.00           6715       42105.00    184530.90
  126.68        3339.25           6719       46143.00    202339.10
  126.71        3339.50           6723       49775.00    218373.10
  126.74        3339.75           6727       53679.00    235625.20
  126.78        3340.00           6730       56353.00    247452.20
  126.81        3340.25           6734       59784.00    262639.70
  126.85        3340.50           6738       63498.00    279095.60
  126.88        3340.75           6742       66425.00    292076.00
  126.92        3341.00           6745       68052.00    299295.60
  126.95        3341.25           6749       69372.00    305155.30
  126.99        3341.50           6753       69380.00    305190.80
  127.02        3341.75           6756       68640.00    301905.60
  127.05        3342.00           6760       66356.00    291769.90
  127.09        3342.25           6764       63402.00    278670.00
  127.13        3342.50           6768       60116.00    264110.00
  127.16        3342.75           6771       57328.00    251766.70
  127.19        3343.00           6775       53630.00    235408.60
  127.23        3343.25           6779       49684.00    217971.20
  127.26        3343.50           6783       46183.00    202515.60
  127.30        3343.75           6786       43082.00    188837.90
  127.33        3344.00           6790       39259.00    171991.10
  127.37        3344.25           6794       35482.00    155363.70
  127.40        3344.50           6798       31089.00    136045.40
  127.44        3344.75           6801       28138.00    123080.90
  127.47        3345.00           6805       24067.00    105212.50
  127.51        3345.25           6809       20112.00     87871.70
  127.54        3345.50           6813       15931.00     69559.56
  127.58        3345.75           6817       12098.00     52789.29
  127.61        3346.00           6820        9569.00     41733.56
  127.64        3346.25           6824        6316.00     27523.59
  127.68        3346.50           6828        3714.00     16166.08
  127.71        3346.75           6832        1865.00      8100.05
  127.75        3347.00           6835         952.00      4118.64
  127.78        3347.25           6839         330.00      1406.77
  127.82        3347.50           6843         145.00       600.27
  127.85        3347.75           6847          84.00       334.35
  127.89        3348.00           6850          82.00       325.64
  127.92        3348.25           6854          78.00       308.20
  127.96        3348.50           6858          72.00       282.04
  127.99        3348.75           6862          63.00       242.81
  128.03        3349.00           6865          69.00       268.96
  128.06        3349.25           6869          67.00       260.25
  128.10        3349.50           6873          67.00       260.25
  128.13        3349.75           6877          61.00       234.09
  128.17        3350.00           6880          66.00       255.89
  128.20        3350.25           6884          73.00       286.40
  128.24        3350.50           6888          63.00       242.81
  128.27        3350.75           6892          65.00       251.53
  128.31        3351.00           6895          63.00       242.81
HL scan finished at 02:09:09
end
************************************************************
  HL Scan of (1) Internal mercury lamp
************************************************************
Integration time is 0.2294 seconds per sample
dh260619inta 37.1 6.733 3.23584pr1000
************************************************************
Dead Time -------------------------  3E-08 
Number of Cycles Used -------------  4 
Starting Wavelength (Angstroms) ---  3331 
Final Wavelength (Angstoms) -------  3351 
Wavelength Increment (Angstroms) --  .25 
Filter Wheel #1 Position ---------- (1) Ground quartz diffuser (ND=2.32)
Filter Wheel #2 Position ---------- (0) Clear Aperture



************************************************************
HL scan start time = 20:53:23
Dark Count =  5.3 


Time (GMT)  Wavelength (Ang)  Step Number  Raw Counts  Counts/Second

 1253.89        3331.00           6596          65.00       260.25
 1254.11        3331.25           6599          65.00       260.25
 1254.14        3331.50           6603          64.00       255.89
 1254.18        3331.75           6607          62.00       247.17
 1254.21        3332.00           6611          66.00       264.61
 1254.25        3332.25           6614          65.00       260.25
 1254.28        3332.50           6618          62.00       247.17
 1254.32        3332.75           6622          70.00       282.04
 1254.35        3333.00           6626          65.00       260.25
 1254.39        3333.25           6629          72.00       290.76
 1254.42        3333.50           6633          73.00       295.12
 1254.46        3333.75           6637          58.00       229.73
 1254.49        3334.00           6640          61.00       242.81
 1254.53        3334.25           6644          68.00       273.32
 1254.56        3334.50           6648          74.00       299.48
 1254.60        3334.75           6652          90.00       369.23
 1254.63        3335.00           6655          85.00       347.43
 1254.67        3335.25           6659         131.00       547.96
 1254.70        3335.50           6663         386.00      1659.63
 1254.74        3335.75           6667        1176.00      5104.09
 1254.77        3336.00           6670        2136.00      9290.73
 1254.81        3336.25           6674        4037.00     17584.25
 1254.84        3336.50           6678        6489.00     28287.72
 1254.88        3336.75           6682        9867.00     43044.65
 1254.91        3337.00           6685       12551.00     54779.14
 1254.95        3337.25           6689       16235.00     70899.11
 1254.98        3337.50           6693       20230.00     88397.56
 1255.02        3337.75           6697       23907.00    104519.50
 1255.05        3338.00           6700       27055.00    118334.30
 1255.09        3338.25           6704       30808.00    134819.20
 1255.12        3338.50           6708       35225.00    154241.70
 1255.16        3338.75           6712       38959.00    170678.60
 1255.19        3339.00           6715       42324.00    185505.10
 1255.23        3339.25           6719       46228.00    202723.10
 1255.26        3339.50           6723       49614.00    217670.90
 1255.30        3339.75           6727       53593.00    235253.90
 1255.33        3340.00           6730       56365.00    247514.20
 1255.37        3340.25           6734       59945.00    263361.50
 1255.40        3340.50           6738       63240.00    277960.80
 1255.44        3340.75           6742       66203.00    291100.00
 1255.47        3341.00           6745       67902.00    298638.80
 1255.51        3341.25           6749       69601.00    306180.90
 1255.54        3341.50           6753       69244.00    304595.90
 1255.58        3341.75           6756       68505.00    301315.20
 1255.61        3342.00           6760       66795.00    293726.40
 1255.65        3342.25           6764       63498.00    279104.40
 1255.69        3342.50           6768       60031.00    263742.50
 1255.72        3342.75           6771       57514.00    252598.80
 1255.75        3343.00           6775       53708.00    235762.30
 1255.79        3343.25           6779       49884.00    218863.40
 1255.82        3343.50           6783       46054.00    201955.20
 1255.86        3343.75           6786       43239.00    189538.90
 1255.89        3344.00           6790       39216.00    171810.50
 1255.93        3344.25           6794       35507.00    155482.50
 1255.96        3344.50           6798       31331.00    137117.80
 1256.00        3344.75           6801       27991.00    122444.10
 1256.03        3345.00           6805       24027.00    105045.90
 1256.06        3345.25           6809       19789.00     86465.04
 1256.10        3345.50           6813       15909.00     69472.00
 1256.13        3345.75           6817       12301.00     53685.78
 1256.17        3346.00           6820        9669.00     42179.32
 1256.20        3346.25           6824        6368.00     27759.38
 1256.24        3346.50           6828        3832.00     16689.70
 1256.27        3346.75           6832        1841.00      8004.10
 1256.31        3347.00           6835         964.00      4179.69
 1256.34        3347.25           6839         336.00      1441.65
 1256.38        3347.50           6843         153.00       643.87
 1256.41        3347.75           6847          89.00       364.87
 1256.45        3348.00           6850          86.00       351.79
 1256.48        3348.25           6854          79.00       321.28
 1256.52        3348.50           6858          68.00       273.32
 1256.55        3348.75           6862          69.00       277.68
 1256.59        3349.00           6865          64.00       255.89
 1256.62        3349.25           6869          68.00       273.32
 1256.65        3349.50           6873          57.00       225.37
 1256.69        3349.75           6877          69.00       277.68
 1256.73        3350.00           6880          75.00       303.84
 1256.76        3350.25           6884          65.00       260.25
 1256.80        3350.50           6888          61.00       242.81
 1256.83        3350.75           6892          65.00       260.25
 1256.86        3351.00           6895          67.00       268.96
HL scan finished at 20:57:43
end
