************************************************************
  HL Scan of (1) Internal mercury lamp
************************************************************
Integration time is 0.2294 seconds per sample
dh220619inta 37.1 6.733 3.20525pr1000
************************************************************
Dead Time -------------------------  3E-08 
Number of Cycles Used -------------  4 
Starting Wavelength (Angstroms) ---  3331 
Final Wavelength (Angstoms) -------  3351 
Wavelength Increment (Angstroms) --  .25 
Filter Wheel #1 Position ---------- (1) Ground quartz diffuser (ND=2.32)
Filter Wheel #2 Position ---------- (0) Clear Aperture



************************************************************
HL scan start time = 02:22:30
Dark Count =  7.6 


Time (GMT)  Wavelength (Ang)  Step Number  Raw Counts  Counts/Second

  143.00        3331.00           6596          60.00       228.42
  143.23        3331.25           6599          62.00       237.14
  143.26        3331.50           6603          70.00       272.02
  143.30        3331.75           6607          61.00       232.78
  143.33        3332.00           6611          56.00       210.99
  143.37        3332.25           6614          72.00       280.73
  143.40        3332.50           6618          66.00       254.58
  143.43        3332.75           6622          63.00       241.50
  143.47        3333.00           6626          63.00       241.50
  143.50        3333.25           6629          61.00       232.78
  143.54        3333.50           6633          62.00       237.14
  143.57        3333.75           6637          58.00       219.71
  143.61        3334.00           6640          67.00       258.94
  143.64        3334.25           6644          65.00       250.22
  143.68        3334.50           6648          69.00       267.66
  143.71        3334.75           6652          74.00       289.45
  143.75        3335.00           6655          89.00       354.84
  143.78        3335.25           6659         114.00       463.83
  143.82        3335.50           6663         330.00      1405.46
  143.85        3335.75           6667        1081.00      4679.82
  143.89        3336.00           6670        1877.00      8151.08
  143.92        3336.25           6674        3582.00     15588.80
  143.96        3336.50           6678        5951.00     25928.61
  143.99        3336.75           6682        9033.00     39390.02
  144.03        3337.00           6685       11419.00     49818.96
  144.06        3337.25           6689       15043.00     65671.53
  144.10        3337.50           6693       18579.00     81153.74
  144.13        3337.75           6697       22219.00     97106.35
  144.17        3338.00           6700       25041.00    109484.50
  144.20        3338.25           6704       28772.00    125864.10
  144.24        3338.50           6708       32548.00    142457.60
  144.27        3338.75           6712       36091.00    158042.20
  144.31        3339.00           6715       39057.00    171100.00
  144.34        3339.25           6719       42946.00    188237.00
  144.38        3339.50           6723       46499.00    203908.80
  144.41        3339.75           6727       49941.00    219105.00
  144.44        3340.00           6730       52630.00    230986.50
  144.48        3340.25           6734       56014.00    245951.10
  144.52        3340.50           6738       58938.00    258892.30
  144.55        3340.75           6742       61980.00    272366.40
  144.59        3341.00           6745       63581.00    279462.20
  144.62        3341.25           6749       64800.00    284867.00
  144.66        3341.50           6753       64944.00    285505.60
  144.69        3341.75           6756       64369.00    282955.80
  144.73        3342.00           6760       62366.00    274076.90
  144.76        3342.25           6764       59935.00    263307.10
  144.80        3342.50           6768       56544.00    248296.00
  144.83        3342.75           6771       53816.00    236229.70
  144.87        3343.00           6775       50344.00    220885.20
  144.90        3343.25           6779       46853.00    205471.00
  144.94        3343.50           6783       43531.00    190816.30
  144.97        3343.75           6786       40961.00    179487.80
  145.01        3344.00           6790       37287.00    163306.40
  145.04        3344.25           6794       33289.00    145715.80
  145.08        3344.50           6798       29468.00    128921.40
  145.11        3344.75           6801       26541.00    116067.80
  145.15        3345.00           6805       22626.00     98891.02
  145.19        3345.25           6809       18659.00     81504.19
  145.22        3345.50           6813       15248.00     66568.72
  145.26        3345.75           6817       11548.00     50382.98
  145.29        3346.00           6820        8966.00     39097.27
  145.33        3346.25           6824        6039.00     26312.83
  145.36        3346.50           6828        3739.00     16273.85
  145.40        3346.75           6832        1823.00      7915.57
  145.43        3347.00           6835         882.00      3812.12
  145.47        3347.25           6839         307.00      1305.19
  145.50        3347.50           6843         145.00       598.96
  145.54        3347.75           6847          88.00       350.48
  145.57        3348.00           6850          80.00       315.61
  145.61        3348.25           6854          66.00       254.58
  145.64        3348.50           6858          69.00       267.66
  145.67        3348.75           6862          75.00       293.81
  145.71        3349.00           6865          62.00       237.14
  145.74        3349.25           6869          59.00       224.06
  145.78        3349.50           6873          70.00       272.02
  145.81        3349.75           6877          69.00       267.66
  145.85        3350.00           6880          76.00       298.17
  145.88        3350.25           6884          60.00       228.42
  145.92        3350.50           6888          74.00       289.45
  145.95        3350.75           6892          54.00       202.27
  145.99        3351.00           6895          69.00       267.66
HL scan finished at 02:26:50
end
************************************************************
  HL Scan of (1) Internal mercury lamp
************************************************************
Integration time is 0.2294 seconds per sample
dh220619inta 37.1 6.733 3.20525pr1000
************************************************************
Dead Time -------------------------  3E-08 
Number of Cycles Used -------------  4 
Starting Wavelength (Angstroms) ---  3331 
Final Wavelength (Angstoms) -------  3351 
Wavelength Increment (Angstroms) --  .25 
Filter Wheel #1 Position ---------- (1) Ground quartz diffuser (ND=2.32)
Filter Wheel #2 Position ---------- (0) Clear Aperture



************************************************************
HL scan start time = 22:01:57
Dark Count =  5.2 


Time (GMT)  Wavelength (Ang)  Step Number  Raw Counts  Counts/Second

 1322.45        3331.00           6596          59.00       234.53
 1322.68        3331.25           6599          67.00       269.40
 1322.71        3331.50           6603          61.00       243.24
 1322.75        3331.75           6607          61.00       243.24
 1322.78        3332.00           6611          63.00       251.96
 1322.82        3332.25           6614          57.00       225.81
 1322.86        3332.50           6618          63.00       251.96
 1322.89        3332.75           6622          56.00       221.45
 1322.93        3333.00           6626          69.00       278.12
 1322.96        3333.25           6629          68.00       273.76
 1323.00        3333.50           6633          63.00       251.96
 1323.03        3333.75           6637          64.00       256.32
 1323.07        3334.00           6640          66.00       265.04
 1323.10        3334.25           6644          64.00       256.32
 1323.14        3334.50           6648          72.00       291.20
 1323.17        3334.75           6652          73.00       295.56
 1323.21        3335.00           6655          74.00       299.92
 1323.24        3335.25           6659         101.00       417.62
 1323.28        3335.50           6663         358.00      1538.00
 1323.31        3335.75           6667        1007.00      4367.62
 1323.35        3336.00           6670        1859.00      8083.04
 1323.38        3336.25           6674        3482.00     15162.95
 1323.42        3336.50           6678        5878.00     25620.38
 1323.45        3336.75           6682        8918.00     38898.02
 1323.49        3337.00           6685       11471.00     50056.80
 1323.52        3337.25           6689       14749.00     64395.42
 1323.56        3337.50           6693       18304.00     79959.67
 1323.59        3337.75           6697       21947.00     95924.30
 1323.63        3338.00           6700       24734.00    108148.10
 1323.66        3338.25           6704       28330.00    123933.30
 1323.70        3338.50           6708       31981.00    139975.40
 1323.73        3338.75           6712       35973.00    157533.50
 1323.76        3339.00           6715       38804.00    169996.40
 1323.80        3339.25           6719       42221.00    185051.50
 1323.83        3339.50           6723       45977.00    201616.00
 1323.87        3339.75           6727       49290.00    216240.40
 1323.90        3340.00           6730       51928.00    227894.50
 1323.94        3340.25           6734       55210.00    242405.00
 1323.98        3340.50           6738       58240.00    255812.70
 1324.01        3340.75           6742       60942.00    267778.10
 1324.05        3341.00           6745       62663.00    275403.80
 1324.08        3341.25           6749       64189.00    282168.40
 1324.12        3341.50           6753       64350.00    282882.20
 1324.15        3341.75           6756       63391.00    278630.50
 1324.19        3342.00           6760       61555.00    270493.90
 1324.22        3342.25           6764       59067.00    259474.00
 1324.26        3342.50           6768       55919.00    245541.40
 1324.29        3342.75           6771       53348.00    234171.10
 1324.33        3343.00           6775       49769.00    218356.00
 1324.36        3343.25           6779       46430.00    203614.90
 1324.40        3343.50           6783       42951.00    188269.60
 1324.43        3343.75           6786       40151.00    175929.60
 1324.47        3344.00           6790       36852.00    161402.10
 1324.50        3344.25           6794       32931.00    144152.10
 1324.54        3344.50           6798       28967.00    126731.10
 1324.57        3344.75           6801       26088.00    114089.90
 1324.61        3345.00           6805       22332.00     97612.36
 1324.64        3345.25           6809       18486.00     80756.87
 1324.68        3345.50           6813       15141.00     66110.92
 1324.71        3345.75           6817       11412.00     49798.83
 1324.75        3346.00           6820        8944.00     39011.63
 1324.78        3346.25           6824        5989.00     26105.01
 1324.82        3346.50           6828        3648.00     15887.26
 1324.85        3346.75           6832        1768.00      7686.17
 1324.89        3347.00           6835         846.00      3665.62
 1324.92        3347.25           6839         319.00      1367.97
 1324.96        3347.50           6843         142.00       596.35
 1324.99        3347.75           6847          82.00       334.79
 1325.03        3348.00           6850          84.00       343.51
 1325.06        3348.25           6854          74.00       299.92
 1325.10        3348.50           6858          69.00       278.12
 1325.13        3348.75           6862          63.00       251.96
 1325.17        3349.00           6865          59.00       234.53
 1325.20        3349.25           6869          69.00       278.12
 1325.24        3349.50           6873          63.00       251.96
 1325.27        3349.75           6877          60.00       238.89
 1325.31        3350.00           6880          62.00       247.60
 1325.34        3350.25           6884          61.00       243.24
 1325.38        3350.50           6888          60.00       238.89
 1325.41        3350.75           6892          74.00       299.92
 1325.45        3351.00           6895          67.00       269.40
HL scan finished at 22:06:18
end
