************************************************************
  HL Scan of (1) Internal mercury lamp
************************************************************
Integration time is 0.2294 seconds per sample
dh190619inta 37.1 6.733 3.220545pr1000
************************************************************
Dead Time -------------------------  3E-08 
Number of Cycles Used -------------  4 
Starting Wavelength (Angstroms) ---  3331 
Final Wavelength (Angstoms) -------  3351 
Wavelength Increment (Angstroms) --  .25 
Filter Wheel #1 Position ---------- (1) Ground quartz diffuser (ND=2.32)
Filter Wheel #2 Position ---------- (0) Clear Aperture



************************************************************
HL scan start time = 02:02:59
Dark Count =  5.4 


Time (GMT)  Wavelength (Ang)  Step Number  Raw Counts  Counts/Second

  123.48        3331.00           6596          62.00       246.73
  123.70        3331.25           6599          65.00       259.81
  123.74        3331.50           6603          69.00       277.25
  123.77        3331.75           6607          66.00       264.17
  123.81        3332.00           6611          71.00       285.97
  123.84        3332.25           6614          64.00       255.45
  123.88        3332.50           6618          70.00       281.61
  123.91        3332.75           6622          67.00       268.53
  123.94        3333.00           6626          70.00       281.61
  123.98        3333.25           6629          68.00       272.89
  124.01        3333.50           6633          63.00       251.09
  124.05        3333.75           6637          75.00       303.40
  124.08        3334.00           6640          71.00       285.97
  124.12        3334.25           6644          58.00       229.30
  124.15        3334.50           6648          68.00       272.89
  124.19        3334.75           6652          68.00       272.89
  124.22        3335.00           6655          81.00       329.56
  124.26        3335.25           6659         116.00       482.13
  124.29        3335.50           6663         400.00      1720.23
  124.33        3335.75           6667        1133.00      4916.16
  124.36        3336.00           6670        2037.00      8858.50
  124.39        3336.25           6674        3838.00     16715.44
  124.43        3336.50           6678        6486.00     28274.19
  124.46        3336.75           6682        9891.00     43149.10
  124.50        3337.00           6685       12525.00     54664.99
  124.53        3337.25           6689       16074.00     70193.86
  124.57        3337.50           6693       20048.00     87599.57
  124.60        3337.75           6697       23701.00    103615.40
  124.64        3338.00           6700       26734.00    116924.70
  124.67        3338.25           6704       30785.00    134717.70
  124.71        3338.50           6708       34820.00    152459.40
  124.74        3338.75           6712       38838.00    170145.20
  124.78        3339.00           6715       41884.00    183565.20
  124.81        3339.25           6719       45728.00    200516.40
  124.85        3339.50           6723       49450.00    216946.20
  124.88        3339.75           6727       53128.00    233197.60
  124.92        3340.00           6730       55938.00    245624.50
  124.95        3340.25           6734       59564.00    261673.90
  124.99        3340.50           6738       62702.00    275575.80
  125.02        3340.75           6742       65444.00    287732.80
  125.06        3341.00           6745       67314.00    296028.80
  125.09        3341.25           6749       68866.00    302917.30
  125.13        3341.50           6753       69269.00    304706.40
  125.16        3341.75           6756       68056.00    299321.80
  125.20        3342.00           6760       65953.00    289990.50
  125.23        3342.25           6764       63019.00    276980.80
  125.27        3342.50           6768       59466.00    261239.90
  125.30        3342.75           6771       57132.00    250907.70
  125.34        3343.00           6775       52910.00    232234.00
  125.37        3343.25           6779       49430.00    216857.80
  125.40        3343.50           6783       45561.00    199779.60
  125.44        3343.75           6786       42819.00    187686.80
  125.47        3344.00           6790       38975.00    170748.60
  125.51        3344.25           6794       34877.00    152710.20
  125.54        3344.50           6798       31140.00    136277.90
  125.58        3344.75           6801       28030.00    122615.00
  125.61        3345.00           6805       23826.00    104163.70
  125.65        3345.25           6809       19666.00     85925.64
  125.68        3345.50           6813       15671.00     68429.78
  125.72        3345.75           6817       12099.00     52801.97
  125.75        3346.00           6820        9430.00     41134.42
  125.79        3346.25           6824        6231.00     27160.75
  125.82        3346.50           6828        3764.00     16392.54
  125.86        3346.75           6832        1871.00      8134.50
  125.89        3347.00           6835         947.00      4105.13
  125.93        3347.25           6839         341.00      1463.01
  125.96        3347.50           6843         148.00       621.63
  125.99        3347.75           6847          91.00       373.15
  126.03        3348.00           6850          82.00       333.92
  126.06        3348.25           6854          76.00       307.76
  126.10        3348.50           6858          73.00       294.68
  126.13        3348.75           6862          70.00       281.61
  126.17        3349.00           6865          71.00       285.97
  126.20        3349.25           6869          60.00       238.01
  126.24        3349.50           6873          69.00       277.25
  126.27        3349.75           6877          70.00       281.61
  126.31        3350.00           6880          69.00       277.25
  126.34        3350.25           6884          60.00       238.01
  126.38        3350.50           6888          68.00       272.89
  126.41        3350.75           6892          60.00       238.01
  126.44        3351.00           6895          62.00       246.73
HL scan finished at 02:07:18
end
************************************************************
  HL Scan of (1) Internal mercury lamp
************************************************************
Integration time is 0.2294 seconds per sample
dh190619inta 37.1 6.733 3.179758pr1000
************************************************************
Dead Time -------------------------  3E-08 
Number of Cycles Used -------------  4 
Starting Wavelength (Angstroms) ---  3331 
Final Wavelength (Angstoms) -------  3351 
Wavelength Increment (Angstroms) --  .25 
Filter Wheel #1 Position ---------- (1) Ground quartz diffuser (ND=2.32)
Filter Wheel #2 Position ---------- (0) Clear Aperture



************************************************************
HL scan start time = 22:16:33
Dark Count =  5.6 


Time (GMT)  Wavelength (Ang)  Step Number  Raw Counts  Counts/Second

 1337.05        3331.00           6596          58.00       228.42
 1337.28        3331.25           6599          61.00       241.50
 1337.31        3331.50           6603          56.00       219.71
 1337.35        3331.75           6607          63.00       250.22
 1337.38        3332.00           6611          59.00       232.78
 1337.41        3332.25           6614          64.00       254.58
 1337.45        3332.50           6618          53.00       206.63
 1337.48        3332.75           6622          60.00       237.14
 1337.52        3333.00           6626          64.00       254.58
 1337.55        3333.25           6629          69.00       276.38
 1337.59        3333.50           6633          65.00       258.94
 1337.62        3333.75           6637          64.00       254.58
 1337.66        3334.00           6640          62.00       245.86
 1337.69        3334.25           6644          51.00       197.91
 1337.73        3334.50           6648          60.00       237.14
 1337.76        3334.75           6652          77.00       311.25
 1337.80        3335.00           6655          76.00       306.89
 1337.83        3335.25           6659         121.00       503.06
 1337.87        3335.50           6663         358.00      1536.25
 1337.90        3335.75           6667        1002.00      4344.07
 1337.94        3336.00           6670        1850.00      8042.05
 1337.97        3336.25           6674        3671.00     15985.87
 1338.01        3336.50           6678        5973.00     26033.40
 1338.04        3336.75           6682        9110.00     39735.22
 1338.08        3337.00           6685       11247.00     49075.69
 1338.11        3337.25           6689       14639.00     63912.31
 1338.15        3337.50           6693       18064.00     78906.70
 1338.18        3337.75           6697       21700.00     94839.63
 1338.22        3338.00           6700       24535.00    107273.20
 1338.25        3338.25           6704       28162.00    123193.80
 1338.29        3338.50           6708       31908.00    139652.70
 1338.32        3338.75           6712       35834.00    156920.00
 1338.35        3339.00           6715       38637.00    169259.20
 1338.39        3339.25           6719       42189.00    184908.70
 1338.42        3339.50           6723       45589.00    199902.30
 1338.46        3339.75           6727       48763.00    213911.50
 1338.49        3340.00           6730       51396.00    225541.80
 1338.53        3340.25           6734       54567.00    239559.40
 1338.56        3340.50           6738       57687.00    253363.10
 1338.60        3340.75           6742       60314.00    264994.50
 1338.63        3341.00           6745       62218.00    273429.90
 1338.67        3341.25           6749       63426.00    278784.00
 1338.70        3341.50           6753       63593.00    279524.30
 1338.74        3341.75           6756       62778.00    275911.70
 1338.77        3342.00           6760       60941.00    267771.90
 1338.81        3342.25           6764       58064.00    255031.80
 1338.84        3342.50           6768       55269.00    242664.20
 1338.88        3342.75           6771       52708.00    231340.20
 1338.91        3343.00           6775       49161.00    215669.00
 1338.95        3343.25           6779       45644.00    200144.90
 1338.98        3343.50           6783       42229.00    185085.00
 1339.02        3343.75           6786       39832.00    174522.50
 1339.05        3344.00           6790       35988.00    157597.80
 1339.09        3344.25           6794       32523.00    142356.40
 1339.12        3344.50           6798       28607.00    125148.10
 1339.15        3344.75           6801       25713.00    112442.30
 1339.19        3345.00           6805       21942.00     95900.61
 1339.23        3345.25           6809       18244.00     79695.10
 1339.26        3345.50           6813       14733.00     64323.65
 1339.30        3345.75           6817       11339.00     49477.92
 1339.33        3346.00           6820        9022.00     39350.70
 1339.36        3346.25           6824        5827.00     25395.97
 1339.40        3346.50           6828        3470.00     15108.85
 1339.43        3346.75           6832        1715.00      7453.28
 1339.47        3347.00           6835         872.00      3777.24
 1339.50        3347.25           6839         301.00      1287.76
 1339.54        3347.50           6843         125.00       520.50
 1339.57        3347.75           6847          88.00       359.20
 1339.61        3348.00           6850          86.00       350.48
 1339.64        3348.25           6854          70.00       280.73
 1339.68        3348.50           6858          67.00       267.66
 1339.71        3348.75           6862          64.00       254.58
 1339.75        3349.00           6865          64.00       254.58
 1339.78        3349.25           6869          64.00       254.58
 1339.82        3349.50           6873          66.00       263.30
 1339.85        3349.75           6877          61.00       241.50
 1339.89        3350.00           6880          71.00       285.09
 1339.92        3350.25           6884          64.00       254.58
 1339.95        3350.50           6888          71.00       285.09
 1339.99        3350.75           6892          65.00       258.94
 1340.02        3351.00           6895          68.00       272.02
HL scan finished at 22:20:53
end
