************************************************************
  HL Scan of (1) Internal mercury lamp
************************************************************
Integration time is 0.2294 seconds per sample
dh260619inta 37.1 6.733 3.261331pr1000
************************************************************
Dead Time -------------------------  3E-08 
Number of Cycles Used -------------  4 
Starting Wavelength (Angstroms) ---  3331 
Final Wavelength (Angstoms) -------  3351 
Wavelength Increment (Angstroms) --  .25 
Filter Wheel #1 Position ---------- (1) Ground quartz diffuser (ND=2.32)
Filter Wheel #2 Position ---------- (0) Clear Aperture



************************************************************
HL scan start time = 02:04:50
Dark Count =  7.3 


Time (GMT)  Wavelength (Ang)  Step Number  Raw Counts  Counts/Second

  125.34        3331.00           6596          68.00       264.61
  125.57        3331.25           6599          58.00       221.01
  125.60        3331.50           6603          67.00       260.25
  125.64        3331.75           6607          62.00       238.45
  125.67        3332.00           6611          64.00       247.17
  125.70        3332.25           6614          63.00       242.81
  125.74        3332.50           6618          60.00       229.73
  125.78        3332.75           6622          63.00       242.81
  125.81        3333.00           6626          61.00       234.09
  125.84        3333.25           6629          65.00       251.53
  125.88        3333.50           6633          67.00       260.25
  125.91        3333.75           6637          70.00       273.32
  125.95        3334.00           6640          70.00       273.32
  125.98        3334.25           6644          67.00       260.25
  126.02        3334.50           6648          67.00       260.25
  126.05        3334.75           6652          80.00       316.92
  126.09        3335.00           6655          95.00       382.31
  126.12        3335.25           6659         121.00       495.65
  126.15        3335.50           6663         413.00      1768.62
  126.19        3335.75           6667        1228.00      5322.12
  126.22        3336.00           6670        2145.00      9321.26
  126.26        3336.25           6674        4051.00     17636.62
  126.29        3336.50           6678        6604.00     28781.16
  126.33        3336.75           6682        9853.00     42974.72
  126.36        3337.00           6685       12564.00     54827.24
  126.40        3337.25           6689       16179.00     70645.20
  126.43        3337.50           6693       20201.00     88261.72
  126.47        3337.75           6697       24239.00    105967.10
  126.50        3338.00           6700       27177.00    118861.20
  126.54        3338.25           6704       31133.00    136238.80
  126.57        3338.50           6708       35229.00    154250.50
  126.61        3338.75           6712       39319.00    172255.30
  126.64        3339.00           6715       42105.00    184530.90
  126.68        3339.25           6719       46143.00    202339.10
  126.71        3339.50           6723       49775.00    218373.10
  126.74        3339.75           6727       53679.00    235625.20
  126.78        3340.00           6730       56353.00    247452.20
  126.81        3340.25           6734       59784.00    262639.70
  126.85        3340.50           6738       63498.00    279095.60
  126.88        3340.75           6742       66425.00    292076.00
  126.92        3341.00           6745       68052.00    299295.60
  126.95        3341.25           6749       69372.00    305155.30
  126.99        3341.50           6753       69380.00    305190.80
  127.02        3341.75           6756       68640.00    301905.60
  127.05        3342.00           6760       66356.00    291769.90
  127.09        3342.25           6764       63402.00    278670.00
  127.13        3342.50           6768       60116.00    264110.00
  127.16        3342.75           6771       57328.00    251766.70
  127.19        3343.00           6775       53630.00    235408.60
  127.23        3343.25           6779       49684.00    217971.20
  127.26        3343.50           6783       46183.00    202515.60
  127.30        3343.75           6786       43082.00    188837.90
  127.33        3344.00           6790       39259.00    171991.10
  127.37        3344.25           6794       35482.00    155363.70
  127.40        3344.50           6798       31089.00    136045.40
  127.44        3344.75           6801       28138.00    123080.90
  127.47        3345.00           6805       24067.00    105212.50
  127.51        3345.25           6809       20112.00     87871.70
  127.54        3345.50           6813       15931.00     69559.56
  127.58        3345.75           6817       12098.00     52789.29
  127.61        3346.00           6820        9569.00     41733.56
  127.64        3346.25           6824        6316.00     27523.59
  127.68        3346.50           6828        3714.00     16166.08
  127.71        3346.75           6832        1865.00      8100.05
  127.75        3347.00           6835         952.00      4118.64
  127.78        3347.25           6839         330.00      1406.77
  127.82        3347.50           6843         145.00       600.27
  127.85        3347.75           6847          84.00       334.35
  127.89        3348.00           6850          82.00       325.64
  127.92        3348.25           6854          78.00       308.20
  127.96        3348.50           6858          72.00       282.04
  127.99        3348.75           6862          63.00       242.81
  128.03        3349.00           6865          69.00       268.96
  128.06        3349.25           6869          67.00       260.25
  128.10        3349.50           6873          67.00       260.25
  128.13        3349.75           6877          61.00       234.09
  128.17        3350.00           6880          66.00       255.89
  128.20        3350.25           6884          73.00       286.40
  128.24        3350.50           6888          63.00       242.81
  128.27        3350.75           6892          65.00       251.53
  128.31        3351.00           6895          63.00       242.81
HL scan finished at 02:09:09
end
