************************************************************
  HL Scan of (1) Internal mercury lamp
************************************************************
Integration time is 0.2294 seconds per sample
dh250619inta 37.1 6.733 3.240938pr1000
************************************************************
Dead Time -------------------------  3E-08 
Number of Cycles Used -------------  4 
Starting Wavelength (Angstroms) ---  3331 
Final Wavelength (Angstoms) -------  3351 
Wavelength Increment (Angstroms) --  .25 
Filter Wheel #1 Position ---------- (1) Ground quartz diffuser (ND=2.32)
Filter Wheel #2 Position ---------- (0) Clear Aperture



************************************************************
HL scan start time = 03:14:44
Dark Count =  7.3 


Time (GMT)  Wavelength (Ang)  Step Number  Raw Counts  Counts/Second

  195.23        3331.00           6596          67.00       260.25
  195.46        3331.25           6599          63.00       242.81
  195.49        3331.50           6603          56.00       212.29
  195.53        3331.75           6607          70.00       273.32
  195.56        3332.00           6611          64.00       247.17
  195.60        3332.25           6614          63.00       242.81
  195.63        3332.50           6618          65.00       251.53
  195.67        3332.75           6622          71.00       277.68
  195.70        3333.00           6626          62.00       238.45
  195.74        3333.25           6629          65.00       251.53
  195.77        3333.50           6633          64.00       247.17
  195.80        3333.75           6637          69.00       268.96
  195.84        3334.00           6640          58.00       221.01
  195.87        3334.25           6644          69.00       268.96
  195.91        3334.50           6648          62.00       238.45
  195.94        3334.75           6652          81.00       321.28
  195.97        3335.00           6655          81.00       321.28
  196.01        3335.25           6659         109.00       443.34
  196.04        3335.50           6663         373.00      1594.23
  196.08        3335.75           6667        1143.00      4951.48
  196.11        3336.00           6670        2066.00      8976.70
  196.15        3336.25           6674        3925.00     17086.78
  196.18        3336.50           6678        6450.00     28108.70
  196.21        3336.75           6682        9745.00     42502.72
  196.25        3337.00           6685       12299.00     53668.29
  196.28        3337.25           6689       16009.00     69900.99
  196.32        3337.50           6693       19669.00     85930.47
  196.35        3337.75           6697       23851.00    104265.00
  196.39        3338.00           6700       26668.00    116626.60
  196.42        3338.25           6704       30774.00    134661.00
  196.46        3338.50           6708       34838.00    152530.30
  196.49        3338.75           6712       38931.00    170546.40
  196.53        3339.00           6715       42000.00    184068.10
  196.56        3339.25           6719       45658.00    200199.20
  196.60        3339.50           6723       49390.00    216672.80
  196.63        3339.75           6727       52877.00    232079.70
  196.66        3340.00           6730       55828.00    245129.50
  196.70        3340.25           6734       59376.00    260833.00
  196.73        3340.50           6738       62621.00    275208.30
  196.77        3340.75           6742       65395.00    287507.10
  196.81        3341.00           6745       67155.00    295314.90
  196.84        3341.25           6749       68647.00    301936.70
  196.87        3341.50           6753       68809.00    302655.80
  196.91        3341.75           6756       67925.00    298732.00
  196.94        3342.00           6760       65953.00    289982.10
  196.98        3342.25           6764       62771.00    275873.10
  197.01        3342.50           6768       59609.00    261864.70
  197.05        3342.75           6771       56601.00    248549.50
  197.08        3343.00           6775       52975.00    232512.90
  197.12        3343.25           6779       49503.00    217171.80
  197.15        3343.50           6783       45568.00    199802.10
  197.19        3343.75           6786       42917.00    188110.40
  197.22        3344.00           6790       38928.00    170533.30
  197.26        3344.25           6794       34983.00    153168.20
  197.29        3344.50           6798       30989.00    135605.90
  197.33        3344.75           6801       28005.00    122496.90
  197.36        3345.00           6805       23614.00    103225.40
  197.40        3345.25           6809       19655.00     85869.12
  197.43        3345.50           6813       15750.00     68767.25
  197.47        3345.75           6817       12272.00     53550.21
  197.50        3346.00           6820        9552.00     41659.27
  197.54        3346.25           6824        6323.00     27554.15
  197.57        3346.50           6828        3701.00     16109.35
  197.61        3346.75           6832        1860.00      8078.24
  197.64        3347.00           6835         949.00      4105.56
  197.68        3347.25           6839         323.00      1376.26
  197.71        3347.50           6843         138.00       569.76
  197.74        3347.75           6847          95.00       382.31
  197.78        3348.00           6850          85.00       338.71
  197.81        3348.25           6854          73.00       286.40
  197.85        3348.50           6858          74.00       290.76
  197.88        3348.75           6862          68.00       264.61
  197.92        3349.00           6865          65.00       251.53
  197.95        3349.25           6869          66.00       255.89
  197.98        3349.50           6873          61.00       234.09
  198.02        3349.75           6877          65.00       251.53
  198.05        3350.00           6880          64.00       247.17
  198.09        3350.25           6884          69.00       268.96
  198.12        3350.50           6888          64.00       247.17
  198.16        3350.75           6892          74.00       290.76
  198.19        3351.00           6895          62.00       238.45
HL scan finished at 03:19:02
end
************************************************************
  HL Scan of (1) Internal mercury lamp
************************************************************
Integration time is 0.2294 seconds per sample
dh250619inta 37.1 6.733 3.256233pr1000
************************************************************
Dead Time -------------------------  3E-08 
Number of Cycles Used -------------  4 
Starting Wavelength (Angstroms) ---  3331 
Final Wavelength (Angstoms) -------  3351 
Wavelength Increment (Angstroms) --  .25 
Filter Wheel #1 Position ---------- (1) Ground quartz diffuser (ND=2.32)
Filter Wheel #2 Position ---------- (0) Clear Aperture



************************************************************
HL scan start time = 20:53:22
Dark Count =  5.8 


Time (GMT)  Wavelength (Ang)  Step Number  Raw Counts  Counts/Second

 1253.87        3331.00           6596          61.00       240.63
 1254.10        3331.25           6599          65.00       258.07
 1254.13        3331.50           6603          65.00       258.07
 1254.16        3331.75           6607          62.00       244.99
 1254.20        3332.00           6611          69.00       275.50
 1254.23        3332.25           6614          65.00       258.07
 1254.27        3332.50           6618          64.00       253.71
 1254.30        3332.75           6622          72.00       288.58
 1254.34        3333.00           6626          65.00       258.07
 1254.37        3333.25           6629          63.00       249.35
 1254.41        3333.50           6633          64.00       253.71
 1254.44        3333.75           6637          66.00       262.43
 1254.48        3334.00           6640          68.00       271.14
 1254.51        3334.25           6644          69.00       275.50
 1254.55        3334.50           6648          68.00       271.14
 1254.58        3334.75           6652          76.00       306.02
 1254.61        3335.00           6655          86.00       349.61
 1254.65        3335.25           6659         113.00       467.31
 1254.68        3335.50           6663         442.00      1901.59
 1254.72        3335.75           6667        1106.00      4796.68
 1254.75        3336.00           6670        2084.00      9061.75
 1254.79        3336.25           6674        4030.00     17551.52
 1254.82        3336.50           6678        6640.00     28944.91
 1254.86        3336.75           6682       10005.00     43645.60
 1254.89        3337.00           6685       12576.00     54886.28
 1254.93        3337.25           6689       16401.00     71623.66
 1254.96        3337.50           6693       20359.00     88960.71
 1255.00        3337.75           6697       24334.00    106390.50
 1255.03        3338.00           6700       27259.00    119227.80
 1255.06        3338.25           6704       31293.00    136948.60
 1255.10        3338.50           6708       35498.00    155440.70
 1255.13        3338.75           6712       39313.00    172235.50
 1255.17        3339.00           6715       42582.00    186640.20
 1255.20        3339.25           6719       46335.00    203193.00
 1255.24        3339.50           6723       50055.00    219616.60
 1255.28        3339.75           6727       53889.00    236560.40
 1255.31        3340.00           6730       56910.00    249923.50
 1255.34        3340.25           6734       60433.00    265520.70
 1255.38        3340.50           6738       63554.00    279350.50
 1255.41        3340.75           6742       66674.00    293187.40
 1255.45        3341.00           6745       68380.00    300758.10
 1255.48        3341.25           6749       69762.00    306893.60
 1255.52        3341.50           6753       69674.00    306502.90
 1255.55        3341.75           6756       69208.00    304433.80
 1255.59        3342.00           6760       67027.00    294753.60
 1255.62        3342.25           6764       64007.00    281358.70
 1255.66        3342.50           6768       60455.00    265618.20
 1255.69        3342.75           6771       57876.00    254198.70
 1255.73        3343.00           6775       53855.00    236410.10
 1255.76        3343.25           6779       50250.00    220477.90
 1255.80        3343.50           6783       46266.00    202888.50
 1255.83        3343.75           6786       43450.00    190467.10
 1255.87        3344.00           6790       39569.00    173363.10
 1255.90        3344.25           6794       35478.00    155352.70
 1255.94        3344.50           6798       31424.00    137524.40
 1255.97        3344.75           6801       28128.00    123043.60
 1256.00        3345.00           6805       24070.00    105232.30
 1256.04        3345.25           6809       19837.00     86673.20
 1256.07        3345.50           6813       15907.00     69461.07
 1256.11        3345.75           6817       12334.00     53827.91
 1256.14        3346.00           6820        9697.00     42299.49
 1256.18        3346.25           6824        6589.00     28722.21
 1256.21        3346.50           6828        3755.00     16351.53
 1256.24        3346.75           6832        1874.00      8145.84
 1256.28        3347.00           6835         928.00      4020.54
 1256.32        3347.25           6839         335.00      1435.11
 1256.35        3347.50           6843         155.00       650.40
 1256.39        3347.75           6847          87.00       353.97
 1256.42        3348.00           6850          79.00       319.10
 1256.46        3348.25           6854          76.00       306.02
 1256.49        3348.50           6858          73.00       292.94
 1256.53        3348.75           6862          76.00       306.02
 1256.56        3349.00           6865          68.00       271.14
 1256.59        3349.25           6869          64.00       253.71
 1256.63        3349.50           6873          62.00       244.99
 1256.66        3349.75           6877          66.00       262.43
 1256.70        3350.00           6880          71.00       284.22
 1256.73        3350.25           6884          56.00       218.83
 1256.77        3350.50           6888          69.00       275.50
 1256.80        3350.75           6892          68.00       271.14
 1256.84        3351.00           6895          69.00       275.50
HL scan finished at 20:57:41
end
