************************************************************
  HL Scan of (1) Internal mercury lamp
************************************************************
Integration time is 0.2294 seconds per sample
dh280718arosa 46.7828-9.6754 3.093087pr812
************************************************************
Dead Time -------------------------  3E-08 
Number of Cycles Used -------------  4 
Starting Wavelength (Angstroms) ---  3331 
Final Wavelength (Angstoms) -------  3351 
Wavelength Increment (Angstroms) --  .25 
Filter Wheel #1 Position ---------- (1) Ground quartz diffuser (ND=2.32)
Filter Wheel #2 Position ---------- (0) Clear Aperture



************************************************************
HL scan start time = 19:37:10
Dark Count =  7.8 


Time (GMT)  Wavelength (Ang)  Step Number  Raw Counts  Counts/Second

 1177.65        3331.00           6596          67.00       258.07
 1177.87        3331.25           6599          70.00       271.14
 1177.90        3331.50           6603          69.00       266.79
 1177.93        3331.75           6607          71.00       275.50
 1177.96        3332.00           6611          73.00       284.22
 1177.99        3332.25           6614          74.00       288.58
 1178.02        3332.50           6618          74.00       288.58
 1178.05        3332.75           6622          60.00       227.55
 1178.08        3333.00           6626          71.00       275.50
 1178.10        3333.25           6629          73.00       284.22
 1178.13        3333.50           6633          72.00       279.86
 1178.16        3333.75           6637          65.00       249.35
 1178.19        3334.00           6640          68.00       262.43
 1178.22        3334.25           6644          78.00       306.02
 1178.25        3334.50           6648          74.00       288.58
 1178.28        3334.75           6652          81.00       319.10
 1178.31        3335.00           6655          94.00       375.77
 1178.34        3335.25           6659         101.00       406.28
 1178.37        3335.50           6663         279.00      1182.26
 1178.40        3335.75           6667         850.00      3671.72
 1178.43        3336.00           6670        1594.00      6915.99
 1178.46        3336.25           6674        3248.00     14130.66
 1178.49        3336.50           6678        5573.00     24277.49
 1178.52        3336.75           6682        8530.00     37191.43
 1178.55        3337.00           6685       11273.00     49179.75
 1178.57        3337.25           6689       15152.00     66147.71
 1178.60        3337.50           6693       19123.00     83536.03
 1178.63        3337.75           6697       23223.00    101508.30
 1178.66        3338.00           6700       26134.00    114280.40
 1178.69        3338.25           6704       30431.00    133151.60
 1178.72        3338.50           6708       34771.00    152233.30
 1178.75        3338.75           6712       38795.00    169945.30
 1178.78        3339.00           6715       41840.00    183360.70
 1178.81        3339.25           6719       45758.00    200638.20
 1178.84        3339.50           6723       49583.00    217523.00
 1178.87        3339.75           6727       53263.00    233783.90
 1178.90        3340.00           6730       56354.00    247454.50
 1178.93        3340.25           6734       60088.00    263983.90
 1178.96        3340.50           6738       63332.00    278357.50
 1178.99        3340.75           6742       66870.00    294048.10
 1179.02        3341.00           6745       68712.00    302223.00
 1179.05        3341.25           6749       70835.00    311650.00
 1179.08        3341.50           6753       71049.00    312600.60
 1179.11        3341.75           6756       70462.00    309993.30
 1179.14        3342.00           6760       68907.00    303088.70
 1179.17        3342.25           6764       65875.00    289633.90
 1179.20        3342.50           6768       62965.00    276730.80
 1179.23        3342.75           6771       59891.00    263111.40
 1179.25        3343.00           6775       56455.00    247901.30
 1179.28        3343.25           6779       52536.00    230570.20
 1179.31        3343.50           6783       48429.00    212427.10
 1179.34        3343.75           6786       45324.00    198723.50
 1179.37        3344.00           6790       41221.00    180632.70
 1179.40        3344.25           6794       37302.00    163371.60
 1179.43        3344.50           6798       33056.00    144690.40
 1179.46        3344.75           6801       30207.00    132167.30
 1179.49        3345.00           6805       25739.00    112546.80
 1179.52        3345.25           6809       21373.00     93396.46
 1179.55        3345.50           6813       17591.00     76825.51
 1179.58        3345.75           6817       14018.00     61185.45
 1179.61        3346.00           6820       10896.00     47531.55
 1179.64        3346.25           6824        7330.00     31949.53
 1179.67        3346.50           6828        4579.00     19938.69
 1179.70        3346.75           6832        2402.00     10440.06
 1179.73        3347.00           6835        1285.00      5568.50
 1179.75        3347.25           6839         453.00      1940.83
 1179.78        3347.50           6843         182.00       759.39
 1179.81        3347.75           6847         109.00       441.16
 1179.84        3348.00           6850          91.00       362.69
 1179.87        3348.25           6854          82.00       323.46
 1179.90        3348.50           6858          80.00       314.74
 1179.93        3348.75           6862          75.00       292.94
 1179.96        3349.00           6865          71.00       275.50
 1179.99        3349.25           6869          68.00       262.43
 1180.02        3349.50           6873          71.00       275.50
 1180.05        3349.75           6877          68.00       262.43
 1180.08        3350.00           6880          71.00       275.50
 1180.11        3350.25           6884          65.00       249.35
 1180.14        3350.50           6888          71.00       275.50
 1180.17        3350.75           6892          72.00       279.86
 1180.20        3351.00           6895          67.00       258.07
HL scan finished at 19:41:02
end
