************************************************************
  HL Scan of (1) Internal mercury lamp
************************************************************
Integration time is 0.2294 seconds per sample
dh040818arosa 46.7828-9.6754 3.164464pr812
************************************************************
Dead Time -------------------------  3E-08 
Number of Cycles Used -------------  4 
Starting Wavelength (Angstroms) ---  3331 
Final Wavelength (Angstoms) -------  3351 
Wavelength Increment (Angstroms) --  .25 
Filter Wheel #1 Position ---------- (1) Ground quartz diffuser (ND=2.32)
Filter Wheel #2 Position ---------- (0) Clear Aperture



************************************************************
HL scan start time = 02:31:13
Dark Count =  7 


Time (GMT)  Wavelength (Ang)  Step Number  Raw Counts  Counts/Second

  151.69        3331.00           6596          64.00       248.48
  151.91        3331.25           6599          69.00       270.27
  151.94        3331.50           6603          76.00       300.79
  151.97        3331.75           6607          78.00       309.51
  152.00        3332.00           6611          71.00       278.99
  152.03        3332.25           6614          70.00       274.63
  152.06        3332.50           6618          68.00       265.91
  152.09        3332.75           6622          66.00       257.19
  152.12        3333.00           6626          68.00       265.91
  152.15        3333.25           6629          70.00       274.63
  152.18        3333.50           6633          72.00       283.35
  152.21        3333.75           6637          72.00       283.35
  152.24        3334.00           6640          67.00       261.55
  152.27        3334.25           6644          75.00       296.43
  152.30        3334.50           6648          67.00       261.55
  152.33        3334.75           6652          83.00       331.30
  152.36        3335.00           6655          98.00       396.69
  152.38        3335.25           6659         130.00       536.19
  152.41        3335.50           6663         392.00      1678.38
  152.44        3335.75           6667        1138.00      4930.98
  152.47        3336.00           6670        1996.00      8672.70
  152.50        3336.25           6674        3869.00     16843.73
  152.53        3336.50           6678        6481.00     28245.37
  152.56        3336.75           6682        9977.00     43517.98
  152.59        3337.00           6685       12896.00     56280.65
  152.62        3337.25           6689       16858.00     73619.26
  152.65        3337.50           6693       21236.00     92799.41
  152.68        3337.75           6697       25408.00    111097.70
  152.71        3338.00           6700       28366.00    124083.60
  152.74        3338.25           6704       32803.00    143581.40
  152.77        3338.50           6708       37201.00    162930.50
  152.80        3338.75           6712       41141.00    180283.70
  152.83        3339.00           6715       44405.00    194673.30
  152.86        3339.25           6719       48513.00    212801.50
  152.89        3339.50           6723       52729.00    231426.80
  152.92        3339.75           6727       56641.00    248727.90
  152.95        3340.00           6730       59779.00    262618.90
  152.97        3340.25           6734       64126.00    281881.10
  153.00        3340.50           6738       67338.00    296128.30
  153.03        3340.75           6742       70802.00    311507.00
  153.06        3341.00           6745       72745.00    320139.30
  153.09        3341.25           6749       74013.00    325775.20
  153.12        3341.50           6753       74466.00    327789.10
  153.15        3341.75           6756       73479.00    323401.50
  153.18        3342.00           6760       71682.00    315416.10
  153.21        3342.25           6764       68436.00    301001.40
  153.24        3342.50           6768       65012.00    285809.80
  153.27        3342.75           6771       61634.00    270836.00
  153.30        3343.00           6775       57961.00    254569.70
  153.33        3343.25           6779       53839.00    236334.00
  153.36        3343.50           6783       49902.00    218935.50
  153.39        3343.75           6786       46739.00    204970.60
  153.42        3344.00           6790       42641.00    186895.00
  153.45        3344.25           6794       38137.00    167051.30
  153.48        3344.50           6798       33748.00    147737.10
  153.51        3344.75           6801       30309.00    132619.00
  153.54        3345.00           6805       26370.00    115319.80
  153.57        3345.25           6809       21913.00     95767.34
  153.60        3345.50           6813       17497.00     76417.36
  153.62        3345.75           6817       13535.00     59075.84
  153.65        3346.00           6820       10669.00     46542.71
  153.68        3346.25           6824        7242.00     31568.68
  153.71        3346.50           6828        4442.00     19344.27
  153.74        3346.75           6832        2267.00      9854.70
  153.77        3347.00           6835        1178.00      5105.40
  153.80        3347.25           6839         428.00      1835.32
  153.83        3347.50           6843         185.00       775.96
  153.86        3347.75           6847         108.00       440.28
  153.89        3348.00           6850          91.00       366.18
  153.92        3348.25           6854          74.00       292.07
  153.95        3348.50           6858          79.00       313.87
  153.98        3348.75           6862          74.00       292.07
  154.01        3349.00           6865          69.00       270.27
  154.04        3349.25           6869          75.00       296.43
  154.06        3349.50           6873          68.00       265.91
  154.09        3349.75           6877          82.00       326.94
  154.12        3350.00           6880          74.00       292.07
  154.15        3350.25           6884          75.00       296.43
  154.18        3350.50           6888          74.00       292.07
  154.21        3350.75           6892          76.00       300.79
  154.24        3351.00           6895          73.00       287.71
HL scan finished at 02:35:05
end
************************************************************
  HL Scan of (1) Internal mercury lamp
************************************************************
Integration time is 0.2294 seconds per sample
dh040818arosa 46.7828-9.6754 3.225644pr812
************************************************************
Dead Time -------------------------  3E-08 
Number of Cycles Used -------------  4 
Starting Wavelength (Angstroms) ---  3331 
Final Wavelength (Angstoms) -------  3351 
Wavelength Increment (Angstroms) --  .25 
Filter Wheel #1 Position ---------- (1) Ground quartz diffuser (ND=2.32)
Filter Wheel #2 Position ---------- (0) Clear Aperture



************************************************************
HL scan start time = 19:44:02
Dark Count =  7.4 


Time (GMT)  Wavelength (Ang)  Step Number  Raw Counts  Counts/Second

 1184.52        3331.00           6596          70.00       272.89
 1184.74        3331.25           6599          70.00       272.89
 1184.77        3331.50           6603          66.00       255.45
 1184.80        3331.75           6607          73.00       285.97
 1184.83        3332.00           6611          69.00       268.53
 1184.86        3332.25           6614          69.00       268.53
 1184.89        3332.50           6618          66.00       255.45
 1184.92        3332.75           6622          67.00       259.81
 1184.95        3333.00           6626          72.00       281.61
 1184.98        3333.25           6629          74.00       290.33
 1185.01        3333.50           6633          79.00       312.12
 1185.03        3333.75           6637          73.00       285.97
 1185.06        3334.00           6640          72.00       281.61
 1185.09        3334.25           6644          74.00       290.33
 1185.12        3334.50           6648          79.00       312.12
 1185.15        3334.75           6652          81.00       320.84
 1185.18        3335.00           6655          92.00       368.79
 1185.21        3335.25           6659         131.00       538.81
 1185.24        3335.50           6663         399.00      1707.15
 1185.27        3335.75           6667        1179.00      5108.02
 1185.30        3336.00           6670        2144.00      9316.47
 1185.33        3336.25           6674        4021.00     17505.27
 1185.36        3336.50           6678        6849.00     29850.61
 1185.39        3336.75           6682       10270.00     44796.87
 1185.42        3337.00           6685       13202.00     57617.38
 1185.45        3337.25           6689       17534.00     76577.65
 1185.48        3337.50           6693       21559.00     94213.59
 1185.50        3337.75           6697       25857.00    113066.40
 1185.53        3338.00           6700       28810.00    126031.90
 1185.56        3338.25           6704       33528.00    146767.80
 1185.59        3338.50           6708       38129.00    167014.30
 1185.62        3338.75           6712       42798.00    187585.40
 1185.65        3339.00           6715       46029.00    201835.70
 1185.68        3339.25           6719       49955.00    219167.80
 1185.71        3339.50           6723       54112.00    237539.40
 1185.74        3339.75           6727       58201.00    255630.40
 1185.77        3340.00           6730       61739.00    271299.40
 1185.80        3340.25           6734       65339.00    287258.30
 1185.83        3340.50           6738       68993.00    303472.20
 1185.86        3340.75           6742       72332.00    318302.30
 1185.89        3341.00           6745       74197.00    326591.40
 1185.92        3341.25           6749       76225.00    335609.70
 1185.95        3341.50           6753       76085.00    334987.00
 1185.98        3341.75           6756       75507.00    332416.30
 1186.01        3342.00           6760       73510.00    323537.50
 1186.04        3342.25           6764       70398.00    309710.90
 1186.07        3342.50           6768       66760.00    293561.90
 1186.10        3342.75           6771       63474.00    278988.80
 1186.12        3343.00           6775       59777.00    262608.30
 1186.15        3343.25           6779       55180.00    242262.70
 1186.18        3343.50           6783       51454.00    225790.20
 1186.21        3343.75           6786       48064.00    210817.40
 1186.24        3344.00           6790       43577.00    191020.10
 1186.27        3344.25           6794       39318.00    172250.50
 1186.30        3344.50           6798       34947.00    153009.40
 1186.33        3344.75           6801       31390.00    137367.90
 1186.36        3345.00           6805       26643.00    116516.40
 1186.39        3345.25           6809       22289.00     97414.18
 1186.42        3345.50           6813       17976.00     78513.40
 1186.45        3345.75           6817       14063.00     61384.08
 1186.48        3346.00           6820       11094.00     48398.91
 1186.51        3346.25           6824        7524.00     32798.60
 1186.54        3346.50           6828        4723.00     20568.92
 1186.57        3346.75           6832        2317.00     10071.05
 1186.60        3347.00           6835        1215.00      5265.00
 1186.63        3347.25           6839         437.00      1872.82
 1186.65        3347.50           6843         163.00       678.31
 1186.68        3347.75           6847         110.00       447.26
 1186.71        3348.00           6850          96.00       386.23
 1186.74        3348.25           6854          89.00       355.71
 1186.77        3348.50           6858          80.00       316.48
 1186.80        3348.75           6862          78.00       307.76
 1186.83        3349.00           6865          70.00       272.89
 1186.86        3349.25           6869          69.00       268.53
 1186.89        3349.50           6873          66.00       255.45
 1186.92        3349.75           6877          76.00       299.04
 1186.95        3350.00           6880          59.00       224.94
 1186.98        3350.25           6884          76.00       299.04
 1187.01        3350.50           6888          70.00       272.89
 1187.04        3350.75           6892          78.00       307.76
 1187.07        3351.00           6895          71.00       277.25
HL scan finished at 19:47:54
end
