************************************************************
  HL Scan of (1) Internal mercury lamp
************************************************************
Integration time is 0.2294 seconds per sample
dh010818arosa 46.7828-9.6754 3.169562pr812
************************************************************
Dead Time -------------------------  3E-08 
Number of Cycles Used -------------  4 
Starting Wavelength (Angstroms) ---  3331 
Final Wavelength (Angstoms) -------  3351 
Wavelength Increment (Angstroms) --  .25 
Filter Wheel #1 Position ---------- (1) Ground quartz diffuser (ND=2.32)
Filter Wheel #2 Position ---------- (0) Clear Aperture



************************************************************
HL scan start time = 02:25:36
Dark Count =  7.2 


Time (GMT)  Wavelength (Ang)  Step Number  Raw Counts  Counts/Second

  146.08        3331.00           6596          72.00       282.48
  146.30        3331.25           6599          70.00       273.76
  146.33        3331.50           6603          73.00       286.84
  146.36        3331.75           6607          60.00       230.17
  146.39        3332.00           6611          67.00       260.68
  146.42        3332.25           6614          74.00       291.20
  146.45        3332.50           6618          61.00       234.53
  146.48        3332.75           6622          74.00       291.20
  146.51        3333.00           6626          70.00       273.76
  146.54        3333.25           6629          63.00       243.25
  146.57        3333.50           6633          67.00       260.68
  146.60        3333.75           6637          69.00       269.40
  146.63        3334.00           6640          73.00       286.84
  146.66        3334.25           6644          74.00       291.20
  146.69        3334.50           6648          69.00       269.40
  146.71        3334.75           6652          82.00       326.07
  146.74        3335.00           6655         100.00       404.54
  146.77        3335.25           6659         124.00       509.16
  146.80        3335.50           6663         413.00      1769.06
  146.83        3335.75           6667        1106.00      4790.58
  146.86        3336.00           6670        2125.00      9234.47
  146.89        3336.25           6674        3991.00     17375.23
  146.92        3336.50           6678        6730.00     29331.82
  146.95        3336.75           6682       10198.00     44483.04
  146.98        3337.00           6685       13103.00     57185.20
  147.01        3337.25           6689       17102.00     74686.78
  147.04        3337.50           6693       21423.00     93618.28
  147.07        3337.75           6697       25506.00    111526.90
  147.10        3338.00           6700       28764.00    125830.70
  147.13        3338.25           6704       33096.00    144868.90
  147.16        3338.50           6708       37482.00    164166.60
  147.19        3338.75           6712       41491.00    181825.20
  147.21        3339.00           6715       44739.00    196145.60
  147.24        3339.25           6719       48638.00    213352.50
  147.27        3339.50           6723       53011.00    232672.50
  147.30        3339.75           6727       57093.00    250727.20
  147.33        3340.00           6730       59928.00    263277.90
  147.36        3340.25           6734       63772.00    280310.80
  147.39        3340.50           6738       67579.00    297196.80
  147.42        3340.75           6742       70896.00    311923.60
  147.45        3341.00           6745       72578.00    319396.30
  147.48        3341.25           6749       74227.00    326725.60
  147.51        3341.50           6753       74275.00    326939.00
  147.54        3341.75           6756       73610.00    323982.80
  147.57        3342.00           6760       71415.00    314229.00
  147.60        3342.25           6764       68087.00    299451.40
  147.63        3342.50           6768       64693.00    284394.30
  147.66        3342.75           6771       61860.00    271836.50
  147.69        3343.00           6775       57773.00    253736.70
  147.72        3343.25           6779       53765.00    236006.00
  147.75        3343.50           6783       49573.00    217481.50
  147.78        3343.75           6786       46387.00    203416.30
  147.80        3344.00           6790       42026.00    184183.20
  147.83        3344.25           6794       37832.00    165707.50
  147.86        3344.50           6798       33537.00    146808.20
  147.89        3344.75           6801       30106.00    131726.20
  147.92        3345.00           6805       25905.00    113278.00
  147.95        3345.25           6809       21390.00     93473.61
  147.98        3345.50           6813       17342.00     75737.72
  148.01        3345.75           6817       13406.00     58510.64
  148.04        3346.00           6820       10656.00     46485.01
  148.07        3346.25           6824        7065.00     30794.78
  148.10        3346.50           6828        4188.00     18234.91
  148.13        3346.75           6832        2119.00      9208.30
  148.16        3347.00           6835        1135.00      4917.03
  148.19        3347.25           6839         393.00      1681.86
  148.22        3347.50           6843         165.00       687.90
  148.25        3347.75           6847         104.00       421.98
  148.28        3348.00           6850          85.00       339.15
  148.31        3348.25           6854          88.00       352.23
  148.34        3348.50           6858          93.00       374.02
  148.37        3348.75           6862          85.00       339.15
  148.40        3349.00           6865          79.00       312.99
  148.43        3349.25           6869          71.00       278.12
  148.45        3349.50           6873          68.00       265.04
  148.48        3349.75           6877          77.00       304.27
  148.51        3350.00           6880          69.00       269.40
  148.54        3350.25           6884          66.00       256.32
  148.57        3350.50           6888          65.00       251.96
  148.60        3350.75           6892          67.00       260.68
  148.63        3351.00           6895          81.00       321.71
HL scan finished at 02:29:28
end
************************************************************
  HL Scan of (1) Internal mercury lamp
************************************************************
Integration time is 0.2294 seconds per sample
dh010818arosa 46.7828-9.6754 3.077792pr812
************************************************************
Dead Time -------------------------  3E-08 
Number of Cycles Used -------------  4 
Starting Wavelength (Angstroms) ---  3331 
Final Wavelength (Angstoms) -------  3351 
Wavelength Increment (Angstroms) --  .25 
Filter Wheel #1 Position ---------- (1) Ground quartz diffuser (ND=2.32)
Filter Wheel #2 Position ---------- (0) Clear Aperture



************************************************************
HL scan start time = 19:08:54
Dark Count =  4.7 


Time (GMT)  Wavelength (Ang)  Step Number  Raw Counts  Counts/Second

 1149.37        3331.00           6596          60.00       241.07
 1149.60        3331.25           6599          67.00       271.58
 1149.62        3331.50           6603          70.00       284.66
 1149.65        3331.75           6607          72.00       293.38
 1149.68        3332.00           6611          69.00       280.30
 1149.71        3332.25           6614          70.00       284.66
 1149.74        3332.50           6618          68.00       275.94
 1149.77        3332.75           6622          72.00       293.38
 1149.80        3333.00           6626          70.00       284.66
 1149.83        3333.25           6629          62.00       249.78
 1149.86        3333.50           6633          68.00       275.94
 1149.89        3333.75           6637          70.00       284.66
 1149.92        3334.00           6640          78.00       319.53
 1149.95        3334.25           6644          73.00       297.74
 1149.97        3334.50           6648          80.00       328.25
 1150.00        3334.75           6652          74.00       302.10
 1150.03        3335.00           6655          82.00       336.97
 1150.06        3335.25           6659         123.00       515.70
 1150.09        3335.50           6663         390.00      1679.68
 1150.12        3335.75           6667        1114.00      4836.36
 1150.15        3336.00           6670        1987.00      8643.48
 1150.18        3336.25           6674        3807.00     16583.23
 1150.21        3336.50           6678        6331.00     27600.44
 1150.24        3336.75           6682        9459.00     41264.22
 1150.27        3337.00           6685       12367.00     53977.05
 1150.30        3337.25           6689       16025.00     69982.43
 1150.33        3337.50           6693       19898.00     86945.33
 1150.36        3337.75           6697       23837.00    104215.00
 1150.39        3338.00           6700       26524.00    116005.90
 1150.42        3338.25           6704       30466.00    133319.00
 1150.45        3338.50           6708       34774.00    152260.20
 1150.48        3338.75           6712       38900.00    170421.40
 1150.50        3339.00           6715       41932.00    183779.90
 1150.53        3339.25           6719       45545.00    199712.20
 1150.56        3339.50           6723       49334.00    216437.00
 1150.59        3339.75           6727       53220.00    233607.50
 1150.62        3340.00           6730       55968.00    245760.40
 1150.65        3340.25           6734       59356.00    260756.00
 1150.68        3340.50           6738       62724.00    275676.40
 1150.71        3340.75           6742       65787.00    289257.30
 1150.74        3341.00           6745       67758.00    298002.30
 1150.77        3341.25           6749       69207.00    304434.30
 1150.80        3341.50           6753       69079.00    303866.00
 1150.83        3341.75           6756       68241.00    300146.00
 1150.86        3342.00           6760       66279.00    291439.80
 1150.89        3342.25           6764       63313.00    278287.00
 1150.92        3342.50           6768       60121.00    264143.80
 1150.95        3342.75           6771       57231.00    251349.00
 1150.98        3343.00           6775       53704.00    235747.30
 1151.01        3343.25           6779       50056.00    219625.90
 1151.04        3343.50           6783       46360.00    203308.20
 1151.07        3343.75           6786       43310.00    189854.70
 1151.10        3344.00           6790       38996.00    170844.20
 1151.13        3344.25           6794       35552.00    155683.10
 1151.15        3344.50           6798       31343.00    137173.20
 1151.18        3344.75           6801       28138.00    123092.30
 1151.21        3345.00           6805       24009.00    104969.50
 1151.24        3345.25           6809       19841.00     86695.55
 1151.27        3345.50           6813       16208.00     70783.54
 1151.30        3345.75           6817       12501.00     54563.08
 1151.33        3346.00           6820        9744.00     42509.72
 1151.36        3346.25           6824        6591.00     28735.75
 1151.39        3346.50           6828        4036.00     17582.51
 1151.42        3346.75           6832        2091.00      9097.08
 1151.45        3347.00           6835        1039.00      4509.33
 1151.48        3347.25           6839         368.00      1583.77
 1151.51        3347.50           6843         148.00       624.68
 1151.54        3347.75           6847          91.00       376.20
 1151.56        3348.00           6850          91.00       376.20
 1151.59        3348.25           6854          74.00       302.10
 1151.62        3348.50           6858          73.00       297.74
 1151.65        3348.75           6862          81.00       332.61
 1151.68        3349.00           6865          69.00       280.30
 1151.71        3349.25           6869          67.00       271.58
 1151.74        3349.50           6873          68.00       275.94
 1151.77        3349.75           6877          68.00       275.94
 1151.80        3350.00           6880          69.00       280.30
 1151.83        3350.25           6884          73.00       297.74
 1151.86        3350.50           6888          69.00       280.30
 1151.89        3350.75           6892          77.00       315.17
 1151.92        3351.00           6895          75.00       306.45
HL scan finished at 19:12:46
end
