************************************************************
  HL Scan of (1) Internal mercury lamp
************************************************************
Integration time is 0.2294 seconds per sample
dh300718arosa 46.7828-9.6754 3.169562pr812
************************************************************
Dead Time -------------------------  3E-08 
Number of Cycles Used -------------  4 
Starting Wavelength (Angstroms) ---  3331 
Final Wavelength (Angstoms) -------  3351 
Wavelength Increment (Angstroms) --  .25 
Filter Wheel #1 Position ---------- (1) Ground quartz diffuser (ND=2.32)
Filter Wheel #2 Position ---------- (0) Clear Aperture



************************************************************
HL scan start time = 02:37:08
Dark Count =  5.6 


Time (GMT)  Wavelength (Ang)  Step Number  Raw Counts  Counts/Second

  157.62        3331.00           6596          68.00       272.02
  157.84        3331.25           6599          84.00       341.76
  157.87        3331.50           6603          69.00       276.38
  157.90        3331.75           6607          70.00       280.73
  157.93        3332.00           6611          67.00       267.66
  157.96        3332.25           6614          73.00       293.81
  157.99        3332.50           6618          62.00       245.86
  158.02        3332.75           6622          62.00       245.86
  158.05        3333.00           6626          72.00       289.45
  158.08        3333.25           6629          65.00       258.94
  158.11        3333.50           6633          79.00       319.97
  158.14        3333.75           6637          73.00       293.81
  158.17        3334.00           6640          66.00       263.30
  158.20        3334.25           6644          70.00       280.73
  158.23        3334.50           6648          74.00       298.17
  158.26        3334.75           6652          73.00       293.81
  158.29        3335.00           6655          88.00       359.20
  158.32        3335.25           6659         121.00       503.06
  158.35        3335.50           6663         399.00      1715.00
  158.37        3335.75           6667        1165.00      5054.82
  158.40        3336.00           6670        2049.00      8909.97
  158.43        3336.25           6674        3902.00     16993.84
  158.46        3336.50           6678        6402.00     27906.53
  158.49        3336.75           6682        9700.00     42313.49
  158.52        3337.00           6685       12519.00     54637.88
  158.55        3337.25           6689       16401.00     71624.53
  158.58        3337.50           6693       20551.00     89803.08
  158.61        3337.75           6697       24538.00    107286.40
  158.64        3338.00           6700       27799.00    121599.70
  158.67        3338.25           6704       32064.00    140338.50
  158.70        3338.50           6708       36395.00    159388.90
  158.73        3338.75           6712       40400.00    177024.80
  158.76        3339.00           6715       43578.00    191032.40
  158.79        3339.25           6719       47420.00    207982.40
  158.82        3339.50           6723       51144.00    224428.40
  158.85        3339.75           6727       55192.00    242323.70
  158.88        3340.00           6730       58248.00    255846.40
  158.91        3340.25           6734       61974.00    272348.70
  158.94        3340.50           6738       65492.00    287944.90
  158.97        3340.75           6742       68951.00    303293.80
  159.00        3341.00           6745       70666.00    310909.10
  159.02        3341.25           6749       72368.00    318470.30
  159.05        3341.50           6753       72498.00    319047.90
  159.08        3341.75           6756       71719.00    315586.70
  159.11        3342.00           6760       69498.00    305722.30
  159.14        3342.25           6764       66510.00    292460.60
  159.17        3342.50           6768       63131.00    277476.40
  159.20        3342.75           6771       60338.00    265100.90
  159.23        3343.00           6775       56766.00    249287.20
  159.26        3343.25           6779       52549.00    230637.40
  159.29        3343.50           6783       48397.00    212295.50
  159.32        3343.75           6786       45470.00    199377.30
  159.35        3344.00           6790       40995.00    179646.50
  159.38        3344.25           6794       37164.00    162773.80
  159.41        3344.50           6798       32913.00    144071.20
  159.44        3344.75           6801       29883.00    130753.40
  159.47        3345.00           6805       25285.00    110564.10
  159.50        3345.25           6809       20985.00     91705.31
  159.53        3345.50           6813       17055.00     74487.98
  159.56        3345.75           6817       13406.00     58517.64
  159.59        3346.00           6820       10485.00     45744.52
  159.62        3346.25           6824        6955.00     30321.38
  159.65        3346.50           6828        4131.00     17993.15
  159.67        3346.75           6832        2178.00      9472.61
  159.70        3347.00           6835        1093.00      4740.87
  159.73        3347.25           6839         383.00      1645.24
  159.76        3347.50           6843         151.00       633.84
  159.79        3347.75           6847         103.00       424.59
  159.82        3348.00           6850          83.00       337.41
  159.85        3348.25           6854          79.00       319.97
  159.88        3348.50           6858          78.00       315.61
  159.91        3348.75           6862          69.00       276.38
  159.94        3349.00           6865          72.00       289.45
  159.97        3349.25           6869          70.00       280.73
  160.00        3349.50           6873          75.00       302.53
  160.03        3349.75           6877          72.00       289.45
  160.06        3350.00           6880          67.00       267.66
  160.09        3350.25           6884          69.00       276.38
  160.12        3350.50           6888          71.00       285.09
  160.15        3350.75           6892          74.00       298.17
  160.18        3351.00           6895          69.00       276.38
HL scan finished at 02:41:01
end
************************************************************
  HL Scan of (1) Internal mercury lamp
************************************************************
Integration time is 0.2294 seconds per sample
dh300718arosa 46.7828-9.6754 3.368396pr812
************************************************************
Dead Time -------------------------  3E-08 
Number of Cycles Used -------------  4 
Starting Wavelength (Angstroms) ---  3331 
Final Wavelength (Angstoms) -------  3351 
Wavelength Increment (Angstroms) --  .25 
Filter Wheel #1 Position ---------- (1) Ground quartz diffuser (ND=2.32)
Filter Wheel #2 Position ---------- (0) Clear Aperture



************************************************************
HL scan start time = 19:44:00
Dark Count =  6.4 


Time (GMT)  Wavelength (Ang)  Step Number  Raw Counts  Counts/Second

 1184.49        3331.00           6596          68.00       268.53
 1184.71        3331.25           6599          76.00       303.40
 1184.74        3331.50           6603          75.00       299.04
 1184.77        3331.75           6607          69.00       272.89
 1184.80        3332.00           6611          73.00       290.33
 1184.82        3332.25           6614          80.00       320.84
 1184.85        3332.50           6618          71.00       281.61
 1184.88        3332.75           6622          74.00       294.68
 1184.91        3333.00           6626          70.00       277.25
 1184.94        3333.25           6629          72.00       285.97
 1184.97        3333.50           6633          77.00       307.76
 1185.00        3333.75           6637          77.00       307.76
 1185.03        3334.00           6640          74.00       294.68
 1185.06        3334.25           6644          77.00       307.76
 1185.09        3334.50           6648          72.00       285.97
 1185.12        3334.75           6652          83.00       333.92
 1185.15        3335.00           6655          90.00       364.43
 1185.18        3335.25           6659         146.00       608.56
 1185.20        3335.50           6663         455.00      1955.65
 1185.23        3335.75           6667        1295.00      5618.21
 1185.26        3336.00           6670        2285.00      9935.83
 1185.29        3336.25           6674        4428.00     19285.79
 1185.32        3336.50           6678        7351.00     32047.36
 1185.35        3336.75           6682       11034.00     48140.97
 1185.38        3337.00           6685       14259.00     62246.03
 1185.41        3337.25           6689       18423.00     80475.66
 1185.44        3337.50           6693       22756.00     99466.38
 1185.47        3337.75           6697       27292.00    119370.00
 1185.50        3338.00           6700       31058.00    135913.10
 1185.53        3338.25           6704       35815.00    156832.90
 1185.56        3338.50           6708       40306.00    176607.20
 1185.59        3338.75           6712       44720.00    196065.30
 1185.62        3339.00           6715       48092.00    210945.40
 1185.65        3339.25           6719       52365.00    229820.60
 1185.68        3339.50           6723       56739.00    249164.20
 1185.71        3339.75           6727       60916.00    267657.60
 1185.73        3340.00           6730       64552.00    283772.60
 1185.76        3340.25           6734       68928.00    303188.10
 1185.79        3340.50           6738       72609.00    319537.60
 1185.82        3340.75           6742       76292.00    335912.10
 1185.85        3341.00           6745       78080.00    343867.40
 1185.88        3341.25           6749       79834.00    351675.10
 1185.91        3341.50           6753       79996.00    352396.40
 1185.94        3341.75           6756       78875.00    347405.80
 1185.97        3342.00           6760       76661.00    337553.60
 1186.00        3342.25           6764       73299.00    322604.10
 1186.03        3342.50           6768       69707.00    306646.80
 1186.06        3342.75           6771       66878.00    294089.80
 1186.09        3343.00           6775       62040.00    272637.60
 1186.12        3343.25           6779       57772.00    253735.80
 1186.15        3343.50           6783       53594.00    235253.50
 1186.18        3343.75           6786       50517.00    221654.80
 1186.21        3344.00           6790       45775.00    200719.40
 1186.24        3344.25           6794       40818.00    178863.10
 1186.27        3344.50           6798       36597.00    160274.50
 1186.30        3344.75           6801       32528.00    142374.90
 1186.32        3345.00           6805       27791.00    121561.10
 1186.35        3345.25           6809       23450.00    102510.10
 1186.38        3345.50           6813       18791.00     82087.70
 1186.41        3345.75           6817       14516.00     63370.58
 1186.44        3346.00           6820       11244.00     49059.07
 1186.47        3346.25           6824        7595.00     33113.09
 1186.50        3346.50           6828        4725.00     20582.02
 1186.53        3346.75           6832        2410.00     10481.06
 1186.56        3347.00           6835        1248.00      5413.26
 1186.59        3347.25           6839         439.00      1885.90
 1186.62        3347.50           6843         179.00       752.41
 1186.65        3347.75           6847         112.00       460.34
 1186.68        3348.00           6850          98.00       399.31
 1186.71        3348.25           6854          79.00       316.48
 1186.74        3348.50           6858          78.00       312.12
 1186.77        3348.75           6862          84.00       338.28
 1186.80        3349.00           6865          71.00       281.61
 1186.83        3349.25           6869          79.00       316.48
 1186.86        3349.50           6873          75.00       299.04
 1186.89        3349.75           6877          71.00       281.61
 1186.92        3350.00           6880          76.00       303.40
 1186.94        3350.25           6884          80.00       320.84
 1186.97        3350.50           6888          71.00       281.61
 1187.00        3350.75           6892          68.00       268.53
 1187.03        3351.00           6895          70.00       277.25
HL scan finished at 19:47:52
end
