************************************************************
  HL Scan of (1) Internal mercury lamp
************************************************************
Integration time is 0.2294 seconds per sample
dh020818arosa 46.7828-9.6754 3.042104pr812
************************************************************
Dead Time -------------------------  3E-08 
Number of Cycles Used -------------  4 
Starting Wavelength (Angstroms) ---  3331 
Final Wavelength (Angstoms) -------  3351 
Wavelength Increment (Angstroms) --  .25 
Filter Wheel #1 Position ---------- (1) Ground quartz diffuser (ND=2.32)
Filter Wheel #2 Position ---------- (0) Clear Aperture



************************************************************
HL scan start time = 02:28:18
Dark Count =  6.4 


Time (GMT)  Wavelength (Ang)  Step Number  Raw Counts  Counts/Second

  148.78        3331.00           6596          69.00       272.89
  149.00        3331.25           6599          63.00       246.73
  149.03        3331.50           6603          67.00       264.17
  149.06        3331.75           6607          74.00       294.68
  149.09        3332.00           6611          68.00       268.53
  149.12        3332.25           6614          64.00       251.09
  149.15        3332.50           6618          64.00       251.09
  149.17        3332.75           6622          71.00       281.61
  149.20        3333.00           6626          66.00       259.81
  149.23        3333.25           6629          73.00       290.33
  149.26        3333.50           6633          67.00       264.17
  149.29        3333.75           6637          67.00       264.17
  149.32        3334.00           6640          78.00       312.12
  149.35        3334.25           6644          73.00       290.33
  149.38        3334.50           6648          76.00       303.40
  149.41        3334.75           6652          86.00       347.00
  149.44        3335.00           6655          87.00       351.36
  149.47        3335.25           6659         141.00       586.76
  149.50        3335.50           6663         453.00      1946.93
  149.53        3335.75           6667        1207.00      5234.47
  149.56        3336.00           6670        2160.00      9390.62
  149.59        3336.25           6674        4047.00     17623.09
  149.62        3336.50           6678        6734.00     29352.78
  149.64        3336.75           6682       10045.00     43817.80
  149.67        3337.00           6685       12675.00     55316.65
  149.70        3337.25           6689       16351.00     71402.13
  149.73        3337.50           6693       20362.00     88971.24
  149.76        3337.75           6697       24380.00    106589.60
  149.79        3338.00           6700       27642.00    120906.80
  149.82        3338.25           6704       31494.00    137829.40
  149.85        3338.50           6708       35695.00    156304.90
  149.88        3338.75           6712       39746.00    174140.20
  149.91        3339.00           6715       42320.00    185482.60
  149.94        3339.25           6719       46170.00    202462.30
  149.97        3339.50           6723       49858.00    218743.80
  150.00        3339.75           6727       53967.00    236902.70
  150.03        3340.00           6730       56471.00    247978.30
  150.06        3340.25           6734       60071.00    263914.80
  150.09        3340.50           6738       63645.00    279751.30
  150.12        3340.75           6742       66522.00    292510.40
  150.15        3341.00           6745       68231.00    300094.10
  150.18        3341.25           6749       69508.00    305763.20
  150.21        3341.50           6753       69427.00    305403.50
  150.24        3341.75           6756       68615.00    301798.60
  150.26        3342.00           6760       66245.00    291281.50
  150.29        3342.25           6764       63336.00    278381.50
  150.32        3342.50           6768       59898.00    263148.60
  150.35        3342.75           6771       57213.00    251261.80
  150.38        3343.00           6775       53226.00    233626.50
  150.41        3343.25           6779       49617.00    217679.30
  150.44        3343.50           6783       45894.00    201244.50
  150.47        3343.75           6786       42685.00    187091.60
  150.50        3344.00           6790       38624.00    169198.40
  150.53        3344.25           6794       34927.00    152925.80
  150.56        3344.50           6798       30698.00    134331.00
  150.59        3344.75           6801       27720.00    121249.30
  150.62        3345.00           6805       23460.00    102553.90
  150.65        3345.25           6809       19359.00     84576.13
  150.68        3345.50           6813       15598.00     68105.88
  150.71        3345.75           6817       11886.00     51866.17
  150.74        3346.00           6820        9237.00     40286.68
  150.77        3346.25           6824        6053.00     26379.20
  150.80        3346.50           6828        3678.00     16012.92
  150.83        3346.75           6832        1760.00      7646.04
  150.86        3347.00           6835         889.00      3847.87
  150.88        3347.25           6839         329.00      1406.34
  150.91        3347.50           6843         132.00       547.52
  150.94        3347.75           6847          94.00       381.87
  150.97        3348.00           6850          85.00       342.64
  151.00        3348.25           6854          86.00       347.00
  151.03        3348.50           6858          67.00       264.17
  151.06        3348.75           6862          78.00       312.12
  151.09        3349.00           6865          73.00       290.33
  151.12        3349.25           6869          75.00       299.04
  151.15        3349.50           6873          70.00       277.25
  151.18        3349.75           6877          75.00       299.04
  151.21        3350.00           6880          68.00       268.53
  151.24        3350.25           6884          81.00       325.20
  151.27        3350.50           6888          70.00       277.25
  151.30        3350.75           6892          71.00       281.61
  151.33        3351.00           6895          78.00       312.12
HL scan finished at 02:32:10
end
************************************************************
  HL Scan of (1) Internal mercury lamp
************************************************************
Integration time is 0.2294 seconds per sample
dh020818arosa 46.7828-9.6754 3.159365pr812
************************************************************
Dead Time -------------------------  3E-08 
Number of Cycles Used -------------  4 
Starting Wavelength (Angstroms) ---  3331 
Final Wavelength (Angstoms) -------  3351 
Wavelength Increment (Angstroms) --  .25 
Filter Wheel #1 Position ---------- (1) Ground quartz diffuser (ND=2.32)
Filter Wheel #2 Position ---------- (0) Clear Aperture



************************************************************
HL scan start time = 19:35:08
Dark Count =  6.4 


Time (GMT)  Wavelength (Ang)  Step Number  Raw Counts  Counts/Second

 1175.62        3331.00           6596          75.00       299.04
 1175.84        3331.25           6599          66.00       259.81
 1175.87        3331.50           6603          66.00       259.81
 1175.90        3331.75           6607          66.00       259.81
 1175.93        3332.00           6611          62.00       242.37
 1175.95        3332.25           6614          63.00       246.73
 1175.98        3332.50           6618          78.00       312.12
 1176.01        3332.75           6622          71.00       281.61
 1176.04        3333.00           6626          63.00       246.73
 1176.07        3333.25           6629          73.00       290.33
 1176.10        3333.50           6633          70.00       277.25
 1176.13        3333.75           6637          69.00       272.89
 1176.16        3334.00           6640          63.00       246.73
 1176.19        3334.25           6644          72.00       285.97
 1176.22        3334.50           6648          87.00       351.36
 1176.25        3334.75           6652          83.00       333.92
 1176.28        3335.00           6655          86.00       347.00
 1176.31        3335.25           6659         120.00       495.21
 1176.34        3335.50           6663         368.00      1576.36
 1176.37        3335.75           6667        1078.00      4671.97
 1176.40        3336.00           6670        1960.00      8518.31
 1176.43        3336.25           6674        3810.00     16588.90
 1176.46        3336.50           6678        6566.00     28619.16
 1176.48        3336.75           6682        9789.00     42698.95
 1176.51        3337.00           6685       12591.00     54949.27
 1176.54        3337.25           6689       16511.00     72102.62
 1176.57        3337.50           6693       20541.00     89755.74
 1176.60        3337.75           6697       24514.00    107177.50
 1176.63        3338.00           6700       27949.00    122254.90
 1176.66        3338.25           6704       32286.00    141311.00
 1176.69        3338.50           6708       36494.00    159821.10
 1176.72        3338.75           6712       40663.00    178180.10
 1176.75        3339.00           6715       43797.00    191994.60
 1176.78        3339.25           6719       47767.00    209510.60
 1176.81        3339.50           6723       51547.00    226205.60
 1176.84        3339.75           6727       55590.00    244080.70
 1176.87        3340.00           6730       58609.00    257441.00
 1176.90        3340.25           6734       62459.00    274494.40
 1176.93        3340.50           6738       66109.00    290678.10
 1176.95        3340.75           6742       69403.00    305297.00
 1176.98        3341.00           6745       71147.00    313042.10
 1177.01        3341.25           6749       72951.00    321057.50
 1177.04        3341.50           6753       72967.00    321128.60
 1177.07        3341.75           6756       72175.00    317609.10
 1177.10        3342.00           6760       70199.00    308831.50
 1177.13        3342.25           6764       67157.00    295327.80
 1177.16        3342.50           6768       63677.00    279893.10
 1177.19        3342.75           6771       60574.00    266142.70
 1177.22        3343.00           6775       57240.00    251381.30
 1177.25        3343.25           6779       53129.00    233197.70
 1177.28        3343.50           6783       49092.00    215360.80
 1177.31        3343.75           6786       46126.00    202268.10
 1177.34        3344.00           6790       41671.00    182622.00
 1177.37        3344.25           6794       37677.00    165028.60
 1177.40        3344.50           6798       33381.00    146125.70
 1177.43        3344.75           6801       30006.00    131290.30
 1177.46        3345.00           6805       25648.00    112153.50
 1177.49        3345.25           6809       21448.00     93731.38
 1177.52        3345.50           6813       17211.00     75167.57
 1177.55        3345.75           6817       13328.00     58172.92
 1177.58        3346.00           6820       10525.00     45915.87
 1177.60        3346.25           6824        7097.00     30938.03
 1177.63        3346.50           6828        4284.00     18657.35
 1177.66        3346.75           6832        2165.00      9412.42
 1177.69        3347.00           6835        1131.00      4903.08
 1177.72        3347.25           6839         406.00      1742.03
 1177.75        3347.50           6843         159.00       665.23
 1177.78        3347.75           6847         104.00       425.46
 1177.81        3348.00           6850          97.00       394.95
 1177.84        3348.25           6854          86.00       347.00
 1177.87        3348.50           6858          76.00       303.40
 1177.90        3348.75           6862          75.00       299.04
 1177.93        3349.00           6865          75.00       299.04
 1177.96        3349.25           6869          77.00       307.76
 1177.99        3349.50           6873          66.00       259.81
 1178.02        3349.75           6877          65.00       255.45
 1178.05        3350.00           6880          79.00       316.48
 1178.08        3350.25           6884          70.00       277.25
 1178.10        3350.50           6888          74.00       294.68
 1178.13        3350.75           6892          75.00       299.04
 1178.16        3351.00           6895          72.00       285.97
HL scan finished at 19:39:00
end
