************************************************************
  HL Scan of (1) Internal mercury lamp
************************************************************
Integration time is 0.2294 seconds per sample
dh060818arosa 46.7828-9.6754 3.159365pr812
************************************************************
Dead Time -------------------------  3E-08 
Number of Cycles Used -------------  4 
Starting Wavelength (Angstroms) ---  3331 
Final Wavelength (Angstoms) -------  3351 
Wavelength Increment (Angstroms) --  .25 
Filter Wheel #1 Position ---------- (1) Ground quartz diffuser (ND=2.32)
Filter Wheel #2 Position ---------- (0) Clear Aperture



************************************************************
HL scan start time = 02:46:04
Dark Count =  6.2 


Time (GMT)  Wavelength (Ang)  Step Number  Raw Counts  Counts/Second

  166.54        3331.00           6596          69.00       273.76
  166.76        3331.25           6599          68.00       269.40
  166.79        3331.50           6603          68.00       269.40
  166.82        3331.75           6607          69.00       273.76
  166.85        3332.00           6611          70.00       278.12
  166.88        3332.25           6614          82.00       330.43
  166.91        3332.50           6618          70.00       278.12
  166.94        3332.75           6622          71.00       282.48
  166.97        3333.00           6626          64.00       251.96
  167.00        3333.25           6629          69.00       273.76
  167.03        3333.50           6633          64.00       251.96
  167.06        3333.75           6637          73.00       291.20
  167.09        3334.00           6640          65.00       256.32
  167.12        3334.25           6644          77.00       308.63
  167.15        3334.50           6648          72.00       286.84
  167.17        3334.75           6652          84.00       339.15
  167.20        3335.00           6655          89.00       360.95
  167.23        3335.25           6659         112.00       461.21
  167.26        3335.50           6663         361.00      1546.72
  167.29        3335.75           6667        1119.00      4851.62
  167.32        3336.00           6670        1981.00      8610.77
  167.35        3336.25           6674        3764.00     16389.05
  167.38        3336.50           6678        6462.00     28165.90
  167.41        3336.75           6682        9806.00     42774.12
  167.44        3337.00           6685       12592.00     54954.52
  167.47        3337.25           6689       16635.00     72646.40
  167.50        3337.50           6693       20669.00     90317.62
  167.53        3337.75           6697       24817.00    108507.80
  167.56        3338.00           6700       28051.00    122703.70
  167.59        3338.25           6704       32205.00    140955.80
  167.62        3338.50           6708       36627.00    160407.40
  167.64        3338.75           6712       40968.00    179524.90
  167.67        3339.00           6715       44072.00    193208.20
  167.70        3339.25           6719       47891.00    210058.90
  167.73        3339.50           6723       52312.00    229587.20
  167.76        3339.75           6727       55855.00    245253.90
  167.79        3340.00           6730       58830.00    258420.30
  167.82        3340.25           6734       62837.00    276170.60
  167.85        3340.50           6738       66619.00    292941.50
  167.88        3340.75           6742       69930.00    307637.90
  167.91        3341.00           6745       71814.00    316006.10
  167.94        3341.25           6749       73354.00    322849.40
  167.97        3341.50           6753       73697.00    324374.00
  168.00        3341.75           6756       72896.00    320813.90
  168.03        3342.00           6760       71260.00    313544.90
  168.06        3342.25           6764       68273.00    300281.50
  168.09        3342.50           6768       64220.00    282301.40
  168.12        3342.75           6771       61524.00    270352.10
  168.15        3343.00           6775       57836.00    254020.00
  168.18        3343.25           6779       53461.00    234666.30
  168.21        3343.50           6783       49676.00    217940.80
  168.24        3343.75           6786       46425.00    203588.40
  168.26        3344.00           6790       42196.00    184936.90
  168.29        3344.25           6794       38104.00    166909.50
  168.32        3344.50           6798       33844.00    148162.80
  168.35        3344.75           6801       30290.00    132539.00
  168.38        3345.00           6805       26313.00    115073.10
  168.41        3345.25           6809       21754.00     95073.75
  168.44        3345.50           6813       17696.00     77292.36
  168.47        3345.75           6817       13714.00     59862.42
  168.50        3346.00           6820       10756.00     46926.53
  168.53        3346.25           6824        7227.00     31506.67
  168.56        3346.50           6828        4354.00     18963.71
  168.59        3346.75           6832        2211.00      9613.93
  168.62        3347.00           6835        1157.00      5017.32
  168.65        3347.25           6839         387.00      1660.07
  168.68        3347.50           6843         168.00       705.33
  168.71        3347.75           6847         105.00       430.69
  168.74        3348.00           6850          83.00       334.79
  168.77        3348.25           6854          89.00       360.95
  168.80        3348.50           6858          76.00       304.27
  168.83        3348.75           6862          75.00       299.92
  168.86        3349.00           6865          74.00       295.56
  168.88        3349.25           6869          81.00       326.07
  168.91        3349.50           6873          75.00       299.92
  168.94        3349.75           6877          81.00       326.07
  168.97        3350.00           6880          80.00       321.71
  169.00        3350.25           6884          79.00       317.35
  169.03        3350.50           6888          70.00       278.12
  169.06        3350.75           6892          77.00       308.63
  169.09        3351.00           6895          75.00       299.92
HL scan finished at 02:49:56
end
************************************************************
  HL Scan of (1) Internal mercury lamp
************************************************************
Integration time is 0.2294 seconds per sample
dh060818arosa 46.7828-9.6754 3.128775pr812
************************************************************
Dead Time -------------------------  3E-08 
Number of Cycles Used -------------  4 
Starting Wavelength (Angstroms) ---  3331 
Final Wavelength (Angstoms) -------  3351 
Wavelength Increment (Angstroms) --  .25 
Filter Wheel #1 Position ---------- (1) Ground quartz diffuser (ND=2.32)
Filter Wheel #2 Position ---------- (0) Clear Aperture



************************************************************
HL scan start time = 19:37:08
Dark Count =  6.2 


Time (GMT)  Wavelength (Ang)  Step Number  Raw Counts  Counts/Second

 1177.61        3331.00           6596          68.00       269.40
 1177.83        3331.25           6599          76.00       304.27
 1177.86        3331.50           6603          70.00       278.12
 1177.89        3331.75           6607          63.00       247.60
 1177.92        3332.00           6611          70.00       278.12
 1177.95        3332.25           6614          72.00       286.84
 1177.98        3332.50           6618          66.00       260.68
 1178.01        3332.75           6622          67.00       265.04
 1178.04        3333.00           6626          70.00       278.12
 1178.06        3333.25           6629          69.00       273.76
 1178.09        3333.50           6633          64.00       251.96
 1178.12        3333.75           6637          70.00       278.12
 1178.15        3334.00           6640          64.00       251.96
 1178.18        3334.25           6644          69.00       273.76
 1178.21        3334.50           6648          77.00       308.63
 1178.24        3334.75           6652          87.00       352.23
 1178.27        3335.00           6655          92.00       374.02
 1178.30        3335.25           6659         112.00       461.21
 1178.33        3335.50           6663         372.00      1594.67
 1178.36        3335.75           6667        1055.00      4572.55
 1178.39        3336.00           6670        1894.00      8231.33
 1178.42        3336.25           6674        3729.00     16236.33
 1178.45        3336.50           6678        6281.00     27375.57
 1178.48        3336.75           6682        9703.00     42323.98
 1178.51        3337.00           6685       12456.00     54359.72
 1178.54        3337.25           6689       16312.00     71232.27
 1178.57        3337.50           6693       20500.00     89576.94
 1178.60        3337.75           6697       24446.00    106880.10
 1178.63        3338.00           6700       27703.00    121175.50
 1178.65        3338.25           6704       32176.00    140828.30
 1178.68        3338.50           6708       36263.00    158805.40
 1178.71        3338.75           6712       40377.00    176920.90
 1178.74        3339.00           6715       43460.00    190509.40
 1178.77        3339.25           6719       47261.00    207278.00
 1178.80        3339.50           6723       51462.00    225830.90
 1178.83        3339.75           6727       55187.00    242298.90
 1178.86        3340.00           6730       58061.00    255015.90
 1178.89        3340.25           6734       61811.00    271623.80
 1178.92        3340.50           6738       65308.00    287126.10
 1178.95        3340.75           6742       68955.00    303308.80
 1178.98        3341.00           6745       70698.00    311048.60
 1179.01        3341.25           6749       72008.00    316868.00
 1179.04        3341.50           6753       72716.00    320014.00
 1179.07        3341.75           6756       71407.00    314197.90
 1179.10        3342.00           6760       69673.00    306496.70
 1179.13        3342.25           6764       66895.00    294166.10
 1179.16        3342.50           6768       63469.00    278971.90
 1179.18        3342.75           6771       60936.00    267747.10
 1179.21        3343.00           6775       56672.00    248868.60
 1179.24        3343.25           6779       52831.00    231881.20
 1179.27        3343.50           6783       48729.00    213758.70
 1179.30        3343.75           6786       45580.00    199859.90
 1179.33        3344.00           6790       41698.00    182741.90
 1179.36        3344.25           6794       37442.00    163994.90
 1179.39        3344.50           6798       33063.00    144728.20
 1179.42        3344.75           6801       29869.00    130689.30
 1179.45        3345.00           6805       25481.00    111421.50
 1179.48        3345.25           6809       21336.00     93241.28
 1179.51        3345.50           6813       17299.00     75553.80
 1179.54        3345.75           6817       13313.00     58108.19
 1179.57        3346.00           6820       10477.00     45706.92
 1179.60        3346.25           6824        7147.00     31157.27
 1179.63        3346.50           6828        4330.00     18858.97
 1179.66        3346.75           6832        2218.00      9644.46
 1179.69        3347.00           6835        1149.00      4982.44
 1179.72        3347.25           6839         413.00      1773.42
 1179.75        3347.50           6843         171.00       718.41
 1179.78        3347.75           6847         101.00       413.26
 1179.81        3348.00           6850          87.00       352.23
 1179.83        3348.25           6854          85.00       343.51
 1179.86        3348.50           6858          78.00       312.99
 1179.89        3348.75           6862          80.00       321.71
 1179.92        3349.00           6865          70.00       278.12
 1179.95        3349.25           6869          68.00       269.40
 1179.98        3349.50           6873          68.00       269.40
 1180.01        3349.75           6877          77.00       308.63
 1180.04        3350.00           6880          75.00       299.92
 1180.07        3350.25           6884          75.00       299.92
 1180.10        3350.50           6888          75.00       299.92
 1180.13        3350.75           6892          65.00       256.32
 1180.16        3351.00           6895          78.00       312.99
HL scan finished at 19:41:00
end
