************************************************************
  HL Scan of (1) Internal mercury lamp
************************************************************
Integration time is 0.2294 seconds per sample
dh290718arosa 46.7828-9.6754 3.047202pr812
************************************************************
Dead Time -------------------------  3E-08 
Number of Cycles Used -------------  4 
Starting Wavelength (Angstroms) ---  3331 
Final Wavelength (Angstoms) -------  3351 
Wavelength Increment (Angstroms) --  .25 
Filter Wheel #1 Position ---------- (1) Ground quartz diffuser (ND=2.32)
Filter Wheel #2 Position ---------- (0) Clear Aperture



************************************************************
HL scan start time = 02:36:04
Dark Count =  7.4 


Time (GMT)  Wavelength (Ang)  Step Number  Raw Counts  Counts/Second

  156.56        3331.00           6596          69.00       268.53
  156.78        3331.25           6599          60.00       229.30
  156.81        3331.50           6603          63.00       242.37
  156.84        3331.75           6607          73.00       285.97
  156.87        3332.00           6611          71.00       277.25
  156.90        3332.25           6614          64.00       246.73
  156.92        3332.50           6618          69.00       268.53
  156.95        3332.75           6622          69.00       268.53
  156.98        3333.00           6626          70.00       272.89
  157.01        3333.25           6629          67.00       259.81
  157.04        3333.50           6633          73.00       285.97
  157.07        3333.75           6637          67.00       259.81
  157.10        3334.00           6640          74.00       290.33
  157.13        3334.25           6644          67.00       259.81
  157.16        3334.50           6648          74.00       290.33
  157.19        3334.75           6652          85.00       338.28
  157.22        3335.00           6655          91.00       364.43
  157.25        3335.25           6659         133.00       547.52
  157.28        3335.50           6663         391.00      1672.27
  157.31        3335.75           6667        1170.00      5068.77
  157.34        3336.00           6670        2068.00      8984.98
  157.37        3336.25           6674        4011.00     17461.63
  157.40        3336.50           6678        6634.00     28911.73
  157.43        3336.75           6682        9597.00     41855.49
  157.45        3337.00           6685       12300.00     53672.23
  157.48        3337.25           6689       15927.00     69541.62
  157.51        3337.50           6693       20202.00     88265.68
  157.54        3337.75           6697       24120.00    105444.60
  157.57        3338.00           6700       27028.00    118206.60
  157.61        3338.25           6704       31169.00    136396.60
  157.64        3338.50           6708       35336.00    154720.90
  157.67        3338.75           6712       39343.00    172360.60
  157.70        3339.00           6715       42199.00    184944.90
  157.72        3339.25           6719       45824.00    200931.20
  157.75        3339.50           6723       49556.00    217405.50
  157.78        3339.75           6727       53467.00    234687.50
  157.81        3340.00           6730       55888.00    245394.50
  157.84        3340.25           6734       59606.00    261851.00
  157.88        3340.50           6738       62847.00    276209.60
  157.91        3340.75           6742       65830.00    289436.10
  157.94        3341.00           6745       67541.00    297027.30
  157.96        3341.25           6749       68793.00    302584.40
  157.99        3341.50           6753       68705.00    302193.70
  158.02        3341.75           6756       67925.00    298731.50
  158.05        3342.00           6760       65490.00    287928.00
  158.08        3342.25           6764       62525.00    274782.50
  158.11        3342.50           6768       59273.00    260376.50
  158.14        3342.75           6771       56420.00    247748.30
  158.17        3343.00           6775       52593.00    230823.90
  158.20        3343.25           6779       49168.00    215692.00
  158.23        3343.50           6783       45467.00    199356.10
  158.26        3343.75           6786       42602.00    186721.30
  158.29        3344.00           6790       38425.00    168317.70
  158.32        3344.25           6794       34257.00    149974.10
  158.35        3344.50           6798       30454.00    133254.40
  158.38        3344.75           6801       27477.00    120177.90
  158.41        3345.00           6805       23430.00    102418.00
  158.44        3345.25           6809       19454.00     84987.99
  158.47        3345.50           6813       15520.00     67760.10
  158.50        3345.75           6817       11966.00     52211.62
  158.53        3346.00           6820        9275.00     40448.35
  158.55        3346.25           6824        6139.00     26750.32
  158.58        3346.50           6828        3455.00     15035.55
  158.61        3346.75           6832        1736.00      7537.01
  158.64        3347.00           6835         931.00      4026.64
  158.67        3347.25           6839         303.00      1288.63
  158.70        3347.50           6843         147.00       608.56
  158.73        3347.75           6847          86.00       342.64
  158.76        3348.00           6850          84.00       333.92
  158.79        3348.25           6854          83.00       329.56
  158.82        3348.50           6858          74.00       290.33
  158.85        3348.75           6862          78.00       307.76
  158.88        3349.00           6865          69.00       268.53
  158.91        3349.25           6869          65.00       251.09
  158.94        3349.50           6873          65.00       251.09
  158.97        3349.75           6877          71.00       277.25
  159.00        3350.00           6880          76.00       299.04
  159.03        3350.25           6884          69.00       268.53
  159.06        3350.50           6888          75.00       294.68
  159.09        3350.75           6892          65.00       251.09
  159.12        3351.00           6895          72.00       281.61
HL scan finished at 02:39:57
end
************************************************************
  HL Scan of (1) Internal mercury lamp
************************************************************
Integration time is 0.2294 seconds per sample
dh290718arosa 46.7828-9.6754 3.20525pr812
************************************************************
Dead Time -------------------------  3E-08 
Number of Cycles Used -------------  4 
Starting Wavelength (Angstroms) ---  3331 
Final Wavelength (Angstoms) -------  3351 
Wavelength Increment (Angstroms) --  .25 
Filter Wheel #1 Position ---------- (1) Ground quartz diffuser (ND=2.32)
Filter Wheel #2 Position ---------- (0) Clear Aperture



************************************************************
HL scan start time = 19:37:12
Dark Count =  7.7 


Time (GMT)  Wavelength (Ang)  Step Number  Raw Counts  Counts/Second

 1177.68        3331.00           6596          71.00       275.94
 1177.91        3331.25           6599          75.00       293.38
 1177.93        3331.50           6603          73.00       284.66
 1177.96        3331.75           6607          70.00       271.58
 1177.99        3332.00           6611          76.00       297.74
 1178.02        3332.25           6614          75.00       293.38
 1178.05        3332.50           6618          75.00       293.38
 1178.08        3332.75           6622          79.00       310.81
 1178.11        3333.00           6626          71.00       275.94
 1178.14        3333.25           6629          69.00       267.22
 1178.17        3333.50           6633          79.00       310.81
 1178.20        3333.75           6637          73.00       284.66
 1178.23        3334.00           6640          76.00       297.74
 1178.26        3334.25           6644          68.00       262.86
 1178.29        3334.50           6648          74.00       289.02
 1178.32        3334.75           6652          87.00       345.69
 1178.35        3335.00           6655          97.00       389.28
 1178.38        3335.25           6659         126.00       515.70
 1178.41        3335.50           6663         384.00      1640.45
 1178.44        3335.75           6667        1192.00      5163.40
 1178.47        3336.00           6670        2061.00      8953.15
 1178.50        3336.25           6674        4053.00     17643.60
 1178.53        3336.50           6678        6686.00     29137.49
 1178.56        3336.75           6682       10238.00     44655.69
 1178.58        3337.00           6685       13276.00     57939.77
 1178.61        3337.25           6689       17285.00     75485.93
 1178.64        3337.50           6693       21292.00     93041.82
 1178.67        3337.75           6697       25617.00    112011.80
 1178.70        3338.00           6700       28879.00    126333.60
 1178.73        3338.25           6704       33424.00    146309.10
 1178.76        3338.50           6708       37872.00    165881.40
 1178.79        3338.75           6712       42160.00    184771.60
 1178.82        3339.00           6715       45251.00    198401.90
 1178.85        3339.25           6719       49305.00    216295.70
 1178.88        3339.50           6723       53588.00    235221.20
 1178.91        3339.75           6727       57820.00    253942.50
 1178.94        3340.00           6730       60750.00    266916.50
 1178.97        3340.25           6734       64874.00    285194.80
 1179.00        3340.50           6738       68402.00    300847.30
 1179.03        3340.75           6742       71959.00    316643.60
 1179.05        3341.00           6745       73643.00    324127.30
 1179.08        3341.25           6749       75369.00    331801.20
 1179.11        3341.50           6753       75527.00    332503.90
 1179.14        3341.75           6756       74768.00    329128.70
 1179.17        3342.00           6760       72591.00    319451.80
 1179.20        3342.25           6764       69695.00    306587.70
 1179.23        3342.50           6768       65874.00    289629.90
 1179.26        3342.75           6771       62798.00    275991.10
 1179.29        3343.00           6775       58977.00    259064.50
 1179.32        3343.25           6779       54802.00    240589.50
 1179.35        3343.50           6783       50609.00    222055.50
 1179.38        3343.75           6786       47412.00    207937.90
 1179.41        3344.00           6790       42989.00    188426.10
 1179.44        3344.25           6794       38851.00    170192.40
 1179.47        3344.50           6798       34122.00    149378.90
 1179.50        3344.75           6801       30907.00    135243.80
 1179.53        3345.00           6805       26380.00    115360.60
 1179.56        3345.25           6809       21930.00     95838.80
 1179.59        3345.50           6813       17724.00     77408.43
 1179.62        3345.75           6817       13779.00     60140.23
 1179.65        3346.00           6820       11007.00     48017.25
 1179.68        3346.25           6824        7314.00     31880.09
 1179.70        3346.50           6828        4490.00     19550.70
 1179.73        3346.75           6832        2332.00     10135.17
 1179.76        3347.00           6835        1200.00      5198.28
 1179.79        3347.25           6839         411.00      1758.16
 1179.82        3347.50           6843         150.00       620.33
 1179.85        3347.75           6847          96.00       384.92
 1179.88        3348.00           6850          87.00       345.69
 1179.91        3348.25           6854          86.00       341.33
 1179.94        3348.50           6858          73.00       284.66
 1179.97        3348.75           6862          73.00       284.66
 1180.00        3349.00           6865          75.00       293.38
 1180.03        3349.25           6869          73.00       284.66
 1180.06        3349.50           6873          70.00       271.58
 1180.09        3349.75           6877          73.00       284.66
 1180.12        3350.00           6880          83.00       328.25
 1180.15        3350.25           6884          81.00       319.53
 1180.18        3350.50           6888          71.00       275.94
 1180.21        3350.75           6892          72.00       280.30
 1180.23        3351.00           6895          78.00       306.45
HL scan finished at 19:41:04
end
