************************************************************
  HL Scan of (1) Internal mercury lamp
************************************************************
Integration time is 0.2294 seconds per sample
dh310718arosa 46.7828-9.6754 3.154267pr812
************************************************************
Dead Time -------------------------  3E-08 
Number of Cycles Used -------------  4 
Starting Wavelength (Angstroms) ---  3331 
Final Wavelength (Angstoms) -------  3351 
Wavelength Increment (Angstroms) --  .25 
Filter Wheel #1 Position ---------- (1) Ground quartz diffuser (ND=2.32)
Filter Wheel #2 Position ---------- (0) Clear Aperture



************************************************************
HL scan start time = 02:38:04
Dark Count =  4.9 


Time (GMT)  Wavelength (Ang)  Step Number  Raw Counts  Counts/Second

  158.55        3331.00           6596          74.00       301.22
  158.77        3331.25           6599          76.00       309.94
  158.80        3331.50           6603          69.00       279.43
  158.83        3331.75           6607          75.00       305.58
  158.86        3332.00           6611          70.00       283.79
  158.89        3332.25           6614          65.00       261.99
  158.92        3332.50           6618          71.00       288.15
  158.95        3332.75           6622          71.00       288.15
  158.98        3333.00           6626          64.00       257.63
  159.01        3333.25           6629          67.00       270.71
  159.04        3333.50           6633          66.00       266.35
  159.07        3333.75           6637          70.00       283.79
  159.10        3334.00           6640          71.00       288.15
  159.13        3334.25           6644          67.00       270.71
  159.16        3334.50           6648          83.00       340.46
  159.19        3334.75           6652          85.00       349.18
  159.22        3335.00           6655          84.00       344.82
  159.25        3335.25           6659         120.00       501.75
  159.28        3335.50           6663         384.00      1652.65
  159.31        3335.75           6667        1142.00      4957.58
  159.34        3336.00           6670        2128.00      9257.58
  159.37        3336.25           6674        3891.00     16948.90
  159.40        3336.50           6678        6569.00     28638.81
  159.42        3336.75           6682        9860.00     43015.81
  159.45        3337.00           6685       12788.00     55817.46
  159.48        3337.25           6689       16817.00     73448.94
  159.51        3337.50           6693       20835.00     91050.90
  159.54        3337.75           6697       24910.00    108921.60
  159.57        3338.00           6700       28045.00    122683.10
  159.60        3338.25           6704       32352.00    141607.70
  159.63        3338.50           6708       36793.00    161143.80
  159.66        3338.75           6712       41059.00    179931.60
  159.69        3339.00           6715       44065.00    193183.10
  159.72        3339.25           6719       48112.00    211040.30
  159.75        3339.50           6723       51868.00    227630.70
  159.78        3339.75           6727       56045.00    246100.20
  159.81        3340.00           6730       58922.00    258833.40
  159.84        3340.25           6734       62881.00    276371.30
  159.87        3340.50           6738       66380.00    291887.00
  159.89        3340.75           6742       69206.00    304429.00
  159.92        3341.00           6745       71533.00    314763.50
  159.95        3341.25           6749       73100.00    321726.30
  159.98        3341.50           6753       72797.00    320379.80
  160.01        3341.75           6756       72223.00    317829.10
  160.04        3342.00           6760       70384.00    309659.80
  160.07        3342.25           6764       67101.00    295085.90
  160.10        3342.50           6768       63706.00    280028.30
  160.13        3342.75           6771       60706.00    266734.00
  160.16        3343.00           6775       56809.00    249480.60
  160.19        3343.25           6779       52863.00    232028.50
  160.22        3343.50           6783       48802.00    214086.80
  160.25        3343.75           6786       45796.00    200818.70
  160.28        3344.00           6790       41535.00    182029.30
  160.31        3344.25           6794       37465.00    164101.90
  160.34        3344.50           6798       33259.00    145595.80
  160.37        3344.75           6801       29982.00    131191.40
  160.40        3345.00           6805       25454.00    111308.70
  160.43        3345.25           6809       21169.00     92514.91
  160.46        3345.50           6813       16948.00     74022.53
  160.49        3345.75           6817       13305.00     58078.88
  160.51        3346.00           6820       10522.00     45909.31
  160.54        3346.25           6824        6954.00     30320.07
  160.57        3346.50           6828        4252.00     18524.24
  160.60        3346.75           6832        2196.00      9554.18
  160.63        3347.00           6835        1099.00      4770.08
  160.66        3347.25           6839         412.00      1774.72
  160.69        3347.50           6843         148.00       623.81
  160.72        3347.75           6847         102.00       423.28
  160.75        3348.00           6850          92.00       379.69
  160.78        3348.25           6854          80.00       327.38
  160.81        3348.50           6858          71.00       288.15
  160.84        3348.75           6862          76.00       309.94
  160.87        3349.00           6865          69.00       279.43
  160.90        3349.25           6869          69.00       279.43
  160.93        3349.50           6873          69.00       279.43
  160.96        3349.75           6877          78.00       318.66
  160.99        3350.00           6880          73.00       296.86
  161.02        3350.25           6884          71.00       288.15
  161.05        3350.50           6888          74.00       301.22
  161.08        3350.75           6892          73.00       296.86
  161.11        3351.00           6895          70.00       283.79
HL scan finished at 02:41:56
end
************************************************************
  HL Scan of (1) Internal mercury lamp
************************************************************
Integration time is 0.2294 seconds per sample
dh310718arosa 46.7828-9.6754 3.286823pr812
************************************************************
Dead Time -------------------------  3E-08 
Number of Cycles Used -------------  4 
Starting Wavelength (Angstroms) ---  3331 
Final Wavelength (Angstoms) -------  3351 
Wavelength Increment (Angstroms) --  .25 
Filter Wheel #1 Position ---------- (1) Ground quartz diffuser (ND=2.32)
Filter Wheel #2 Position ---------- (0) Clear Aperture



************************************************************
HL scan start time = 19:44:00
Dark Count =  4.6 


Time (GMT)  Wavelength (Ang)  Step Number  Raw Counts  Counts/Second

 1184.48        3331.00           6596          73.00       298.17
 1184.70        3331.25           6599          67.00       272.02
 1184.73        3331.50           6603          65.00       263.30
 1184.76        3331.75           6607          67.00       272.02
 1184.79        3332.00           6611          78.00       319.97
 1184.82        3332.25           6614          75.00       306.89
 1184.85        3332.50           6618          64.00       258.94
 1184.88        3332.75           6622          70.00       285.09
 1184.91        3333.00           6626          67.00       272.02
 1184.94        3333.25           6629          71.00       289.45
 1184.97        3333.50           6633          69.00       280.73
 1185.00        3333.75           6637          68.00       276.38
 1185.03        3334.00           6640          72.00       293.81
 1185.06        3334.25           6644          76.00       311.25
 1185.09        3334.50           6648          77.00       315.61
 1185.12        3334.75           6652          93.00       385.36
 1185.15        3335.00           6655         100.00       415.87
 1185.18        3335.25           6659         133.00       559.73
 1185.20        3335.50           6663         450.00      1941.70
 1185.23        3335.75           6667        1246.00      5412.39
 1185.26        3336.00           6670        2230.00      9703.78
 1185.29        3336.25           6674        4120.00     17949.51
 1185.32        3336.50           6678        7002.00     30531.01
 1185.35        3336.75           6682       10684.00     46618.78
 1185.38        3337.00           6685       13627.00     59488.82
 1185.41        3337.25           6689       17717.00     77391.34
 1185.44        3337.50           6693       22103.00     96610.91
 1185.47        3337.75           6697       26611.00    116388.20
 1185.50        3338.00           6700       29960.00    131096.10
 1185.53        3338.25           6704       34637.00    151657.90
 1185.56        3338.50           6708       39077.00    171201.40
 1185.59        3338.75           6712       43458.00    190507.70
 1185.62        3339.00           6715       46718.00    204888.50
 1185.65        3339.25           6719       50953.00    223588.90
 1185.68        3339.50           6723       55303.00    242819.10
 1185.71        3339.75           6727       59085.00    259556.40
 1185.73        3340.00           6730       62465.00    274529.00
 1185.76        3340.25           6734       66749.00    293525.40
 1185.79        3340.50           6738       70299.00    309283.60
 1185.82        3340.75           6742       73936.00    325443.60
 1185.85        3341.00           6745       75783.00    333656.20
 1185.88        3341.25           6749       77205.00    339981.80
 1185.91        3341.50           6753       77568.00    341597.00
 1185.94        3341.75           6756       76621.00    337383.70
 1185.97        3342.00           6760       74149.00    326390.50
 1186.00        3342.25           6764       71159.00    313103.40
 1186.03        3342.50           6768       67292.00    295934.80
 1186.06        3342.75           6771       64029.00    281461.60
 1186.09        3343.00           6775       60126.00    264166.30
 1186.12        3343.25           6779       56335.00    247384.50
 1186.15        3343.50           6783       51412.00    225617.00
 1186.18        3343.75           6786       48502.00    212763.50
 1186.21        3344.00           6790       44150.00    193559.20
 1186.24        3344.25           6794       39644.00    173698.80
 1186.27        3344.50           6798       35095.00    153672.80
 1186.30        3344.75           6801       31665.00    138589.00
 1186.32        3345.00           6805       27108.00    118570.10
 1186.35        3345.25           6809       22423.00     98014.02
 1186.38        3345.50           6813       18015.00     78696.47
 1186.41        3345.75           6817       13804.00     60263.17
 1186.44        3346.00           6820       10909.00     47602.37
 1186.47        3346.25           6824        7324.00     31937.30
 1186.50        3346.50           6828        4641.00     20223.25
 1186.53        3346.75           6832        2277.00      9908.79
 1186.56        3347.00           6835        1148.00      4985.05
 1186.59        3347.25           6839         422.00      1819.63
 1186.62        3347.50           6843         168.00       712.31
 1186.65        3347.75           6847         106.00       442.03
 1186.68        3348.00           6850          91.00       376.64
 1186.71        3348.25           6854          90.00       372.28
 1186.73        3348.50           6858          83.00       341.76
 1186.76        3348.75           6862          77.00       315.61
 1186.79        3349.00           6865          72.00       293.81
 1186.82        3349.25           6869          74.00       302.53
 1186.85        3349.50           6873          72.00       293.81
 1186.88        3349.75           6877          71.00       289.45
 1186.91        3350.00           6880          81.00       333.05
 1186.94        3350.25           6884          81.00       333.05
 1186.97        3350.50           6888          76.00       311.25
 1187.00        3350.75           6892          71.00       289.45
 1187.03        3351.00           6895          71.00       289.45
HL scan finished at 19:47:52
end
************************************************************
  HL Scan of (1) Internal mercury lamp
************************************************************
Integration time is 0.2294 seconds per sample
dh310718arosa 46.7828-9.6754 3.179758pr812
************************************************************
Dead Time -------------------------  3E-08 
Number of Cycles Used -------------  4 
Starting Wavelength (Angstroms) ---  3331 
Final Wavelength (Angstoms) -------  3351 
Wavelength Increment (Angstroms) --  .25 
Filter Wheel #1 Position ---------- (1) Ground quartz diffuser (ND=2.32)
Filter Wheel #2 Position ---------- (0) Clear Aperture



************************************************************
HL scan start time = 22:48:52
Dark Count =  8 


Time (GMT)  Wavelength (Ang)  Step Number  Raw Counts  Counts/Second

 1369.35        3331.00           6596          81.00       318.22
 1369.57        3331.25           6599          70.00       270.27
 1369.60        3331.50           6603          72.00       278.99
 1369.63        3331.75           6607          68.00       261.55
 1369.66        3332.00           6611          65.00       248.48
 1369.69        3332.25           6614          76.00       296.43
 1369.72        3332.50           6618          66.00       252.84
 1369.75        3332.75           6622          78.00       305.15
 1369.78        3333.00           6626          70.00       270.27
 1369.80        3333.25           6629          76.00       296.43
 1369.83        3333.50           6633          67.00       257.19
 1369.86        3333.75           6637          71.00       274.63
 1369.89        3334.00           6640          73.00       283.35
 1369.92        3334.25           6644          72.00       278.99
 1369.95        3334.50           6648          80.00       313.87
 1369.98        3334.75           6652          78.00       305.15
 1370.01        3335.00           6655          96.00       383.61
 1370.04        3335.25           6659         130.00       531.83
 1370.07        3335.50           6663         419.00      1791.73
 1370.10        3335.75           6667        1186.00      5135.93
 1370.13        3336.00           6670        2123.00      9222.26
 1370.16        3336.25           6674        3953.00     17205.92
 1370.19        3336.50           6678        6755.00     29437.50
 1370.22        3336.75           6682       10231.00     44623.78
 1370.25        3337.00           6685       13169.00     57470.40
 1370.28        3337.25           6689       17062.00     74508.13
 1370.31        3337.50           6693       21067.00     92054.22
 1370.33        3337.75           6697       25446.00    111260.00
 1370.36        3338.00           6700       28619.00    125190.30
 1370.39        3338.25           6704       33229.00    145450.20
 1370.42        3338.50           6708       37370.00    163670.00
 1370.45        3338.75           6712       41625.00    182412.30
 1370.48        3339.00           6715       44900.00    196852.20
 1370.51        3339.25           6719       48833.00    214210.00
 1370.54        3339.50           6723       52995.00    232598.20
 1370.57        3339.75           6727       56889.00    249820.90
 1370.60        3340.00           6730       59831.00    262844.80
 1370.63        3340.25           6734       63395.00    278636.00
 1370.66        3340.50           6738       67403.00    296412.30
 1370.69        3340.75           6742       70522.00    310259.00
 1370.72        3341.00           6745       72404.00    318619.60
 1370.75        3341.25           6749       73930.00    325401.80
 1370.78        3341.50           6753       73914.00    325330.60
 1370.81        3341.75           6756       73144.00    321908.10
 1370.84        3342.00           6760       70773.00    311373.70
 1370.87        3342.25           6764       67886.00    298555.80
 1370.90        3342.50           6768       64414.00    283153.60
 1370.92        3342.75           6771       61533.00    270384.00
 1370.95        3343.00           6775       57585.00    252901.10
 1370.98        3343.25           6779       53588.00    235219.80
 1371.01        3343.50           6783       49430.00    216846.40
 1371.04        3343.75           6786       46345.00    203227.40
 1371.07        3344.00           6790       41911.00    183672.80
 1371.10        3344.25           6794       37885.00    165937.40
 1371.13        3344.50           6798       33675.00    147411.60
 1371.16        3344.75           6801       30172.00    132012.60
 1371.19        3345.00           6805       25759.00    112633.70
 1371.22        3345.25           6809       21383.00     93439.42
 1371.25        3345.50           6813       17293.00     75519.65
 1371.28        3345.75           6817       13387.00     58424.03
 1371.31        3346.00           6820       10505.00     45821.45
 1371.34        3346.25           6824        7112.00     30996.55
 1371.37        3346.50           6828        4282.00     18641.64
 1371.40        3346.75           6832        2158.00      9374.91
 1371.43        3347.00           6835        1111.00      4808.89
 1371.46        3347.25           6839         370.00      1578.10
 1371.49        3347.50           6843         151.00       623.38
 1371.52        3347.75           6847         104.00       418.49
 1371.54        3348.00           6850          91.00       361.82
 1371.57        3348.25           6854          90.00       357.46
 1371.60        3348.50           6858          85.00       335.66
 1371.63        3348.75           6862          75.00       292.07
 1371.66        3349.00           6865          74.00       287.71
 1371.69        3349.25           6869          67.00       257.19
 1371.72        3349.50           6873          75.00       292.07
 1371.75        3349.75           6877          76.00       296.43
 1371.78        3350.00           6880          77.00       300.79
 1371.81        3350.25           6884          83.00       326.94
 1371.84        3350.50           6888          80.00       313.87
 1371.87        3350.75           6892          70.00       270.27
 1371.90        3351.00           6895          82.00       322.58
HL scan finished at 22:52:44
end
