************************************************************
  HL Scan of (1) Internal mercury lamp
************************************************************
Integration time is 0.2294 seconds per sample
dh050818arosa 46.7828-9.6754 3.149169pr812
************************************************************
Dead Time -------------------------  3E-08 
Number of Cycles Used -------------  4 
Starting Wavelength (Angstroms) ---  3331 
Final Wavelength (Angstoms) -------  3351 
Wavelength Increment (Angstroms) --  .25 
Filter Wheel #1 Position ---------- (1) Ground quartz diffuser (ND=2.32)
Filter Wheel #2 Position ---------- (0) Clear Aperture



************************************************************
HL scan start time = 02:44:05
Dark Count =  6.4 


Time (GMT)  Wavelength (Ang)  Step Number  Raw Counts  Counts/Second

  164.57        3331.00           6596          70.00       277.25
  164.79        3331.25           6599          71.00       281.61
  164.82        3331.50           6603          82.00       329.56
  164.85        3331.75           6607          81.00       325.20
  164.88        3332.00           6611          69.00       272.89
  164.91        3332.25           6614          68.00       268.53
  164.94        3332.50           6618          61.00       238.01
  164.96        3332.75           6622          63.00       246.73
  164.99        3333.00           6626          68.00       268.53
  165.02        3333.25           6629          64.00       251.09
  165.05        3333.50           6633          75.00       299.04
  165.08        3333.75           6637          70.00       277.25
  165.11        3334.00           6640          70.00       277.25
  165.14        3334.25           6644          68.00       268.53
  165.17        3334.50           6648          74.00       294.68
  165.20        3334.75           6652          82.00       329.56
  165.23        3335.00           6655          99.00       403.67
  165.26        3335.25           6659         123.00       508.29
  165.29        3335.50           6663         383.00      1641.75
  165.32        3335.75           6667        1064.00      4610.93
  165.35        3336.00           6670        1930.00      8387.46
  165.38        3336.25           6674        3718.00     16187.46
  165.41        3336.50           6678        6451.00     28117.00
  165.44        3336.75           6682        9856.00     42991.77
  165.47        3337.00           6685       12730.00     55557.21
  165.50        3337.25           6689       16578.00     72395.95
  165.53        3337.50           6693       20754.00     90689.31
  165.56        3337.75           6697       24935.00    109024.70
  165.58        3338.00           6700       28232.00    123497.70
  165.61        3338.25           6704       32202.00    140941.70
  165.64        3338.50           6708       36749.00    160943.50
  165.67        3338.75           6712       40989.00    179616.60
  165.70        3339.00           6715       43985.00    192823.60
  165.73        3339.25           6719       48179.00    211329.50
  165.76        3339.50           6723       52202.00    229100.20
  165.79        3339.75           6727       55952.00    245682.10
  165.82        3340.00           6730       59146.00    259818.50
  165.85        3340.25           6734       63108.00    277370.90
  165.88        3340.50           6738       66473.00    292292.90
  165.91        3340.75           6742       69987.00    307890.10
  165.94        3341.00           6745       71645.00    315254.40
  165.97        3341.25           6749       73123.00    321821.90
  166.00        3341.50           6753       73662.00    324217.60
  166.03        3341.75           6756       72881.00    320746.40
  166.06        3342.00           6760       70710.00    311101.00
  166.09        3342.25           6764       67837.00    298345.40
  166.12        3342.50           6768       63904.00    280899.50
  166.15        3342.75           6771       61447.00    270010.10
  166.17        3343.00           6775       57393.00    252058.40
  166.20        3343.25           6779       53300.00    233953.60
  166.23        3343.50           6783       49376.00    216615.00
  166.26        3343.75           6786       46295.00    203013.90
  166.29        3344.00           6790       42023.00    184173.50
  166.32        3344.25           6794       38152.00    167120.00
  166.35        3344.50           6798       33594.00    147062.40
  166.38        3344.75           6801       30488.00    133408.20
  166.41        3345.00           6805       25849.00    113035.70
  166.44        3345.25           6809       21444.00     93713.84
  166.47        3345.50           6813       17292.00     75522.27
  166.50        3345.75           6817       13418.00     58566.64
  166.53        3346.00           6820       10606.00     46269.94
  166.56        3346.25           6824        7127.00     31069.05
  166.59        3346.50           6828        4569.00     19901.16
  166.62        3346.75           6832        2285.00      9935.83
  166.65        3347.00           6835        1147.00      4972.84
  166.68        3347.25           6839         396.00      1698.43
  166.71        3347.50           6843         166.00       695.74
  166.74        3347.75           6847          97.00       394.95
  166.77        3348.00           6850          95.00       386.23
  166.80        3348.25           6854          92.00       373.15
  166.83        3348.50           6858          81.00       325.20
  166.85        3348.75           6862          78.00       312.12
  166.88        3349.00           6865          68.00       268.53
  166.91        3349.25           6869          69.00       272.89
  166.94        3349.50           6873          81.00       325.20
  166.97        3349.75           6877          77.00       307.76
  167.00        3350.00           6880          70.00       277.25
  167.03        3350.25           6884          64.00       251.09
  167.06        3350.50           6888          74.00       294.68
  167.09        3350.75           6892          85.00       342.64
  167.12        3351.00           6895          65.00       255.45
HL scan finished at 02:47:58
end
************************************************************
  HL Scan of (1) Internal mercury lamp
************************************************************
Integration time is 0.2294 seconds per sample
dh050818arosa 46.7828-9.6754 3.271528pr812
************************************************************
Dead Time -------------------------  3E-08 
Number of Cycles Used -------------  4 
Starting Wavelength (Angstroms) ---  3331 
Final Wavelength (Angstoms) -------  3351 
Wavelength Increment (Angstroms) --  .25 
Filter Wheel #1 Position ---------- (1) Ground quartz diffuser (ND=2.32)
Filter Wheel #2 Position ---------- (0) Clear Aperture



************************************************************
HL scan start time = 19:44:01
Dark Count =  8.3 


Time (GMT)  Wavelength (Ang)  Step Number  Raw Counts  Counts/Second

 1184.50        3331.00           6596          75.00       290.76
 1184.72        3331.25           6599          77.00       299.48
 1184.75        3331.50           6603          82.00       321.28
 1184.78        3331.75           6607          70.00       268.96
 1184.81        3332.00           6611          71.00       273.32
 1184.84        3332.25           6614          78.00       303.84
 1184.87        3332.50           6618          79.00       308.20
 1184.89        3332.75           6622          72.00       277.68
 1184.92        3333.00           6626          64.00       242.81
 1184.95        3333.25           6629          74.00       286.40
 1184.98        3333.50           6633          73.00       282.04
 1185.01        3333.75           6637          68.00       260.25
 1185.04        3334.00           6640          76.00       295.12
 1185.07        3334.25           6644          78.00       303.84
 1185.10        3334.50           6648          77.00       299.48
 1185.13        3334.75           6652          90.00       356.15
 1185.16        3335.00           6655          88.00       347.43
 1185.19        3335.25           6659         112.00       452.05
 1185.22        3335.50           6663         364.00      1550.64
 1185.25        3335.75           6667        1163.00      5034.33
 1185.28        3336.00           6670        2100.00      9120.63
 1185.31        3336.25           6674        3998.00     17400.97
 1185.34        3336.50           6678        6789.00     29584.66
 1185.37        3336.75           6682       10356.00     45168.85
 1185.40        3337.00           6685       13477.00     58816.42
 1185.43        3337.25           6689       17629.00     76989.73
 1185.45        3337.50           6693       21939.00     95875.63
 1185.48        3337.75           6697       26423.00    115546.80
 1185.51        3338.00           6700       29541.00    129239.00
 1185.54        3338.25           6704       34015.00    148905.60
 1185.57        3338.50           6708       38946.00    170608.10
 1185.60        3338.75           6712       43155.00    189155.40
 1185.63        3339.00           6715       46874.00    205560.60
 1185.66        3339.25           6719       50800.00    222896.60
 1185.69        3339.50           6723       54989.00    241413.90
 1185.72        3339.75           6727       59077.00    259504.60
 1185.75        3340.00           6730       62620.00    275199.50
 1185.78        3340.25           6734       66744.00    293486.90
 1185.81        3340.50           6738       70274.00    309156.20
 1185.84        3340.75           6742       73842.00    325009.30
 1185.87        3341.00           6745       75807.00    333746.50
 1185.90        3341.25           6749       77319.00    340472.60
 1185.93        3341.50           6753       77817.00    342688.50
 1185.95        3341.75           6756       77056.00    339302.50
 1185.98        3342.00           6760       74924.00    329819.70
 1186.01        3342.25           6764       71600.00    315046.00
 1186.04        3342.50           6768       68050.00    299282.30
 1186.07        3342.75           6771       64778.00    284766.40
 1186.10        3343.00           6775       60850.00    267356.80
 1186.13        3343.25           6779       56716.00    249054.00
 1186.16        3343.50           6783       52319.00    229608.90
 1186.19        3343.75           6786       49010.00    214990.30
 1186.22        3344.00           6790       44609.00    195567.30
 1186.25        3344.25           6794       39925.00    174920.30
 1186.28        3344.50           6798       35739.00    156490.10
 1186.31        3344.75           6801       31873.00    139487.00
 1186.34        3345.00           6805       27505.00    120296.90
 1186.37        3345.25           6809       22870.00     99957.97
 1186.40        3345.50           6813       18478.00     80708.26
 1186.43        3345.75           6817       14251.00     62202.72
 1186.45        3346.00           6820       11274.00     49181.93
 1186.48        3346.25           6824        7708.00     33598.37
 1186.51        3346.50           6828        4609.00     20067.44
 1186.54        3346.75           6832        2408.00     10464.05
 1186.57        3347.00           6835        1266.00      5483.47
 1186.60        3347.25           6839         454.00      1943.01
 1186.63        3347.50           6843         177.00       735.41
 1186.66        3347.75           6847         103.00       412.82
 1186.69        3348.00           6850          98.00       391.02
 1186.72        3348.25           6854          84.00       329.99
 1186.75        3348.50           6858          78.00       303.84
 1186.78        3348.75           6862          73.00       282.04
 1186.81        3349.00           6865          62.00       234.09
 1186.84        3349.25           6869          72.00       277.68
 1186.87        3349.50           6873          74.00       286.40
 1186.90        3349.75           6877          72.00       277.68
 1186.93        3350.00           6880          65.00       247.17
 1186.96        3350.25           6884          74.00       286.40
 1186.98        3350.50           6888          73.00       282.04
 1187.01        3350.75           6892          71.00       273.32
 1187.04        3351.00           6895          73.00       282.04
HL scan finished at 19:47:53
end
