************************************************************
  HL Scan of (1) Internal mercury lamp
************************************************************
Integration time is 0.2294 seconds per sample
dh070818arosa 46.7828-9.6754 3.072694pr812
************************************************************
Dead Time -------------------------  3E-08 
Number of Cycles Used -------------  4 
Starting Wavelength (Angstroms) ---  3331 
Final Wavelength (Angstoms) -------  3351 
Wavelength Increment (Angstroms) --  .25 
Filter Wheel #1 Position ---------- (1) Ground quartz diffuser (ND=2.32)
Filter Wheel #2 Position ---------- (0) Clear Aperture



************************************************************
HL scan start time = 02:47:06
Dark Count =  5.9 


Time (GMT)  Wavelength (Ang)  Step Number  Raw Counts  Counts/Second

  167.59        3331.00           6596          71.00       283.79
  167.81        3331.25           6599          69.00       275.07
  167.84        3331.50           6603          68.00       270.71
  167.86        3331.75           6607          72.00       288.15
  167.89        3332.00           6611          73.00       292.50
  167.92        3332.25           6614          63.00       248.91
  167.95        3332.50           6618          68.00       270.71
  167.98        3332.75           6622          70.00       279.43
  168.01        3333.00           6626          70.00       279.43
  168.04        3333.25           6629          69.00       275.07
  168.07        3333.50           6633          69.00       275.07
  168.10        3333.75           6637          70.00       279.43
  168.13        3334.00           6640          65.00       257.63
  168.16        3334.25           6644          82.00       331.74
  168.19        3334.50           6648          70.00       279.43
  168.22        3334.75           6652          84.00       340.46
  168.25        3335.00           6655          87.00       353.53
  168.28        3335.25           6659         141.00       588.94
  168.31        3335.50           6663         392.00      1683.17
  168.34        3335.75           6667        1231.00      5341.31
  168.37        3336.00           6670        2211.00      9615.24
  168.40        3336.25           6674        4080.00     17769.28
  168.43        3336.50           6678        6770.00     29512.17
  168.46        3336.75           6682       10037.00     43785.03
  168.49        3337.00           6685       12680.00     55340.72
  168.51        3337.25           6689       16485.00     71990.97
  168.54        3337.50           6693       20537.00     89740.40
  168.57        3337.75           6697       24413.00    106736.60
  168.60        3338.00           6700       27282.00    119328.30
  168.63        3338.25           6704       31440.00    137594.30
  168.66        3338.50           6708       35516.00    155519.50
  168.69        3338.75           6712       39477.00    172957.40
  168.72        3339.00           6715       42203.00    184969.10
  168.75        3339.25           6719       46041.00    201895.30
  168.78        3339.50           6723       49840.00    218666.50
  168.81        3339.75           6727       53636.00    235441.40
  168.84        3340.00           6730       56482.00    248029.20
  168.87        3340.25           6734       60209.00    264528.20
  168.90        3340.50           6738       63592.00    279518.50
  168.93        3340.75           6742       66200.00    291084.00
  168.96        3341.00           6745       67971.00    298942.40
  168.99        3341.25           6749       69350.00    305063.80
  169.02        3341.50           6753       69262.00    304673.20
  169.05        3341.75           6756       68488.00    301237.10
  169.08        3342.00           6760       66092.00    290605.00
  169.11        3342.25           6764       63078.00    277240.10
  169.14        3342.50           6768       59845.00    262916.10
  169.16        3342.75           6771       57126.00    250879.00
  169.19        3343.00           6775       53269.00    233818.80
  169.22        3343.25           6779       49656.00    217853.80
  169.25        3343.50           6783       45771.00    200704.00
  169.28        3343.75           6786       42837.00    187763.90
  169.31        3344.00           6790       38908.00    170451.40
  169.34        3344.25           6794       34564.00    151331.10
  169.37        3344.50           6798       30661.00    134170.60
  169.40        3344.75           6801       27401.00    119850.80
  169.43        3345.00           6805       23520.00    102819.30
  169.46        3345.25           6809       19551.00     85419.58
  169.49        3345.50           6813       15508.00     67714.13
  169.52        3345.75           6817       12079.00     52712.33
  169.55        3346.00           6820        9214.00     40188.36
  169.58        3346.25           6824        6194.00     26997.01
  169.61        3346.50           6828        3592.00     15639.86
  169.64        3346.75           6832        1724.00      7491.22
  169.67        3347.00           6835         865.00      3745.41
  169.70        3347.25           6839         295.00      1260.29
  169.73        3347.50           6843         134.00       558.42
  169.76        3347.75           6847          92.00       375.33
  169.79        3348.00           6850          80.00       323.02
  169.81        3348.25           6854          73.00       292.50
  169.84        3348.50           6858          77.00       309.94
  169.87        3348.75           6862          67.00       266.35
  169.90        3349.00           6865          70.00       279.43
  169.93        3349.25           6869          66.00       261.99
  169.96        3349.50           6873          88.00       357.89
  169.99        3349.75           6877          70.00       279.43
  170.02        3350.00           6880          70.00       279.43
  170.05        3350.25           6884          75.00       301.22
  170.08        3350.50           6888          71.00       283.79
  170.11        3350.75           6892          64.00       253.27
  170.14        3351.00           6895          68.00       270.71
HL scan finished at 02:50:59
end
************************************************************
  HL Scan of (1) Internal mercury lamp
************************************************************
Integration time is 0.2294 seconds per sample
dh070818arosa 46.7828-9.6754 3.189955pr812
************************************************************
Dead Time -------------------------  3E-08 
Number of Cycles Used -------------  4 
Starting Wavelength (Angstroms) ---  3331 
Final Wavelength (Angstoms) -------  3351 
Wavelength Increment (Angstroms) --  .25 
Filter Wheel #1 Position ---------- (1) Ground quartz diffuser (ND=2.32)
Filter Wheel #2 Position ---------- (0) Clear Aperture



************************************************************
HL scan start time = 19:37:08
Dark Count =  6.4 


Time (GMT)  Wavelength (Ang)  Step Number  Raw Counts  Counts/Second

 1177.62        3331.00           6596          72.00       285.97
 1177.84        3331.25           6599          70.00       277.25
 1177.87        3331.50           6603          68.00       268.53
 1177.90        3331.75           6607          74.00       294.68
 1177.93        3332.00           6611          71.00       281.61
 1177.95        3332.25           6614          70.00       277.25
 1177.98        3332.50           6618          71.00       281.61
 1178.01        3332.75           6622          75.00       299.04
 1178.04        3333.00           6626          69.00       272.89
 1178.07        3333.25           6629          74.00       294.68
 1178.10        3333.50           6633          75.00       299.04
 1178.13        3333.75           6637          70.00       277.25
 1178.16        3334.00           6640          71.00       281.61
 1178.19        3334.25           6644          70.00       277.25
 1178.22        3334.50           6648          78.00       312.12
 1178.25        3334.75           6652          83.00       333.92
 1178.28        3335.00           6655          87.00       351.36
 1178.31        3335.25           6659         125.00       517.01
 1178.33        3335.50           6663         392.00      1680.99
 1178.36        3335.75           6667        1104.00      4785.34
 1178.39        3336.00           6670        1999.00      8688.40
 1178.42        3336.25           6674        3925.00     17090.71
 1178.45        3336.50           6678        6621.00     28859.33
 1178.48        3336.75           6682        9936.00     43341.41
 1178.51        3337.00           6685       12972.00     56615.70
 1178.54        3337.25           6689       16954.00     74042.23
 1178.57        3337.50           6693       21190.00     92600.39
 1178.60        3337.75           6697       25051.00    109533.70
 1178.63        3338.00           6700       28174.00    123243.00
 1178.66        3338.25           6704       32806.00    143597.20
 1178.69        3338.50           6708       37150.00    162708.60
 1178.72        3338.75           6712       41466.00    181718.60
 1178.75        3339.00           6715       44890.00    196815.20
 1178.78        3339.25           6719       48741.00    213810.90
 1178.81        3339.50           6723       52550.00    230638.30
 1178.84        3339.75           6727       56756.00    249239.40
 1178.87        3340.00           6730       59800.00    262714.60
 1178.90        3340.25           6734       63830.00    280571.40
 1178.93        3340.50           6738       67560.00    297116.10
 1178.96        3340.75           6742       70630.00    310745.70
 1178.99        3341.00           6745       72956.00    321079.70
 1179.02        3341.25           6749       74427.00    327618.40
 1179.05        3341.50           6753       74683.00    328756.60
 1179.08        3341.75           6756       74150.00    326386.90
 1179.10        3342.00           6760       72120.00    317364.80
 1179.13        3342.25           6764       68924.00    303170.30
 1179.16        3342.50           6768       65486.00    287914.70
 1179.19        3342.75           6771       62507.00    274707.10
 1179.22        3343.00           6775       58558.00    257215.20
 1179.25        3343.25           6779       54746.00    240347.50
 1179.28        3343.50           6783       50409.00    221177.70
 1179.31        3343.75           6786       47317.00    207524.30
 1179.34        3344.00           6790       42925.00    188149.70
 1179.37        3344.25           6794       38478.00    168555.50
 1179.40        3344.50           6798       34374.00    150493.10
 1179.43        3344.75           6801       30700.00    134339.80
 1179.46        3345.00           6805       26282.00    114936.20
 1179.49        3345.25           6809       22047.00     96357.48
 1179.52        3345.50           6813       17714.00     77370.31
 1179.55        3345.75           6817       13933.00     60819.68
 1179.57        3346.00           6820       11014.00     48053.53
 1179.60        3346.25           6824        7505.00     32719.99
 1179.63        3346.50           6828        4557.00     19848.78
 1179.66        3346.75           6832        2350.00     10219.35
 1179.69        3347.00           6835        1257.00      5452.50
 1179.72        3347.25           6839         430.00      1846.66
 1179.75        3347.50           6843         175.00       734.98
 1179.78        3347.75           6847         114.00       469.06
 1179.81        3348.00           6850          91.00       368.79
 1179.84        3348.25           6854          83.00       333.92
 1179.87        3348.50           6858          86.00       347.00
 1179.90        3348.75           6862          80.00       320.84
 1179.93        3349.00           6865          86.00       347.00
 1179.96        3349.25           6869          65.00       255.45
 1179.99        3349.50           6873          75.00       299.04
 1180.02        3349.75           6877          66.00       259.81
 1180.05        3350.00           6880          68.00       268.53
 1180.07        3350.25           6884          68.00       268.53
 1180.10        3350.50           6888          70.00       277.25
 1180.13        3350.75           6892          72.00       285.97
 1180.16        3351.00           6895          65.00       255.45
HL scan finished at 19:41:00
end
