************************************************************
  HL Scan of (1) Internal mercury lamp
************************************************************
Integration time is 0.2294 seconds per sample
dh030818arosa 46.7828-9.6754 3.123677pr812
************************************************************
Dead Time -------------------------  3E-08 
Number of Cycles Used -------------  4 
Starting Wavelength (Angstroms) ---  3331 
Final Wavelength (Angstoms) -------  3351 
Wavelength Increment (Angstroms) --  .25 
Filter Wheel #1 Position ---------- (1) Ground quartz diffuser (ND=2.32)
Filter Wheel #2 Position ---------- (0) Clear Aperture



************************************************************
HL scan start time = 02:30:16
Dark Count =  6.3 


Time (GMT)  Wavelength (Ang)  Step Number  Raw Counts  Counts/Second

  150.75        3331.00           6596          71.00       282.04
  150.98        3331.25           6599          70.00       277.68
  151.01        3331.50           6603          65.00       255.89
  151.03        3331.75           6607          70.00       277.68
  151.06        3332.00           6611          60.00       234.09
  151.09        3332.25           6614          75.00       299.48
  151.12        3332.50           6618          67.00       264.61
  151.15        3332.75           6622          65.00       255.89
  151.18        3333.00           6626          74.00       295.12
  151.21        3333.25           6629          66.00       260.25
  151.24        3333.50           6633          70.00       277.68
  151.27        3333.75           6637          71.00       282.04
  151.30        3334.00           6640          66.00       260.25
  151.33        3334.25           6644          71.00       282.04
  151.36        3334.50           6648          75.00       299.48
  151.39        3334.75           6652          72.00       286.40
  151.42        3335.00           6655          86.00       347.43
  151.45        3335.25           6659         115.00       473.85
  151.48        3335.50           6663         342.00      1463.45
  151.51        3335.75           6667        1024.00      4436.95
  151.54        3336.00           6670        1965.00      8540.55
  151.57        3336.25           6674        3655.00     15913.00
  151.60        3336.50           6678        6340.00     27632.75
  151.63        3336.75           6682        9766.00     42598.87
  151.66        3337.00           6685       12581.00     54905.98
  151.69        3337.25           6689       16306.00     71205.56
  151.72        3337.50           6693       20244.00     88454.56
  151.74        3337.75           6697       24486.00    107055.10
  151.77        3338.00           6700       27431.00    119980.80
  151.80        3338.25           6704       31761.00    139003.50
  151.83        3338.50           6708       36052.00    157876.30
  151.86        3338.75           6712       40078.00    175603.10
  151.89        3339.00           6715       43303.00    189816.70
  151.92        3339.25           6719       47059.00    206385.90
  151.95        3339.50           6723       50953.00    223581.40
  151.98        3339.75           6727       54772.00    240463.00
  152.01        3340.00           6730       57721.00    253510.50
  152.04        3340.25           6734       61379.00    269709.30
  152.07        3340.50           6738       65053.00    285994.80
  152.10        3340.75           6742       68160.00    299779.50
  152.13        3341.00           6745       70376.00    309618.10
  152.16        3341.25           6749       71705.00    315521.40
  152.19        3341.50           6753       72200.00    317720.70
  152.22        3341.75           6756       71163.00    313113.60
  152.25        3342.00           6760       68922.00    303161.90
  152.28        3342.25           6764       66230.00    291215.40
  152.31        3342.50           6768       62831.00    276143.50
  152.34        3342.75           6771       60161.00    264313.80
  152.36        3343.00           6775       56244.00    246974.40
  152.39        3343.25           6779       52136.00    228808.90
  152.42        3343.50           6783       48313.00    211921.50
  152.45        3343.75           6786       45288.00    198571.30
  152.48        3344.00           6790       41212.00    180599.60
  152.51        3344.25           6794       36954.00    161846.30
  152.54        3344.50           6798       32690.00    143087.60
  152.57        3344.75           6801       29575.00    129397.10
  152.60        3345.00           6805       25231.00    110324.00
  152.63        3345.25           6809       21073.00     92087.97
  152.66        3345.50           6813       16917.00     73880.66
  152.69        3345.75           6817       13271.00     57924.03
  152.72        3346.00           6820       10432.00     45509.79
  152.75        3346.25           6824        7057.00     30763.78
  152.78        3346.50           6828        4357.00     18976.37
  152.81        3346.75           6832        2113.00      9186.05
  152.84        3347.00           6835        1119.00      4851.19
  152.86        3347.25           6839         408.00      1751.18
  152.89        3347.50           6843         158.00       661.30
  152.92        3347.75           6847         108.00       443.34
  152.95        3348.00           6850          88.00       356.15
  152.98        3348.25           6854          81.00       325.64
  153.01        3348.50           6858          70.00       277.68
  153.04        3348.75           6862          73.00       290.76
  153.07        3349.00           6865          66.00       260.25
  153.10        3349.25           6869          67.00       264.61
  153.13        3349.50           6873          71.00       282.04
  153.16        3349.75           6877          76.00       303.84
  153.19        3350.00           6880          69.00       273.32
  153.22        3350.25           6884          77.00       308.20
  153.25        3350.50           6888          66.00       260.25
  153.28        3350.75           6892          82.00       329.99
  153.31        3351.00           6895          68.00       268.96
HL scan finished at 02:34:09
end
************************************************************
  HL Scan of (1) Internal mercury lamp
************************************************************
Integration time is 0.2294 seconds per sample
dh030818arosa 46.7828-9.6754 3.184857pr812
************************************************************
Dead Time -------------------------  3E-08 
Number of Cycles Used -------------  4 
Starting Wavelength (Angstroms) ---  3331 
Final Wavelength (Angstoms) -------  3351 
Wavelength Increment (Angstroms) --  .25 
Filter Wheel #1 Position ---------- (1) Ground quartz diffuser (ND=2.32)
Filter Wheel #2 Position ---------- (0) Clear Aperture



************************************************************
HL scan start time = 19:35:09
Dark Count =  7 


Time (GMT)  Wavelength (Ang)  Step Number  Raw Counts  Counts/Second

 1175.63        3331.00           6596          69.00       270.27
 1175.85        3331.25           6599          67.00       261.55
 1175.88        3331.50           6603          65.00       252.84
 1175.91        3331.75           6607          75.00       296.43
 1175.94        3332.00           6611          71.00       278.99
 1175.97        3332.25           6614          76.00       300.79
 1176.00        3332.50           6618          73.00       287.71
 1176.03        3332.75           6622          70.00       274.63
 1176.06        3333.00           6626          82.00       326.94
 1176.09        3333.25           6629          71.00       278.99
 1176.11        3333.50           6633          78.00       309.51
 1176.14        3333.75           6637          64.00       248.48
 1176.17        3334.00           6640          71.00       278.99
 1176.20        3334.25           6644          71.00       278.99
 1176.23        3334.50           6648          75.00       296.43
 1176.26        3334.75           6652          72.00       283.35
 1176.29        3335.00           6655          88.00       353.10
 1176.32        3335.25           6659         116.00       475.16
 1176.35        3335.50           6663         357.00      1525.79
 1176.38        3335.75           6667        1076.00      4660.64
 1176.41        3336.00           6670        1979.00      8598.56
 1176.44        3336.25           6674        3947.00     17184.10
 1176.47        3336.50           6678        6605.00     28786.84
 1176.50        3336.75           6682        9899.00     43177.08
 1176.53        3337.00           6685       12800.00     55860.76
 1176.55        3337.25           6689       16963.00     74079.01
 1176.58        3337.50           6693       21115.00     92269.00
 1176.61        3337.75           6697       25254.00    110421.90
 1176.64        3338.00           6700       28387.00    124175.80
 1176.67        3338.25           6704       32655.00    142930.70
 1176.70        3338.50           6708       37313.00    163423.50
 1176.73        3338.75           6712       41316.00    181054.90
 1176.76        3339.00           6715       44635.00    195687.70
 1176.79        3339.25           6719       48453.00    212536.50
 1176.82        3339.50           6723       52538.00    230582.60
 1176.85        3339.75           6727       56596.00    248528.80
 1176.88        3340.00           6730       59500.00    261383.40
 1176.91        3340.25           6734       63529.00    279234.40
 1176.94        3340.50           6738       67214.00    295578.00
 1176.97        3340.75           6742       70463.00    310001.30
 1177.00        3341.00           6745       72142.00    317459.80
 1177.03        3341.25           6749       73826.00    324943.90
 1177.06        3341.50           6753       74333.00    327197.80
 1177.09        3341.75           6756       73593.00    323908.20
 1177.12        3342.00           6760       71489.00    314558.60
 1177.15        3342.25           6764       68361.00    300668.50
 1177.18        3342.50           6768       64804.00    284887.50
 1177.20        3342.75           6771       61727.00    271248.00
 1177.23        3343.00           6775       57612.00    253025.00
 1177.26        3343.25           6779       54119.00    237572.10
 1177.29        3343.50           6783       49635.00    217756.20
 1177.32        3343.75           6786       46562.00    204189.50
 1177.35        3344.00           6790       42377.00    185731.20
 1177.38        3344.25           6794       38286.00    167707.40
 1177.41        3344.50           6798       33726.00    147640.30
 1177.44        3344.75           6801       30309.00    132619.00
 1177.47        3345.00           6805       25945.00    113454.40
 1177.50        3345.25           6809       21638.00     94561.69
 1177.53        3345.50           6813       17787.00     77687.38
 1177.56        3345.75           6817       13607.00     59390.82
 1177.59        3346.00           6820       10818.00     47194.06
 1177.62        3346.25           6824        7312.00     31874.41
 1177.65        3346.50           6828        4294.00     18698.37
 1177.68        3346.75           6832        2221.00      9654.06
 1177.70        3347.00           6835        1179.00      5109.76
 1177.73        3347.25           6839         427.00      1830.96
 1177.76        3347.50           6843         155.00       645.17
 1177.79        3347.75           6847         104.00       422.85
 1177.82        3348.00           6850          93.00       374.90
 1177.85        3348.25           6854          91.00       366.18
 1177.88        3348.50           6858          75.00       296.43
 1177.91        3348.75           6862          79.00       313.87
 1177.94        3349.00           6865          66.00       257.19
 1177.97        3349.25           6869          77.00       305.15
 1178.00        3349.50           6873          72.00       283.35
 1178.03        3349.75           6877          69.00       270.27
 1178.06        3350.00           6880          74.00       292.07
 1178.09        3350.25           6884          69.00       270.27
 1178.12        3350.50           6888          71.00       278.99
 1178.15        3350.75           6892          73.00       287.71
 1178.18        3351.00           6895          76.00       300.79
HL scan finished at 19:39:01
end
