************************************************************
  HL Scan of (1) Internal mercury lamp
************************************************************
Integration time is 0.2294 seconds per sample
dh080818arosa 46.7828-9.6754 3.118579pr812
************************************************************
Dead Time -------------------------  3E-08 
Number of Cycles Used -------------  4 
Starting Wavelength (Angstroms) ---  3331 
Final Wavelength (Angstoms) -------  3351 
Wavelength Increment (Angstroms) --  .25 
Filter Wheel #1 Position ---------- (1) Ground quartz diffuser (ND=2.32)
Filter Wheel #2 Position ---------- (0) Clear Aperture



************************************************************
HL scan start time = 02:48:06
Dark Count =  5 


Time (GMT)  Wavelength (Ang)  Step Number  Raw Counts  Counts/Second

  168.59        3331.00           6596          68.00       274.63
  168.81        3331.25           6599          69.00       278.99
  168.84        3331.50           6603          73.00       296.43
  168.87        3331.75           6607          67.00       270.27
  168.90        3332.00           6611          71.00       287.71
  168.93        3332.25           6614          67.00       270.27
  168.95        3332.50           6618          71.00       287.71
  168.98        3332.75           6622          66.00       265.91
  169.01        3333.00           6626          74.00       300.79
  169.04        3333.25           6629          68.00       274.63
  169.07        3333.50           6633          73.00       296.43
  169.10        3333.75           6637          66.00       265.91
  169.13        3334.00           6640          67.00       270.27
  169.16        3334.25           6644          70.00       283.35
  169.19        3334.50           6648          74.00       300.79
  169.22        3334.75           6652          86.00       353.10
  169.25        3335.00           6655          84.00       344.38
  169.28        3335.25           6659         134.00       562.35
  169.31        3335.50           6663         460.00      1983.55
  169.34        3335.75           6667        1246.00      5410.64
  169.37        3336.00           6670        2241.00      9750.02
  169.40        3336.25           6674        4105.00     17882.30
  169.43        3336.50           6678        7026.00     30634.07
  169.46        3336.75           6682       10332.00     45078.36
  169.48        3337.00           6685       13228.00     57741.62
  169.51        3337.25           6689       16988.00     74197.23
  169.54        3337.50           6693       21207.00     92681.05
  169.57        3337.75           6697       25414.00    111132.80
  169.60        3338.00           6700       28546.00    124882.90
  169.63        3338.25           6704       32849.00    143792.50
  169.66        3338.50           6708       36856.00    161420.60
  169.69        3338.75           6712       41109.00    180151.50
  169.72        3339.00           6715       44107.00    193367.80
  169.75        3339.25           6719       47973.00    210426.20
  169.78        3339.50           6723       51799.00    227325.30
  169.81        3339.75           6727       55765.00    244861.00
  169.84        3340.00           6730       58846.00    258496.50
  169.87        3340.25           6734       62501.00    274686.70
  169.90        3340.50           6738       66197.00    291074.70
  169.93        3340.75           6742       69136.00    304117.70
  169.96        3341.00           6745       71008.00    312430.80
  169.99        3341.25           6749       72104.00    317299.90
  170.02        3341.50           6753       72366.00    318464.00
  170.04        3341.75           6756       71141.00    313021.60
  170.07        3342.00           6760       68933.00    303216.50
  170.10        3342.25           6764       65788.00    289260.50
  170.13        3342.50           6768       62128.00    273033.80
  170.16        3342.75           6771       59246.00    260267.50
  170.19        3343.00           6775       55642.00    244316.90
  170.23        3343.25           6779       51662.00    226719.90
  170.25        3343.50           6783       47620.00    208867.90
  170.28        3343.75           6786       44622.00    195639.20
  170.31        3344.00           6790       40373.00    176908.50
  170.34        3344.25           6794       36485.00    159787.70
  170.37        3344.50           6798       31917.00    139694.90
  170.40        3344.75           6801       28837.00    126161.00
  170.43        3345.00           6805       24472.00    106999.40
  170.46        3345.25           6809       20290.00     88661.84
  170.49        3345.50           6813       16314.00     71246.28
  170.52        3345.75           6817       12328.00     53805.18
  170.55        3346.00           6820        9637.00     42040.79
  170.58        3346.25           6824        6464.00     28179.88
  170.61        3346.50           6828        3880.00     16900.46
  170.64        3346.75           6832        1873.00      8144.97
  170.67        3347.00           6835         936.00      4058.91
  170.70        3347.25           6839         350.00      1503.99
  170.73        3347.50           6843         153.00       645.17
  170.76        3347.75           6847         108.00       449.00
  170.79        3348.00           6850          84.00       344.38
  170.82        3348.25           6854          86.00       353.10
  170.85        3348.50           6858          79.00       322.58
  170.88        3348.75           6862          71.00       287.71
  170.90        3349.00           6865          66.00       265.91
  170.93        3349.25           6869          66.00       265.91
  170.96        3349.50           6873          75.00       305.15
  170.99        3349.75           6877          70.00       283.35
  171.02        3350.00           6880          71.00       287.71
  171.05        3350.25           6884          69.00       278.99
  171.08        3350.50           6888          66.00       265.91
  171.11        3350.75           6892          69.00       278.99
  171.14        3351.00           6895          75.00       305.15
HL scan finished at 02:51:59
end
