************************************************************
  HS Scan of (1) Internal mercury lamp
************************************************************
Integration time is 0.2294 seconds per sample
dh290517inta 37.1 6.733 3.164464pr1000
************************************************************
Dead Time -------------------------  3E-08 
Number of Cycles Used -------------  4 
Starting Wavelength (Angstroms) ---  2950 
Final Wavelength (Angstoms) -------  2984 
Wavelength Increment (Angstroms) --  .25 
Filter Wheel #1 Position ---------- (1) Ground quartz diffuser (ND=2.32)
Filter Wheel #2 Position ---------- (1) Neutral Density 0.494



************************************************************
HS scan start time = 20:25:41
Dark Count =  5.3 


Time (GMT)  Wavelength (Ang)  Step Number  Raw Counts  Counts/Second

 1226.01        2950.00           1230         123.00       513.09
 1226.08        2950.25           1234         116.00       482.57
 1226.11        2950.50           1237         106.00       438.98
 1226.14        2950.75           1240         124.00       517.44
 1226.17        2951.00           1244         112.00       465.13
 1226.20        2951.25           1247         116.00       482.57
 1226.23        2951.50           1250         114.00       473.85
 1226.26        2951.75           1254         123.00       513.09
 1226.28        2952.00           1257         123.00       513.09
 1226.31        2952.25           1260         117.00       486.93
 1226.34        2952.50           1264         114.00       473.85
 1226.37        2952.75           1267         118.00       491.29
 1226.40        2953.00           1270         109.00       452.05
 1226.43        2953.25           1274         117.00       486.93
 1226.46        2953.50           1277         111.00       460.77
 1226.49        2953.75           1280         113.00       469.49
 1226.52        2954.00           1284         117.00       486.93
 1226.55        2954.25           1287         111.00       460.77
 1226.58        2954.50           1290         126.00       526.16
 1226.61        2954.75           1294         115.00       478.21
 1226.64        2955.00           1297         110.00       456.41
 1226.67        2955.25           1300         119.00       495.65
 1226.70        2955.50           1304         116.00       482.57
 1226.73        2955.75           1307         114.00       473.85
 1226.76        2956.00           1310         104.00       430.26
 1226.79        2956.25           1314         125.00       521.80
 1226.82        2956.50           1317         126.00       526.16
 1226.85        2956.75           1320         116.00       482.57
 1226.88        2957.00           1324         124.00       517.44
 1226.91        2957.25           1327         110.00       456.41
 1226.93        2957.50           1330         118.00       491.29
 1226.96        2957.75           1334         121.00       504.37
 1226.99        2958.00           1337         109.00       452.05
 1227.02        2958.25           1340         110.00       456.41
 1227.05        2958.50           1344         110.00       456.41
 1227.08        2958.75           1347         117.00       486.93
 1227.11        2959.00           1350         115.00       478.21
 1227.14        2959.25           1354         107.00       443.34
 1227.17        2959.50           1357         115.00       478.21
 1227.20        2959.75           1360         110.00       456.41
 1227.23        2960.00           1364         131.00       547.96
 1227.25        2960.25           1367         132.00       552.32
 1227.28        2960.50           1370         157.00       661.30
 1227.31        2960.75           1374         425.00      1829.66
 1227.34        2961.00           1377        1056.00      4580.84
 1227.37        2961.25           1380        2335.00     10158.72
 1227.40        2961.50           1384        5204.00     22677.59
 1227.43        2961.75           1387        8371.00     36507.70
 1227.46        2962.00           1391       13416.00     58562.70
 1227.49        2962.25           1394       17571.00     76748.87
 1227.52        2962.50           1397       22135.00     96748.14
 1227.55        2962.75           1401       28148.00    123133.60
 1227.58        2963.00           1404       32802.00    143584.50
 1227.61        2963.25           1407       37626.00    164808.90
 1227.64        2963.50           1411       44323.00    194319.10
 1227.67        2963.75           1414       49120.00    215489.30
 1227.70        2964.00           1417       54311.00    238428.70
 1227.73        2964.25           1421       61027.00    268154.20
 1227.76        2964.50           1424       65722.00    288966.40
 1227.79        2964.75           1427       70714.00    311123.70
 1227.82        2965.00           1431       77474.00    341175.60
 1227.85        2965.25           1434       82390.00    363064.30
 1227.88        2965.50           1437       86891.00    383130.50
 1227.90        2965.75           1441       92715.00    409131.00
 1227.93        2966.00           1444       96819.00    427477.20
 1227.96        2966.25           1447      100171.00    442476.90
 1227.99        2966.50           1451      103954.00    459421.60
 1228.02        2966.75           1454      105418.00    465983.80
 1228.05        2967.00           1457      106318.00    470019.20
 1228.08        2967.25           1461      106666.00    471579.80
 1228.11        2967.50           1464      105854.00    467938.60
 1228.14        2967.75           1467      104410.00    461465.30
 1228.17        2968.00           1471      101284.00    447460.40
 1228.20        2968.25           1474       97747.00    431628.50
 1228.23        2968.50           1477       93325.00    411856.50
 1228.26        2968.75           1481       87511.00    385896.40
 1228.29        2969.00           1484       83032.00    365924.90
 1228.32        2969.25           1487       78091.00    343921.30
 1228.35        2969.50           1491       72164.00    317565.10
 1228.38        2969.75           1494       67314.00    296029.30
 1228.41        2970.00           1498       61029.00    268163.10
 1228.43        2970.25           1501       56485.00    248045.10
 1228.46        2970.50           1504       51589.00    226396.00
 1228.49        2970.75           1508       45072.00    197622.90
 1228.52        2971.00           1511       40258.00    176400.50
 1228.55        2971.25           1514       35431.00    155148.10
 1228.58        2971.50           1518       28724.00    125663.40
 1228.61        2971.75           1521       23722.00    103708.00
 1228.64        2972.00           1524       18644.00     81448.56
 1228.67        2972.25           1528       12800.00     55868.19
 1228.70        2972.50           1531        9008.00     39290.85
 1228.73        2972.75           1534        5685.00     24777.35
 1228.76        2973.00           1538        2867.00     12479.39
 1228.79        2973.25           1541        1329.00      5771.27
 1228.82        2973.50           1544         628.00      2714.69
 1228.85        2973.75           1548         246.00      1049.29
 1228.88        2974.00           1551         159.00       670.02
 1228.91        2974.25           1554         141.00       591.55
 1228.94        2974.50           1558         128.00       534.88
 1228.97        2974.75           1561         121.00       504.37
 1229.00        2975.00           1565         112.00       465.13
 1229.02        2975.25           1568         110.00       456.41
 1229.05        2975.50           1571         112.00       465.13
 1229.08        2975.75           1575         100.00       412.82
 1229.11        2976.00           1578         101.00       417.18
 1229.14        2976.25           1581         106.00       438.98
 1229.17        2976.50           1585         108.00       447.70
 1229.20        2976.75           1588         104.00       430.26
 1229.23        2977.00           1591         100.00       412.82
 1229.26        2977.25           1595         107.00       443.34
 1229.29        2977.50           1598         104.00       430.26
 1229.32        2977.75           1601         107.00       443.34
 1229.35        2978.00           1605         109.00       452.05
 1229.38        2978.25           1608         103.00       425.90
 1229.41        2978.50           1611         110.00       456.41
 1229.44        2978.75           1615         100.00       412.82
 1229.47        2979.00           1618         107.00       443.34
 1229.50        2979.25           1622         109.00       452.05
 1229.53        2979.50           1625         105.00       434.62
 1229.56        2979.75           1628         108.00       447.70
 1229.59        2980.00           1632         108.00       447.70
 1229.62        2980.25           1635         104.00       430.26
 1229.64        2980.50           1638         106.00       438.98
 1229.67        2980.75           1642         111.00       460.77
 1229.70        2981.00           1645         100.00       412.82
 1229.73        2981.25           1648          94.00       386.67
 1229.76        2981.50           1652         100.00       412.82
 1229.79        2981.75           1655         106.00       438.98
 1229.82        2982.00           1658          99.00       408.46
 1229.85        2982.25           1662         104.00       430.26
 1229.88        2982.50           1665         102.00       421.54
 1229.91        2982.75           1669         100.00       412.82
 1229.94        2983.00           1672         104.00       430.26
 1229.97        2983.25           1675          99.00       408.46
 1230.00        2983.50           1679         100.00       412.82
 1230.03        2983.75           1682          98.00       404.10
 1230.06        2984.00           1685         101.00       417.18
HS scan finished at 20:30:17
end
