************************************************************
  HS Scan of (1) Internal mercury lamp
************************************************************
Integration time is 0.2294 seconds per sample
dh020617inta 37.1 6.733 3.256233pr1000
************************************************************
Dead Time -------------------------  3E-08 
Number of Cycles Used -------------  4 
Starting Wavelength (Angstroms) ---  2950 
Final Wavelength (Angstoms) -------  2984 
Wavelength Increment (Angstroms) --  .25 
Filter Wheel #1 Position ---------- (1) Ground quartz diffuser (ND=2.32)
Filter Wheel #2 Position ---------- (1) Neutral Density 0.494



************************************************************
HS scan start time = 01:53:36
Dark Count =  6.2 


Time (GMT)  Wavelength (Ang)  Step Number  Raw Counts  Counts/Second

  113.93        2950.00           1230         112.00       461.21
  113.99        2950.25           1234         125.00       517.88
  114.02        2950.50           1237         109.00       448.13
  114.05        2950.75           1240         120.00       496.08
  114.08        2951.00           1244         107.00       439.41
  114.11        2951.25           1247         117.00       483.01
  114.14        2951.50           1250         105.00       430.69
  114.17        2951.75           1254         112.00       461.21
  114.20        2952.00           1257         117.00       483.01
  114.23        2952.25           1260         107.00       439.41
  114.26        2952.50           1264         106.00       435.05
  114.29        2952.75           1267         128.00       530.96
  114.32        2953.00           1270         107.00       439.41
  114.35        2953.25           1274         111.00       456.85
  114.38        2953.50           1277         104.00       426.34
  114.41        2953.75           1280         107.00       439.41
  114.43        2954.00           1284         111.00       456.85
  114.46        2954.25           1287         116.00       478.65
  114.49        2954.50           1290         116.00       478.65
  114.52        2954.75           1294         111.00       456.85
  114.55        2955.00           1297         104.00       426.34
  114.58        2955.25           1300         107.00       439.41
  114.61        2955.50           1304         106.00       435.05
  114.64        2955.75           1307         109.00       448.13
  114.67        2956.00           1310         109.00       448.13
  114.70        2956.25           1314         110.00       452.49
  114.73        2956.50           1317         110.00       452.49
  114.76        2956.75           1320         107.00       439.41
  114.79        2957.00           1324         109.00       448.13
  114.82        2957.25           1327         114.00       469.93
  114.85        2957.50           1330         109.00       448.13
  114.88        2957.75           1334         112.00       461.21
  114.91        2958.00           1337         118.00       487.37
  114.93        2958.25           1340         112.00       461.21
  114.96        2958.50           1344         112.00       461.21
  114.99        2958.75           1347         110.00       452.49
  115.02        2959.00           1350         114.00       469.93
  115.05        2959.25           1354         114.00       469.93
  115.08        2959.50           1357         113.00       465.57
  115.11        2959.75           1360         114.00       469.93
  115.14        2960.00           1364         124.00       513.52
  115.17        2960.25           1367         135.00       561.47
  115.20        2960.50           1370         148.00       618.15
  115.23        2960.75           1374         355.00      1520.56
  115.26        2961.00           1377         852.00      3687.42
  115.29        2961.25           1380        1968.00      8554.07
  115.32        2961.50           1384        4625.00     20146.44
  115.35        2961.75           1387        7524.00     32803.85
  115.38        2962.00           1391       12335.00     53830.55
  115.41        2962.25           1394       16727.00     73049.20
  115.43        2962.50           1397       21638.00     94565.21
  115.46        2962.75           1401       28043.00    122668.60
  115.49        2963.00           1404       33107.00    144921.60
  115.52        2963.25           1407       37906.00    166037.70
  115.55        2963.50           1411       45020.00    197389.50
  115.58        2963.75           1414       50318.00    220776.60
  115.61        2964.00           1417       55568.00    243984.20
  115.64        2964.25           1421       62781.00    275922.40
  115.67        2964.50           1424       67714.00    297800.40
  115.70        2964.75           1427       72701.00    319947.30
  115.73        2965.00           1431       80012.00    352468.50
  115.76        2965.25           1434       85326.00    376146.60
  115.79        2965.50           1437       90306.00    398367.30
  115.82        2965.75           1441       96510.00    426091.20
  115.85        2966.00           1444      101019.00    446269.70
  115.88        2966.25           1447      105000.00    464105.80
  115.91        2966.50           1451      109300.00    483392.80
  115.94        2966.75           1454      111427.00    492941.50
  115.97        2967.00           1457      112677.00    498555.60
  116.00        2967.25           1461      113286.00    501291.50
  116.03        2967.50           1464      112814.00    499171.00
  116.06        2967.75           1467      111516.00    493341.10
  116.09        2968.00           1471      108160.00    478277.30
  116.12        2968.25           1474      104799.00    463204.80
  116.15        2968.50           1477      100558.00    444205.50
  116.17        2968.75           1481       94693.00    417966.70
  116.20        2969.00           1484       89126.00    393099.40
  116.23        2969.25           1487       84370.00    371884.40
  116.26        2969.50           1491       77694.00    342150.50
  116.29        2969.75           1494       72759.00    320205.10
  116.32        2970.00           1498       66325.00    291637.20
  116.35        2970.25           1501       61399.00    269798.30
  116.38        2970.50           1504       55986.00    245833.40
  116.41        2970.75           1508       49115.00    215463.20
  116.44        2971.00           1511       43865.00    192295.40
  116.47        2971.25           1514       38857.00    170225.40
  116.50        2971.50           1518       31858.00    139430.30
  116.53        2971.75           1521       26888.00    117597.20
  116.56        2972.00           1524       21504.00     93977.76
  116.59        2972.25           1528       14611.00     63787.17
  116.61        2972.50           1531       10629.00     46371.35
  116.64        2972.75           1534        6852.00     29868.95
  116.67        2973.00           1538        3603.00     15686.55
  116.70        2973.25           1541        1844.00      8013.26
  116.73        2973.50           1544         845.00      3656.90
  116.76        2973.75           1548         336.00      1437.73
  116.79        2974.00           1551         185.00       779.44
  116.82        2974.25           1554         146.00       609.43
  116.85        2974.50           1558         134.00       557.11
  116.88        2974.75           1561         134.00       557.11
  116.91        2975.00           1565         109.00       448.13
  116.94        2975.25           1568          99.00       404.54
  116.97        2975.50           1571         116.00       478.65
  117.00        2975.75           1575         108.00       443.77
  117.03        2976.00           1578         109.00       448.13
  117.06        2976.25           1581         115.00       474.29
  117.09        2976.50           1585         115.00       474.29
  117.11        2976.75           1588         107.00       439.41
  117.14        2977.00           1591          99.00       404.54
  117.17        2977.25           1595         103.00       421.98
  117.20        2977.50           1598         110.00       452.49
  117.23        2977.75           1601         111.00       456.85
  117.26        2978.00           1605         101.00       413.26
  117.29        2978.25           1608         106.00       435.05
  117.32        2978.50           1611         110.00       452.49
  117.35        2978.75           1615         110.00       452.49
  117.38        2979.00           1618          90.00       365.30
  117.41        2979.25           1622         101.00       413.26
  117.44        2979.50           1625         103.00       421.98
  117.47        2979.75           1628         104.00       426.34
  117.50        2980.00           1632          96.00       391.46
  117.53        2980.25           1635         101.00       413.26
  117.56        2980.50           1638         102.00       417.62
  117.58        2980.75           1642          99.00       404.54
  117.61        2981.00           1645         104.00       426.34
  117.64        2981.25           1648         104.00       426.34
  117.67        2981.50           1652         101.00       413.26
  117.70        2981.75           1655          98.00       400.18
  117.73        2982.00           1658         110.00       452.49
  117.76        2982.25           1662         108.00       443.77
  117.79        2982.50           1665          99.00       404.54
  117.82        2982.75           1669         102.00       417.62
  117.85        2983.00           1672          95.00       387.10
  117.88        2983.25           1675         100.00       408.90
  117.91        2983.50           1679          94.00       382.74
  117.94        2983.75           1682         100.00       408.90
  117.97        2984.00           1685          94.00       382.74
HS scan finished at 01:58:11
end
************************************************************
  HS Scan of (1) Internal mercury lamp
************************************************************
Integration time is 0.2294 seconds per sample
dh020617inta 37.1 6.733 3.281725pr1000
************************************************************
Dead Time -------------------------  3E-08 
Number of Cycles Used -------------  4 
Starting Wavelength (Angstroms) ---  2950 
Final Wavelength (Angstoms) -------  2984 
Wavelength Increment (Angstroms) --  .25 
Filter Wheel #1 Position ---------- (1) Ground quartz diffuser (ND=2.32)
Filter Wheel #2 Position ---------- (1) Neutral Density 0.494



************************************************************
HS scan start time = 21:45:51
Dark Count =  8.5 


Time (GMT)  Wavelength (Ang)  Step Number  Raw Counts  Counts/Second

 1306.17        2950.00           1230         108.00       433.75
 1306.24        2950.25           1234         113.00       455.54
 1306.27        2950.50           1237         113.00       455.54
 1306.30        2950.75           1240         120.00       486.06
 1306.32        2951.00           1244         115.00       464.26
 1306.35        2951.25           1247         116.00       468.62
 1306.38        2951.50           1250         113.00       455.54
 1306.41        2951.75           1254         114.00       459.90
 1306.44        2952.00           1257         114.00       459.90
 1306.47        2952.25           1260         116.00       468.62
 1306.50        2952.50           1264         108.00       433.75
 1306.53        2952.75           1267         107.00       429.39
 1306.56        2953.00           1270         114.00       459.90
 1306.59        2953.25           1274         114.00       459.90
 1306.62        2953.50           1277         114.00       459.90
 1306.65        2953.75           1280         103.00       411.95
 1306.68        2954.00           1284         111.00       446.82
 1306.71        2954.25           1287         114.00       459.90
 1306.74        2954.50           1290         113.00       455.54
 1306.77        2954.75           1294         110.00       442.46
 1306.80        2955.00           1297         113.00       455.54
 1306.83        2955.25           1300         111.00       446.82
 1306.85        2955.50           1304         120.00       486.06
 1306.88        2955.75           1307         111.00       446.82
 1306.91        2956.00           1310         113.00       455.54
 1306.94        2956.25           1314         108.00       433.75
 1306.97        2956.50           1317         102.00       407.59
 1307.00        2956.75           1320         112.00       451.18
 1307.03        2957.00           1324         115.00       464.26
 1307.06        2957.25           1327         112.00       451.18
 1307.09        2957.50           1330         108.00       433.75
 1307.12        2957.75           1334         114.00       459.90
 1307.15        2958.00           1337         106.00       425.03
 1307.18        2958.25           1340         110.00       442.46
 1307.21        2958.50           1344         116.00       468.62
 1307.24        2958.75           1347         102.00       407.59
 1307.27        2959.00           1350         106.00       425.03
 1307.30        2959.25           1354         122.00       494.78
 1307.33        2959.50           1357         117.00       472.98
 1307.36        2959.75           1360         114.00       459.90
 1307.39        2960.00           1364         111.00       446.82
 1307.42        2960.25           1367         123.00       499.14
 1307.45        2960.50           1370         136.00       555.81
 1307.48        2960.75           1374         300.00      1270.75
 1307.50        2961.00           1377         791.00      3411.42
 1307.53        2961.25           1380        1891.00      8208.21
 1307.56        2961.50           1384        4554.00     19826.52
 1307.59        2961.75           1387        7581.00     33042.77
 1307.62        2962.00           1391       12616.00     55049.43
 1307.65        2962.25           1394       16745.00     73117.93
 1307.68        2962.50           1397       21495.00     93928.21
 1307.71        2962.75           1401       28146.00    123110.80
 1307.74        2963.00           1404       33022.00    144537.80
 1307.77        2963.25           1407       38207.00    167352.90
 1307.80        2963.50           1411       44621.00    195619.40
 1307.83        2963.75           1414       50019.00    219445.60
 1307.86        2964.00           1417       55402.00    243239.70
 1307.89        2964.25           1421       62074.00    272779.00
 1307.91        2964.50           1424       67576.00    297177.80
 1307.94        2964.75           1427       73336.00    322759.30
 1307.97        2965.00           1431       80205.00    353317.70
 1308.00        2965.25           1434       85316.00    376091.80
 1308.03        2965.50           1437       90448.00    398991.10
 1308.06        2965.75           1441       96546.00    426241.90
 1308.09        2966.00           1444      101164.00    446908.70
 1308.12        2966.25           1447      105064.00    464382.40
 1308.15        2966.50           1451      109633.00    484877.10
 1308.18        2966.75           1454      111517.00    493335.30
 1308.21        2967.00           1457      113116.00    500517.40
 1308.24        2967.25           1461      113556.00    502494.30
 1308.27        2967.50           1464      113355.00    501591.20
 1308.30        2967.75           1467      111456.00    493061.30
 1308.33        2968.00           1471      108545.00    479994.40
 1308.36        2968.25           1474      105047.00    464306.20
 1308.39        2968.50           1477      101114.00    446684.80
 1308.42        2968.75           1481       94499.00    417089.20
 1308.45        2969.00           1484       89247.00    393629.30
 1308.48        2969.25           1487       84605.00    372921.80
 1308.51        2969.50           1491       78440.00    345460.20
 1308.54        2969.75           1494       73251.00    322381.50
 1308.57        2970.00           1498       66593.00    292816.00
 1308.60        2970.25           1501       61486.00    270173.60
 1308.63        2970.50           1504       56142.00    246513.40
 1308.65        2970.75           1508       49409.00    216751.40
 1308.68        2971.00           1511       44637.00    195689.90
 1308.71        2971.25           1514       39486.00    172985.60
 1308.74        2971.50           1518       32183.00    140848.90
 1308.77        2971.75           1521       27197.00    118943.70
 1308.80        2972.00           1524       21895.00     95681.84
 1308.83        2972.25           1528       15182.00     66275.93
 1308.86        2972.50           1531       10772.00     46986.42
 1308.89        2972.75           1534        6972.00     30382.96
 1308.92        2973.00           1538        3621.00     15755.05
 1308.95        2973.25           1541        1853.00      8042.48
 1308.98        2973.50           1544         909.00      3925.92
 1309.01        2973.75           1548         342.00      1453.86
 1309.04        2974.00           1551         190.00       791.21
 1309.07        2974.25           1554         157.00       647.35
 1309.10        2974.50           1558         122.00       494.78
 1309.13        2974.75           1561         123.00       499.14
 1309.16        2975.00           1565         109.00       438.11
 1309.18        2975.25           1568         102.00       407.59
 1309.21        2975.50           1571         106.00       425.03
 1309.24        2975.75           1575         104.00       416.31
 1309.27        2976.00           1578          99.00       394.51
 1309.30        2976.25           1581         104.00       416.31
 1309.33        2976.50           1585         105.00       420.67
 1309.36        2976.75           1588         110.00       442.46
 1309.39        2977.00           1591         105.00       420.67
 1309.42        2977.25           1595         109.00       438.11
 1309.45        2977.50           1598         111.00       446.82
 1309.48        2977.75           1601          95.00       377.07
 1309.51        2978.00           1605          96.00       381.43
 1309.54        2978.25           1608         109.00       438.11
 1309.57        2978.50           1611         107.00       429.39
 1309.60        2978.75           1615         103.00       411.95
 1309.63        2979.00           1618         100.00       398.87
 1309.65        2979.25           1622         103.00       411.95
 1309.68        2979.50           1625         100.00       398.87
 1309.71        2979.75           1628         109.00       438.11
 1309.74        2980.00           1632         109.00       438.11
 1309.77        2980.25           1635          97.00       385.79
 1309.80        2980.50           1638          96.00       381.43
 1309.83        2980.75           1642         108.00       433.75
 1309.86        2981.00           1645         105.00       420.67
 1309.89        2981.25           1648         100.00       398.87
 1309.92        2981.50           1652          96.00       381.43
 1309.95        2981.75           1655          93.00       368.36
 1309.98        2982.00           1658         100.00       398.87
 1310.01        2982.25           1662          98.00       390.15
 1310.04        2982.50           1665         102.00       407.59
 1310.07        2982.75           1669         102.00       407.59
 1310.10        2983.00           1672          95.00       377.07
 1310.13        2983.25           1675          97.00       385.79
 1310.16        2983.50           1679         104.00       416.31
 1310.19        2983.75           1682          97.00       385.79
 1310.22        2984.00           1685          93.00       368.36
HS scan finished at 21:50:26
end
