************************************************************
  HS Scan of (1) Internal mercury lamp
************************************************************
Integration time is 0.2294 seconds per sample
dh030617inta 37.1 6.733 3.149169pr1000
************************************************************
Dead Time -------------------------  3E-08 
Number of Cycles Used -------------  4 
Starting Wavelength (Angstroms) ---  2950 
Final Wavelength (Angstoms) -------  2984 
Wavelength Increment (Angstroms) --  .25 
Filter Wheel #1 Position ---------- (1) Ground quartz diffuser (ND=2.32)
Filter Wheel #2 Position ---------- (1) Neutral Density 0.494



************************************************************
HS scan start time = 01:52:40
Dark Count =  6.4 


Time (GMT)  Wavelength (Ang)  Step Number  Raw Counts  Counts/Second

  113.00        2950.00           1230         120.00       495.21
  113.06        2950.25           1234         111.00       455.98
  113.09        2950.50           1237         118.00       486.49
  113.12        2950.75           1240         114.00       469.06
  113.15        2951.00           1244         123.00       508.29
  113.18        2951.25           1247         119.00       490.85
  113.21        2951.50           1250         115.00       473.42
  113.24        2951.75           1254         115.00       473.42
  113.27        2952.00           1257         109.00       447.26
  113.30        2952.25           1260         123.00       508.29
  113.33        2952.50           1264         124.00       512.65
  113.36        2952.75           1267         108.00       442.90
  113.38        2953.00           1270         120.00       495.21
  113.41        2953.25           1274         119.00       490.85
  113.44        2953.50           1277         124.00       512.65
  113.47        2953.75           1280         110.00       451.62
  113.50        2954.00           1284         122.00       503.93
  113.53        2954.25           1287         117.00       482.13
  113.56        2954.50           1290         119.00       490.85
  113.59        2954.75           1294         115.00       473.42
  113.62        2955.00           1297         109.00       447.26
  113.65        2955.25           1300         116.00       477.77
  113.68        2955.50           1304         121.00       499.57
  113.71        2955.75           1307         124.00       512.65
  113.74        2956.00           1310         106.00       434.18
  113.77        2956.25           1314         109.00       447.26
  113.80        2956.50           1317         111.00       455.98
  113.83        2956.75           1320         115.00       473.42
  113.86        2957.00           1324         117.00       482.13
  113.88        2957.25           1327         123.00       508.29
  113.91        2957.50           1330         123.00       508.29
  113.94        2957.75           1334         107.00       438.54
  113.97        2958.00           1337         123.00       508.29
  114.00        2958.25           1340         123.00       508.29
  114.03        2958.50           1344         119.00       490.85
  114.06        2958.75           1347         109.00       447.26
  114.09        2959.00           1350         101.00       412.39
  114.12        2959.25           1354         124.00       512.65
  114.15        2959.50           1357         115.00       473.42
  114.18        2959.75           1360         120.00       495.21
  114.21        2960.00           1364         132.00       547.52
  114.24        2960.25           1367         137.00       569.32
  114.27        2960.50           1370         147.00       612.91
  114.30        2960.75           1374         323.00      1380.18
  114.33        2961.00           1377         763.00      3298.50
  114.36        2961.25           1380        1743.00      7571.90
  114.38        2961.50           1384        4327.00     18845.00
  114.41        2961.75           1387        7029.00     30641.06
  114.44        2962.00           1391       11812.00     51542.58
  114.47        2962.25           1394       15988.00     69813.02
  114.50        2962.50           1397       20296.00     88682.00
  114.53        2962.75           1401       26424.00    115559.50
  114.56        2963.00           1404       31300.00    136976.70
  114.59        2963.25           1407       35918.00    157286.20
  114.62        2963.50           1411       42387.00    185778.00
  114.65        2963.75           1414       47688.00    209161.90
  114.68        2964.00           1417       52568.00    230717.80
  114.71        2964.25           1421       59438.00    261111.50
  114.74        2964.50           1424       64525.00    283652.90
  114.77        2964.75           1427       69742.00    306802.20
  114.80        2965.00           1431       76688.00    337673.70
  114.83        2965.25           1434       81411.00    358698.00
  114.86        2965.50           1437       86441.00    381118.30
  114.88        2965.75           1441       92351.00    407499.80
  114.91        2966.00           1444       96350.00    425374.70
  114.94        2966.25           1447      100446.00    443703.20
  114.97        2966.50           1451      105061.00    464378.40
  115.00        2966.75           1454      106899.00    472619.90
  115.03        2967.00           1457      108408.00    479389.20
  115.06        2967.25           1461      108911.00    481646.20
  115.09        2967.50           1464      108642.00    480439.10
  115.12        2967.75           1467      107546.00    475521.90
  115.15        2968.00           1471      104782.00    463127.70
  115.18        2968.25           1474      101812.00    449820.20
  115.21        2968.50           1477       98061.00    433028.50
  115.24        2968.75           1481       91767.00    404891.00
  115.27        2969.00           1484       86889.00    383116.60
  115.30        2969.25           1487       82079.00    361673.80
  115.33        2969.50           1491       75757.00    333532.60
  115.35        2969.75           1494       70900.00    311945.00
  115.38        2970.00           1498       64432.00    283240.50
  115.41        2970.25           1501       59629.00    261957.30
  115.44        2970.50           1504       54771.00    240458.10
  115.47        2970.75           1508       48370.00    212172.70
  115.50        2971.00           1511       43801.00    192012.20
  115.53        2971.25           1514       38505.00    168674.40
  115.56        2971.50           1518       31916.00    139684.40
  115.59        2971.75           1521       27081.00    118443.70
  115.62        2972.00           1524       21736.00     94993.96
  115.65        2972.25           1528       14975.00     65379.20
  115.68        2972.50           1531       10632.00     46383.60
  115.71        2972.75           1534        6996.00     30496.94
  115.74        2973.00           1538        3655.00     15912.57
  115.77        2973.25           1541        1907.00      8287.15
  115.80        2973.50           1544         895.00      3874.03
  115.83        2973.75           1548         347.00      1484.81
  115.86        2974.00           1551         198.00       835.24
  115.89        2974.25           1554         144.00       599.84
  115.91        2974.50           1558         135.00       560.60
  115.94        2974.75           1561         131.00       543.16
  115.97        2975.00           1565         112.00       460.34
  116.00        2975.25           1568         106.00       434.18
  116.03        2975.50           1571         108.00       442.90
  116.06        2975.75           1575         108.00       442.90
  116.09        2976.00           1578         101.00       412.39
  116.12        2976.25           1581         103.00       421.10
  116.15        2976.50           1585         108.00       442.90
  116.18        2976.75           1588         107.00       438.54
  116.21        2977.00           1591         110.00       451.62
  116.24        2977.25           1595         111.00       455.98
  116.27        2977.50           1598         110.00       451.62
  116.30        2977.75           1601         113.00       464.70
  116.33        2978.00           1605         105.00       429.82
  116.36        2978.25           1608         106.00       434.18
  116.38        2978.50           1611         109.00       447.26
  116.41        2978.75           1615         105.00       429.82
  116.44        2979.00           1618         115.00       473.42
  116.47        2979.25           1622         104.00       425.46
  116.50        2979.50           1625         104.00       425.46
  116.53        2979.75           1628         105.00       429.82
  116.56        2980.00           1632         104.00       425.46
  116.59        2980.25           1635         101.00       412.39
  116.62        2980.50           1638         106.00       434.18
  116.65        2980.75           1642         106.00       434.18
  116.68        2981.00           1645          99.00       403.67
  116.71        2981.25           1648         107.00       438.54
  116.74        2981.50           1652          99.00       403.67
  116.77        2981.75           1655         110.00       451.62
  116.80        2982.00           1658         107.00       438.54
  116.83        2982.25           1662         103.00       421.10
  116.86        2982.50           1665         103.00       421.10
  116.89        2982.75           1669         110.00       451.62
  116.92        2983.00           1672         106.00       434.18
  116.95        2983.25           1675         106.00       434.18
  116.97        2983.50           1679          96.00       390.59
  117.00        2983.75           1682          95.00       386.23
  117.03        2984.00           1685         106.00       434.18
HS scan finished at 01:57:15
end
************************************************************
  HS Scan of (1) Internal mercury lamp
************************************************************
Integration time is 0.2294 seconds per sample
dh030617inta 37.1 6.733 3.29702pr1000
************************************************************
Dead Time -------------------------  3E-08 
Number of Cycles Used -------------  4 
Starting Wavelength (Angstroms) ---  2950 
Final Wavelength (Angstoms) -------  2984 
Wavelength Increment (Angstroms) --  .25 
Filter Wheel #1 Position ---------- (1) Ground quartz diffuser (ND=2.32)
Filter Wheel #2 Position ---------- (1) Neutral Density 0.494



************************************************************
HS scan start time = 20:48:47
Dark Count =  6.1 


Time (GMT)  Wavelength (Ang)  Step Number  Raw Counts  Counts/Second

 1249.11        2950.00           1230         109.00       448.57
 1249.18        2950.25           1234         125.00       518.32
 1249.21        2950.50           1237         110.00       452.93
 1249.24        2950.75           1240         117.00       483.44
 1249.27        2951.00           1244         102.00       418.05
 1249.30        2951.25           1247         117.00       483.44
 1249.33        2951.50           1250         108.00       444.21
 1249.35        2951.75           1254         113.00       466.00
 1249.38        2952.00           1257         110.00       452.93
 1249.41        2952.25           1260         113.00       466.00
 1249.44        2952.50           1264         122.00       505.24
 1249.47        2952.75           1267         108.00       444.21
 1249.50        2953.00           1270         111.00       457.29
 1249.53        2953.25           1274         111.00       457.29
 1249.56        2953.50           1277         110.00       452.93
 1249.59        2953.75           1280         113.00       466.00
 1249.62        2954.00           1284         114.00       470.36
 1249.65        2954.25           1287         108.00       444.21
 1249.68        2954.50           1290         107.00       439.85
 1249.71        2954.75           1294         111.00       457.29
 1249.74        2955.00           1297         111.00       457.29
 1249.77        2955.25           1300         107.00       439.85
 1249.80        2955.50           1304         109.00       448.57
 1249.83        2955.75           1307         117.00       483.44
 1249.85        2956.00           1310         117.00       483.44
 1249.88        2956.25           1314         116.00       479.08
 1249.91        2956.50           1317         113.00       466.00
 1249.94        2956.75           1320         114.00       470.36
 1249.97        2957.00           1324         113.00       466.00
 1250.00        2957.25           1327         113.00       466.00
 1250.03        2957.50           1330         116.00       479.08
 1250.06        2957.75           1334         109.00       448.57
 1250.09        2958.00           1337         114.00       470.36
 1250.12        2958.25           1340         121.00       500.88
 1250.15        2958.50           1344         100.00       409.33
 1250.18        2958.75           1347         115.00       474.72
 1250.21        2959.00           1350         108.00       444.21
 1250.24        2959.25           1354         107.00       439.85
 1250.27        2959.50           1357         119.00       492.16
 1250.30        2959.75           1360         116.00       479.08
 1250.33        2960.00           1364         116.00       479.08
 1250.36        2960.25           1367         128.00       531.39
 1250.39        2960.50           1370         174.00       731.93
 1250.42        2960.75           1374         426.00      1830.53
 1250.45        2961.00           1377        1189.00      5157.29
 1250.48        2961.25           1380        2507.00     10905.49
 1250.50        2961.50           1384        5565.00     24249.98
 1250.53        2961.75           1387        8923.00     38915.94
 1250.56        2962.00           1391       13978.00     61017.88
 1250.59        2962.25           1394       18505.00     80836.16
 1250.62        2962.50           1397       23412.00    102344.70
 1250.65        2962.75           1401       30074.00    131590.40
 1250.68        2963.00           1404       35119.00    153771.80
 1250.71        2963.25           1407       40302.00    176590.90
 1250.74        2963.50           1411       47346.00    207653.60
 1250.77        2963.75           1414       52286.00    229472.80
 1250.80        2964.00           1417       57492.00    252497.90
 1250.83        2964.25           1421       64591.00    283946.90
 1250.86        2964.50           1424       70028.00    308073.50
 1250.89        2964.75           1427       75539.00    332564.40
 1250.92        2965.00           1431       83167.00    366522.90
 1250.95        2965.25           1434       88216.00    389038.50
 1250.98        2965.50           1437       93459.00    412451.80
 1251.01        2965.75           1441       99561.00    439742.70
 1251.03        2966.00           1444      103127.00    455712.20
 1251.06        2966.25           1447      107173.00    473850.10
 1251.09        2966.50           1451      110969.00    490885.30
 1251.12        2966.75           1454      112671.00    498529.10
 1251.15        2967.00           1457      113806.00    503628.40
 1251.18        2967.25           1461      113878.00    503951.90
 1251.21        2967.50           1464      112910.00    499602.70
 1251.24        2967.75           1467      111425.00    492932.90
 1251.27        2968.00           1471      107886.00    477048.50
 1251.30        2968.25           1474      104276.00    460861.10
 1251.33        2968.50           1477      100164.00    442442.00
 1251.36        2968.75           1481       93644.00    413278.50
 1251.39        2969.00           1484       88351.00    389641.00
 1251.42        2969.25           1487       83431.00    367699.50
 1251.45        2969.50           1491       77036.00    339223.30
 1251.48        2969.75           1494       71871.00    316259.70
 1251.51        2970.00           1498       64917.00    285392.50
 1251.54        2970.25           1501       60318.00    265010.10
 1251.57        2970.50           1504       55008.00    241507.60
 1251.60        2970.75           1508       48217.00    211498.60
 1251.63        2971.00           1511       43167.00    189218.00
 1251.65        2971.25           1514       37673.00    165012.30
 1251.68        2971.50           1518       30909.00    135259.60
 1251.71        2971.75           1521       25272.00    110504.80
 1251.74        2972.00           1524       20141.00     88004.05
 1251.77        2972.25           1528       13470.00     58795.42
 1251.80        2972.50           1531        9256.00     40371.02
 1251.83        2972.75           1534        6069.00     26450.36
 1251.86        2973.00           1538        2928.00     12742.01
 1251.89        2973.25           1541        1395.00      6055.59
 1251.92        2973.50           1544         661.00      2855.08
 1251.95        2973.75           1548         268.00      1141.71
 1251.98        2974.00           1551         162.00       679.61
 1252.01        2974.25           1554         138.00       574.99
 1252.04        2974.50           1558         130.00       540.11
 1252.07        2974.75           1561         112.00       461.65
 1252.10        2975.00           1565         111.00       457.29
 1252.13        2975.25           1568         117.00       483.44
 1252.16        2975.50           1571         111.00       457.29
 1252.19        2975.75           1575         100.00       409.33
 1252.22        2976.00           1578         108.00       444.21
 1252.24        2976.25           1581         106.00       435.49
 1252.27        2976.50           1585         103.00       422.41
 1252.30        2976.75           1588         114.00       470.36
 1252.33        2977.00           1591         104.00       426.77
 1252.36        2977.25           1595         112.00       461.65
 1252.39        2977.50           1598         105.00       431.13
 1252.42        2977.75           1601         124.00       513.96
 1252.45        2978.00           1605         107.00       439.85
 1252.48        2978.25           1608         100.00       409.33
 1252.51        2978.50           1611         100.00       409.33
 1252.54        2978.75           1615         100.00       409.33
 1252.57        2979.00           1618         102.00       418.05
 1252.60        2979.25           1622          99.00       404.97
 1252.63        2979.50           1625         102.00       418.05
 1252.66        2979.75           1628         112.00       461.65
 1252.69        2980.00           1632         103.00       422.41
 1252.71        2980.25           1635         105.00       431.13
 1252.74        2980.50           1638         102.00       418.05
 1252.77        2980.75           1642         106.00       435.49
 1252.80        2981.00           1645         100.00       409.33
 1252.83        2981.25           1648          98.00       400.62
 1252.86        2981.50           1652         102.00       418.05
 1252.89        2981.75           1655         105.00       431.13
 1252.92        2982.00           1658          99.00       404.97
 1252.95        2982.25           1662         114.00       470.36
 1252.98        2982.50           1665         103.00       422.41
 1253.01        2982.75           1669          94.00       383.18
 1253.04        2983.00           1672         102.00       418.05
 1253.07        2983.25           1675          97.00       396.26
 1253.10        2983.50           1679         103.00       422.41
 1253.13        2983.75           1682         104.00       426.77
 1253.16        2984.00           1685          92.00       374.46
HS scan finished at 20:53:23
end
