************************************************************
  HS Scan of (1) Internal mercury lamp
************************************************************
Integration time is 0.2294 seconds per sample
dh010617inta 37.1 6.733 3.17466pr1000
************************************************************
Dead Time -------------------------  3E-08 
Number of Cycles Used -------------  4 
Starting Wavelength (Angstroms) ---  2950 
Final Wavelength (Angstoms) -------  2984 
Wavelength Increment (Angstroms) --  .25 
Filter Wheel #1 Position ---------- (1) Ground quartz diffuser (ND=2.32)
Filter Wheel #2 Position ---------- (1) Neutral Density 0.494



************************************************************
HS scan start time = 01:53:45
Dark Count =  4.8 


Time (GMT)  Wavelength (Ang)  Step Number  Raw Counts  Counts/Second

  114.07        2950.00           1230         110.00       458.59
  114.14        2950.25           1234         122.00       510.91
  114.17        2950.50           1237         111.00       462.95
  114.20        2950.75           1240         110.00       458.59
  114.23        2951.00           1244         131.00       550.14
  114.26        2951.25           1247         113.00       471.67
  114.28        2951.50           1250         112.00       467.31
  114.31        2951.75           1254         114.00       476.03
  114.34        2952.00           1257         124.00       519.62
  114.37        2952.25           1260         109.00       454.23
  114.40        2952.50           1264         108.00       449.88
  114.43        2952.75           1267         113.00       471.67
  114.46        2953.00           1270         112.00       467.31
  114.49        2953.25           1274         127.00       532.70
  114.52        2953.50           1277         117.00       489.11
  114.55        2953.75           1280         107.00       445.52
  114.58        2954.00           1284         108.00       449.88
  114.61        2954.25           1287         114.00       476.03
  114.64        2954.50           1290         121.00       506.55
  114.67        2954.75           1294         125.00       523.98
  114.70        2955.00           1297         120.00       502.19
  114.73        2955.25           1300         103.00       428.08
  114.76        2955.50           1304         108.00       449.88
  114.78        2955.75           1307         111.00       462.95
  114.81        2956.00           1310         114.00       476.03
  114.84        2956.25           1314         116.00       484.75
  114.87        2956.50           1317         121.00       506.55
  114.90        2956.75           1320         114.00       476.03
  114.93        2957.00           1324         111.00       462.95
  114.96        2957.25           1327         121.00       506.55
  114.99        2957.50           1330         107.00       445.52
  115.02        2957.75           1334         114.00       476.03
  115.05        2958.00           1337         119.00       497.83
  115.08        2958.25           1340         124.00       519.62
  115.11        2958.50           1344         115.00       480.39
  115.14        2958.75           1347         117.00       489.11
  115.17        2959.00           1350         110.00       458.59
  115.20        2959.25           1354         114.00       476.03
  115.23        2959.50           1357         117.00       489.11
  115.26        2959.75           1360         125.00       523.98
  115.28        2960.00           1364         124.00       519.62
  115.31        2960.25           1367         142.00       598.09
  115.34        2960.50           1370         155.00       654.76
  115.37        2960.75           1374         410.00      1766.44
  115.40        2961.00           1377        1040.00      4513.25
  115.43        2961.25           1380        2272.00      9886.11
  115.46        2961.50           1384        5293.00     23068.27
  115.49        2961.75           1387        8357.00     36448.73
  115.52        2962.00           1391       13560.00     59194.83
  115.55        2962.25           1394       17684.00     77245.93
  115.58        2962.50           1397       22480.00     98263.09
  115.61        2962.75           1401       28804.00    126016.90
  115.64        2963.00           1404       33570.00    146963.90
  115.67        2963.25           1407       38315.00    167844.80
  115.70        2963.50           1411       44883.00    196791.40
  115.73        2963.75           1414       49570.00    217478.80
  115.76        2964.00           1417       55028.00    241601.80
  115.78        2964.25           1421       61971.00    272339.00
  115.81        2964.50           1424       67030.00    294771.40
  115.84        2964.75           1427       71958.00    316652.10
  115.87        2965.00           1431       78563.00    346024.10
  115.90        2965.25           1434       83582.00    368378.30
  115.93        2965.50           1437       88744.00    391400.70
  115.96        2965.75           1441       94458.00    416922.50
  115.99        2966.00           1444       98896.00    436772.20
  116.02        2966.25           1447      102159.00    451381.60
  116.05        2966.50           1451      105734.00    467402.80
  116.08        2966.75           1454      108012.00    477619.60
  116.11        2967.00           1457      108992.00    482016.90
  116.14        2967.25           1461      108911.00    481653.40
  116.17        2967.50           1464      108261.00    478736.70
  116.20        2967.75           1467      107311.00    474475.00
  116.23        2968.00           1471      103563.00    457671.70
  116.25        2968.25           1474      100318.00    443137.30
  116.28        2968.50           1477       95975.00    423704.80
  116.31        2968.75           1481       89800.00    396114.40
  116.34        2969.00           1484       84936.00    374414.00
  116.37        2969.25           1487       80279.00    353663.70
  116.40        2969.50           1491       74128.00    326296.20
  116.43        2969.75           1494       69572.00    306054.50
  116.46        2970.00           1498       62859.00    276274.30
  116.49        2970.25           1501       58212.00    255690.50
  116.52        2970.50           1504       53348.00    234172.90
  116.55        2970.75           1508       46646.00    204569.90
  116.58        2971.00           1511       41946.00    183841.10
  116.61        2971.25           1514       36654.00    160532.40
  116.64        2971.50           1518       29694.00    129926.60
  116.66        2971.75           1521       24497.00    107110.00
  116.69        2972.00           1524       19594.00     85612.80
  116.72        2972.25           1528       13247.00     57825.60
  116.75        2972.50           1531        9250.00     40350.48
  116.78        2972.75           1534        5950.00     25936.48
  116.81        2973.00           1538        2953.00     12856.75
  116.84        2973.25           1541        1504.00      6536.59
  116.87        2973.50           1544         694.00      3004.63
  116.90        2973.75           1548         277.00      1186.62
  116.93        2974.00           1551         175.00       741.95
  116.96        2974.25           1554         135.00       567.58
  116.99        2974.50           1558         133.00       558.86
  117.02        2974.75           1561         108.00       449.88
  117.05        2975.00           1565         111.00       462.95
  117.08        2975.25           1568         110.00       458.59
  117.11        2975.50           1571         104.00       432.44
  117.14        2975.75           1575         105.00       436.80
  117.17        2976.00           1578         112.00       467.31
  117.19        2976.25           1581         102.00       423.72
  117.22        2976.50           1585          98.00       406.28
  117.25        2976.75           1588         108.00       449.88
  117.28        2977.00           1591         113.00       471.67
  117.31        2977.25           1595         105.00       436.80
  117.34        2977.50           1598         108.00       449.88
  117.37        2977.75           1601          96.00       397.56
  117.40        2978.00           1605         104.00       432.44
  117.43        2978.25           1608         110.00       458.59
  117.46        2978.50           1611         109.00       454.23
  117.49        2978.75           1615          96.00       397.56
  117.52        2979.00           1618          97.00       401.92
  117.55        2979.25           1622         104.00       432.44
  117.58        2979.50           1625          99.00       410.64
  117.61        2979.75           1628         107.00       445.52
  117.64        2980.00           1632         104.00       432.44
  117.66        2980.25           1635         102.00       423.72
  117.69        2980.50           1638          97.00       401.92
  117.72        2980.75           1642         109.00       454.23
  117.75        2981.00           1645         102.00       423.72
  117.78        2981.25           1648         105.00       436.80
  117.81        2981.50           1652         111.00       462.95
  117.84        2981.75           1655         102.00       423.72
  117.87        2982.00           1658         103.00       428.08
  117.90        2982.25           1662          95.00       393.20
  117.93        2982.50           1665         102.00       423.72
  117.96        2982.75           1669         109.00       454.23
  117.99        2983.00           1672          91.00       375.77
  118.02        2983.25           1675          96.00       397.56
  118.05        2983.50           1679          96.00       397.56
  118.08        2983.75           1682         103.00       428.08
  118.11        2984.00           1685          95.00       393.20
HS scan finished at 01:58:20
end
************************************************************
  HS Scan of (1) Internal mercury lamp
************************************************************
Integration time is 0.2294 seconds per sample
dh010617inta 37.1 6.733 3.286823pr1000
************************************************************
Dead Time -------------------------  3E-08 
Number of Cycles Used -------------  4 
Starting Wavelength (Angstroms) ---  2950 
Final Wavelength (Angstoms) -------  2984 
Wavelength Increment (Angstroms) --  .25 
Filter Wheel #1 Position ---------- (1) Ground quartz diffuser (ND=2.32)
Filter Wheel #2 Position ---------- (1) Neutral Density 0.494



************************************************************
HS scan start time = 21:45:50
Dark Count =  5.7 


Time (GMT)  Wavelength (Ang)  Step Number  Raw Counts  Counts/Second

 1306.16        2950.00           1230         120.00       498.26
 1306.23        2950.25           1234         108.00       445.95
 1306.26        2950.50           1237         120.00       498.26
 1306.28        2950.75           1240         103.00       424.16
 1306.31        2951.00           1244         108.00       445.95
 1306.34        2951.25           1247         120.00       498.26
 1306.37        2951.50           1250         115.00       476.47
 1306.40        2951.75           1254         118.00       489.55
 1306.43        2952.00           1257         109.00       450.31
 1306.46        2952.25           1260         102.00       419.80
 1306.49        2952.50           1264         111.00       459.03
 1306.52        2952.75           1267         121.00       502.62
 1306.55        2953.00           1270         109.00       450.31
 1306.58        2953.25           1274         102.00       419.80
 1306.61        2953.50           1277         107.00       441.59
 1306.64        2953.75           1280         106.00       437.23
 1306.67        2954.00           1284         115.00       476.47
 1306.70        2954.25           1287         113.00       467.75
 1306.73        2954.50           1290         105.00       432.87
 1306.76        2954.75           1294         108.00       445.95
 1306.79        2955.00           1297         109.00       450.31
 1306.82        2955.25           1300         110.00       454.67
 1306.85        2955.50           1304         105.00       432.87
 1306.88        2955.75           1307         115.00       476.47
 1306.90        2956.00           1310         118.00       489.55
 1306.93        2956.25           1314         109.00       450.31
 1306.96        2956.50           1317         107.00       441.59
 1306.99        2956.75           1320         109.00       450.31
 1307.02        2957.00           1324         112.00       463.39
 1307.05        2957.25           1327         112.00       463.39
 1307.08        2957.50           1330         106.00       437.23
 1307.11        2957.75           1334         110.00       454.67
 1307.14        2958.00           1337         119.00       493.90
 1307.17        2958.25           1340         107.00       441.59
 1307.20        2958.50           1344         113.00       467.75
 1307.23        2958.75           1347         104.00       428.51
 1307.26        2959.00           1350         112.00       463.39
 1307.29        2959.25           1354          95.00       389.28
 1307.32        2959.50           1357         117.00       485.19
 1307.35        2959.75           1360         117.00       485.19
 1307.38        2960.00           1364         121.00       502.62
 1307.40        2960.25           1367         138.00       576.73
 1307.43        2960.50           1370         140.00       585.45
 1307.46        2960.75           1374         341.00      1461.70
 1307.49        2961.00           1377         908.00      3933.77
 1307.52        2961.25           1380        2060.00      8957.51
 1307.55        2961.50           1384        4908.00     21383.81
 1307.58        2961.75           1387        7959.00     34706.13
 1307.61        2962.00           1391       12903.00     56316.96
 1307.64        2962.25           1394       17284.00     75490.30
 1307.67        2962.50           1397       22013.00     96211.48
 1307.70        2962.75           1401       28463.00    124515.30
 1307.73        2963.00           1404       33618.00    147171.00
 1307.76        2963.25           1407       38743.00    169725.60
 1307.79        2963.50           1411       45797.00    200819.60
 1307.82        2963.75           1414       50980.00    223703.40
 1307.85        2964.00           1417       56236.00    246941.70
 1307.88        2964.25           1421       63023.00    276997.20
 1307.91        2964.50           1424       68356.00    300652.00
 1307.94        2964.75           1427       73793.00    324803.00
 1307.97        2965.00           1431       81236.00    357921.60
 1308.00        2965.25           1434       85623.00    377473.20
 1308.03        2965.50           1437       91142.00    402102.60
 1308.05        2965.75           1441       97676.00    431309.10
 1308.08        2966.00           1444      102089.00    451064.00
 1308.11        2966.25           1447      105993.00    468560.10
 1308.14        2966.50           1451      109840.00    485818.70
 1308.17        2966.75           1454      111854.00    494861.30
 1308.20        2967.00           1457      113668.00    503010.10
 1308.23        2967.25           1461      113948.00    504268.20
 1308.26        2967.50           1464      113167.00    500759.10
 1308.29        2967.75           1467      112153.00    496204.20
 1308.32        2968.00           1471      109113.00    482555.80
 1308.35        2968.25           1474      105869.00    468004.00
 1308.38        2968.50           1477      101655.00    449120.10
 1308.41        2968.75           1481       95249.00    420454.60
 1308.44        2969.00           1484       89877.00    396454.20
 1308.47        2969.25           1487       84619.00    372996.70
 1308.50        2969.50           1491       78403.00    345308.00
 1308.53        2969.75           1494       73780.00    324745.20
 1308.56        2970.00           1498       67036.00    294794.00
 1308.59        2970.25           1501       62247.00    273558.00
 1308.62        2970.50           1504       56648.00    248764.60
 1308.65        2970.75           1508       49637.00    217770.80
 1308.68        2971.00           1511       44796.00    196403.60
 1308.70        2971.25           1514       39716.00    174011.10
 1308.73        2971.50           1518       32335.00    141529.50
 1308.76        2971.75           1521       27238.00    119136.00
 1308.79        2972.00           1524       21774.00     95163.63
 1308.82        2972.25           1528       15008.00     65526.69
 1308.85        2972.50           1531       10789.00     47072.97
 1308.88        2972.75           1534        6984.00     30447.59
 1308.91        2973.00           1538        3604.00     15693.09
 1308.94        2973.25           1541        1882.00      8181.17
 1308.97        2973.50           1544         850.00      3680.88
 1309.00        2973.75           1548         332.00      1422.47
 1309.03        2974.00           1551         194.00       820.86
 1309.06        2974.25           1554         150.00       629.04
 1309.09        2974.50           1558         122.00       506.98
 1309.12        2974.75           1561         114.00       472.11
 1309.15        2975.00           1565         119.00       493.90
 1309.18        2975.25           1568         110.00       454.67
 1309.20        2975.50           1571         112.00       463.39
 1309.23        2975.75           1575         107.00       441.59
 1309.26        2976.00           1578         112.00       463.39
 1309.29        2976.25           1581          98.00       402.36
 1309.32        2976.50           1585         101.00       415.44
 1309.35        2976.75           1588         102.00       419.80
 1309.38        2977.00           1591         105.00       432.87
 1309.41        2977.25           1595          98.00       402.36
 1309.44        2977.50           1598         111.00       459.03
 1309.47        2977.75           1601         110.00       454.67
 1309.50        2978.00           1605          98.00       402.36
 1309.53        2978.25           1608         103.00       424.16
 1309.56        2978.50           1611          96.00       393.64
 1309.59        2978.75           1615         103.00       424.16
 1309.62        2979.00           1618         100.00       411.08
 1309.65        2979.25           1622          95.00       389.28
 1309.68        2979.50           1625         112.00       463.39
 1309.71        2979.75           1628         105.00       432.87
 1309.74        2980.00           1632         104.00       428.51
 1309.77        2980.25           1635          97.00       398.00
 1309.79        2980.50           1638         100.00       411.08
 1309.82        2980.75           1642          94.00       384.92
 1309.85        2981.00           1645         101.00       415.44
 1309.88        2981.25           1648         104.00       428.51
 1309.91        2981.50           1652         100.00       411.08
 1309.94        2981.75           1655          94.00       384.92
 1309.97        2982.00           1658         102.00       419.80
 1310.00        2982.25           1662          92.00       376.20
 1310.03        2982.50           1665          98.00       402.36
 1310.06        2982.75           1669         110.00       454.67
 1310.09        2983.00           1672          93.00       380.56
 1310.12        2983.25           1675          99.00       406.72
 1310.15        2983.50           1679         100.00       411.08
 1310.18        2983.75           1682          94.00       384.92
 1310.21        2984.00           1685          99.00       406.72
HS scan finished at 21:50:26
end
