************************************************************
  HS Scan of (1) Internal mercury lamp
************************************************************
Integration time is 0.2294 seconds per sample
dh310517inta 37.1 6.733 3.123677pr1000
************************************************************
Dead Time -------------------------  3E-08 
Number of Cycles Used -------------  4 
Starting Wavelength (Angstroms) ---  2950 
Final Wavelength (Angstoms) -------  2984 
Wavelength Increment (Angstroms) --  .25 
Filter Wheel #1 Position ---------- (1) Ground quartz diffuser (ND=2.32)
Filter Wheel #2 Position ---------- (1) Neutral Density 0.494



************************************************************
HS scan start time = 01:55:33
Dark Count =  5.7 


Time (GMT)  Wavelength (Ang)  Step Number  Raw Counts  Counts/Second

  115.88        2950.00           1230         115.00       476.47
  115.95        2950.25           1234         111.00       459.03
  115.98        2950.50           1237         109.00       450.31
  116.00        2950.75           1240         117.00       485.19
  116.03        2951.00           1244         118.00       489.55
  116.06        2951.25           1247         119.00       493.90
  116.09        2951.50           1250         112.00       463.39
  116.12        2951.75           1254         115.00       476.47
  116.15        2952.00           1257         108.00       445.95
  116.18        2952.25           1260         113.00       467.75
  116.21        2952.50           1264         117.00       485.19
  116.24        2952.75           1267         119.00       493.90
  116.27        2953.00           1270         113.00       467.75
  116.30        2953.25           1274         112.00       463.39
  116.33        2953.50           1277         115.00       476.47
  116.36        2953.75           1280         117.00       485.19
  116.39        2954.00           1284         119.00       493.90
  116.42        2954.25           1287         106.00       437.23
  116.45        2954.50           1290         118.00       489.55
  116.48        2954.75           1294         115.00       476.47
  116.50        2955.00           1297         118.00       489.55
  116.53        2955.25           1300         115.00       476.47
  116.56        2955.50           1304         111.00       459.03
  116.59        2955.75           1307         105.00       432.87
  116.62        2956.00           1310         118.00       489.55
  116.65        2956.25           1314         117.00       485.19
  116.68        2956.50           1317         115.00       476.47
  116.71        2956.75           1320         116.00       480.83
  116.74        2957.00           1324         119.00       493.90
  116.77        2957.25           1327         111.00       459.03
  116.80        2957.50           1330         103.00       424.16
  116.83        2957.75           1334         110.00       454.67
  116.86        2958.00           1337         113.00       467.75
  116.89        2958.25           1340         112.00       463.39
  116.92        2958.50           1344         111.00       459.03
  116.95        2958.75           1347         111.00       459.03
  116.98        2959.00           1350         115.00       476.47
  117.01        2959.25           1354         126.00       524.42
  117.03        2959.50           1357         131.00       546.22
  117.06        2959.75           1360         111.00       459.03
  117.09        2960.00           1364         129.00       537.50
  117.12        2960.25           1367         143.00       598.53
  117.15        2960.50           1370         162.00       681.36
  117.18        2960.75           1374         385.00      1653.53
  117.21        2961.00           1377        1016.00      4404.68
  117.24        2961.25           1380        2213.00      9624.84
  117.27        2961.50           1384        5012.00     21837.76
  117.30        2961.75           1387        7966.00     34736.70
  117.33        2962.00           1391       12630.00     55122.91
  117.36        2962.25           1394       16983.00     74172.28
  117.39        2962.50           1397       21623.00     94501.63
  117.42        2962.75           1401       27646.00    120927.50
  117.45        2963.00           1404       32180.00    140848.00
  117.48        2963.25           1407       37069.00    162355.10
  117.51        2963.50           1411       43817.00    192085.90
  117.53        2963.75           1414       48313.00    211924.20
  117.56        2964.00           1417       53411.00    234447.50
  117.59        2964.25           1421       60310.00    264976.40
  117.62        2964.50           1424       64829.00    285004.00
  117.65        2964.75           1427       69752.00    306849.70
  117.68        2965.00           1431       76932.00    338762.30
  117.71        2965.25           1434       81227.00    357881.50
  117.74        2965.50           1437       86046.00    379359.60
  117.77        2965.75           1441       91990.00    405890.20
  117.80        2966.00           1444       96180.00    424617.50
  117.83        2966.25           1447       99945.00    441463.40
  117.86        2966.50           1451      103535.00    457542.20
  117.89        2966.75           1454      104900.00    463659.80
  117.92        2967.00           1457      106277.00    469833.50
  117.95        2967.25           1461      106639.00    471456.90
  117.98        2967.50           1464      106249.00    469708.00
  118.01        2967.75           1467      104557.00    462122.30
  118.03        2968.00           1471      101307.00    447561.60
  118.06        2968.25           1474       98004.00    432776.60
  118.09        2968.50           1477       93637.00    413249.00
  118.12        2968.75           1481       88226.00    389085.00
  118.15        2969.00           1484       83231.00    366810.00
  118.18        2969.25           1487       78635.00    346340.60
  118.21        2969.50           1491       72312.00    318221.00
  118.24        2969.75           1494       67421.00    296502.40
  118.27        2970.00           1498       61152.00    268706.20
  118.30        2970.25           1501       56703.00    249008.00
  118.33        2970.50           1504       51916.00    227839.30
  118.36        2970.75           1508       45121.00    197837.20
  118.39        2971.00           1511       40429.00    177152.20
  118.42        2971.25           1514       35544.00    155643.60
  118.45        2971.50           1518       29113.00    127370.30
  118.47        2971.75           1521       23933.00    104631.80
  118.50        2972.00           1524       18897.00     82555.13
  118.53        2972.25           1528       12729.00     55555.90
  118.56        2972.50           1531        8873.00     38699.22
  118.59        2972.75           1534        5905.00     25736.08
  118.62        2973.00           1538        2909.00     12660.87
  118.65        2973.25           1541        1385.00      6013.73
  118.68        2973.50           1544         680.00      2939.67
  118.71        2973.75           1548         272.00      1160.89
  118.74        2974.00           1551         172.00       724.95
  118.77        2974.25           1554         145.00       607.25
  118.80        2974.50           1558         137.00       572.37
  118.83        2974.75           1561         121.00       502.62
  118.86        2975.00           1565         116.00       480.83
  118.89        2975.25           1568         118.00       489.55
  118.92        2975.50           1571         107.00       441.59
  118.95        2975.75           1575         105.00       432.87
  118.98        2976.00           1578         106.00       437.23
  119.01        2976.25           1581         113.00       467.75
  119.04        2976.50           1585         108.00       445.95
  119.06        2976.75           1588         109.00       450.31
  119.09        2977.00           1591         108.00       445.95
  119.12        2977.25           1595         108.00       445.95
  119.15        2977.50           1598         100.00       411.08
  119.18        2977.75           1601         115.00       476.47
  119.21        2978.00           1605         108.00       445.95
  119.24        2978.25           1608         108.00       445.95
  119.27        2978.50           1611         114.00       472.11
  119.30        2978.75           1615         102.00       419.80
  119.33        2979.00           1618         112.00       463.39
  119.36        2979.25           1622         106.00       437.23
  119.39        2979.50           1625         107.00       441.59
  119.42        2979.75           1628         107.00       441.59
  119.45        2980.00           1632         100.00       411.08
  119.48        2980.25           1635         104.00       428.51
  119.51        2980.50           1638         102.00       419.80
  119.53        2980.75           1642         112.00       463.39
  119.56        2981.00           1645         105.00       432.87
  119.59        2981.25           1648         106.00       437.23
  119.62        2981.50           1652         110.00       454.67
  119.65        2981.75           1655         103.00       424.16
  119.68        2982.00           1658         109.00       450.31
  119.71        2982.25           1662          97.00       398.00
  119.74        2982.50           1665         103.00       424.16
  119.77        2982.75           1669         108.00       445.95
  119.80        2983.00           1672          91.00       371.84
  119.83        2983.25           1675          97.00       398.00
  119.86        2983.50           1679         102.00       419.80
  119.89        2983.75           1682         102.00       419.80
  119.92        2984.00           1685          93.00       380.56
HS scan finished at 02:00:08
end
************************************************************
  HS Scan of (1) Internal mercury lamp
************************************************************
Integration time is 0.2294 seconds per sample
dh310517inta 37.1 6.733 3.215447pr1000
************************************************************
Dead Time -------------------------  3E-08 
Number of Cycles Used -------------  4 
Starting Wavelength (Angstroms) ---  2950 
Final Wavelength (Angstoms) -------  2984 
Wavelength Increment (Angstroms) --  .25 
Filter Wheel #1 Position ---------- (1) Ground quartz diffuser (ND=2.32)
Filter Wheel #2 Position ---------- (1) Neutral Density 0.494



************************************************************
HS scan start time = 21:45:50
Dark Count =  6.5 


Time (GMT)  Wavelength (Ang)  Step Number  Raw Counts  Counts/Second

 1306.17        2950.00           1230         108.00       442.46
 1306.23        2950.25           1234         106.00       433.75
 1306.26        2950.50           1237         122.00       503.50
 1306.29        2950.75           1240         120.00       494.78
 1306.32        2951.00           1244         116.00       477.34
 1306.35        2951.25           1247         122.00       503.50
 1306.38        2951.50           1250         107.00       438.11
 1306.41        2951.75           1254         104.00       425.03
 1306.44        2952.00           1257         113.00       464.26
 1306.47        2952.25           1260         107.00       438.11
 1306.50        2952.50           1264         111.00       455.54
 1306.53        2952.75           1267         117.00       481.70
 1306.56        2953.00           1270         112.00       459.90
 1306.59        2953.25           1274         102.00       416.31
 1306.62        2953.50           1277         117.00       481.70
 1306.65        2953.75           1280         105.00       429.39
 1306.68        2954.00           1284         118.00       486.06
 1306.71        2954.25           1287         115.00       472.98
 1306.74        2954.50           1290         112.00       459.90
 1306.77        2954.75           1294         117.00       481.70
 1306.80        2955.00           1297         114.00       468.62
 1306.83        2955.25           1300         129.00       534.01
 1306.86        2955.50           1304         109.00       446.82
 1306.89        2955.75           1307         114.00       468.62
 1306.92        2956.00           1310         107.00       438.11
 1306.95        2956.25           1314         109.00       446.82
 1306.98        2956.50           1317         123.00       507.85
 1307.00        2956.75           1320         113.00       464.26
 1307.03        2957.00           1324         116.00       477.34
 1307.06        2957.25           1327         113.00       464.26
 1307.09        2957.50           1330         104.00       425.03
 1307.12        2957.75           1334         113.00       464.26
 1307.15        2958.00           1337         102.00       416.31
 1307.18        2958.25           1340         111.00       455.54
 1307.21        2958.50           1344         109.00       446.82
 1307.24        2958.75           1347         112.00       459.90
 1307.27        2959.00           1350         102.00       416.31
 1307.30        2959.25           1354         116.00       477.34
 1307.33        2959.50           1357         123.00       507.85
 1307.36        2959.75           1360         106.00       433.75
 1307.39        2960.00           1364         112.00       459.90
 1307.42        2960.25           1367         125.00       516.57
 1307.45        2960.50           1370         139.00       577.60
 1307.48        2960.75           1374         325.00      1388.46
 1307.51        2961.00           1377         822.00      3555.31
 1307.54        2961.25           1380        1840.00      7994.51
 1307.57        2961.50           1384        4414.00     19224.25
 1307.60        2961.75           1387        7246.00     31588.34
 1307.63        2962.00           1391       11927.00     52045.02
 1307.65        2962.25           1394       16000.00     69865.12
 1307.68        2962.50           1397       20772.00     90767.76
 1307.71        2962.75           1401       27319.00    119488.20
 1307.74        2963.00           1404       32280.00    141284.20
 1307.77        2963.25           1407       37373.00    163689.80
 1307.80        2963.50           1411       43584.00    191054.90
 1307.83        2963.75           1414       48401.00    212309.20
 1307.86        2964.00           1417       53892.00    236570.60
 1307.89        2964.25           1421       60520.00    265903.00
 1307.92        2964.50           1424       65531.00    288113.80
 1307.95        2964.75           1427       70949.00    312162.10
 1307.98        2965.00           1431       77726.00    342291.60
 1308.01        2965.25           1434       82775.00    364774.40
 1308.04        2965.50           1437       88261.00    389237.60
 1308.07        2965.75           1441       94208.00    415797.40
 1308.10        2966.00           1444       98464.00    434831.30
 1308.13        2966.25           1447      102353.00    452242.90
 1308.15        2966.50           1451      106260.00    469753.70
 1308.18        2966.75           1454      108691.00    480658.50
 1308.21        2967.00           1457      110101.00    486986.70
 1308.24        2967.25           1461      110446.00    488535.50
 1308.27        2967.50           1464      110050.00    486757.70
 1308.30        2967.75           1467      109258.00    483203.00
 1308.33        2968.00           1471      106204.00    469502.60
 1308.36        2968.25           1474      102896.00    454675.50
 1308.39        2968.50           1477       98936.00    436943.50
 1308.42        2968.75           1481       92828.00    409630.50
 1308.45        2969.00           1484       87739.00    386908.30
 1308.48        2969.25           1487       83002.00    365785.90
 1308.51        2969.50           1491       76647.00    337490.90
 1308.54        2969.75           1494       71442.00    314352.10
 1308.57        2970.00           1498       65314.00    287151.40
 1308.60        2970.25           1501       60319.00    265012.70
 1308.63        2970.50           1504       55341.00    242978.80
 1308.66        2970.75           1508       48881.00    214428.60
 1308.69        2971.00           1511       43727.00    191685.40
 1308.72        2971.25           1514       38456.00    168458.20
 1308.74        2971.50           1518       31229.00    136664.20
 1308.77        2971.75           1521       26169.00    114439.70
 1308.80        2972.00           1524       21230.00     92775.30
 1308.83        2972.25           1528       14555.00     63540.80
 1308.86        2972.50           1531       10500.00     45806.15
 1308.89        2972.75           1534        7131.00     31086.09
 1308.92        2973.00           1538        3549.00     15449.62
 1308.95        2973.25           1541        1814.00      7881.11
 1308.98        2973.50           1544         832.00      3598.91
 1309.01        2973.75           1548         310.00      1323.07
 1309.04        2974.00           1551         198.00       834.81
 1309.07        2974.25           1554         152.00       634.28
 1309.10        2974.50           1558         144.00       599.40
 1309.13        2974.75           1561         130.00       538.37
 1309.16        2975.00           1565         123.00       507.85
 1309.19        2975.25           1568         102.00       416.31
 1309.22        2975.50           1571         107.00       438.11
 1309.25        2975.75           1575         113.00       464.26
 1309.28        2976.00           1578         111.00       455.54
 1309.31        2976.25           1581         118.00       486.06
 1309.33        2976.50           1585         106.00       433.75
 1309.36        2976.75           1588         105.00       429.39
 1309.39        2977.00           1591          95.00       385.79
 1309.42        2977.25           1595         103.00       420.67
 1309.45        2977.50           1598         105.00       429.39
 1309.48        2977.75           1601         103.00       420.67
 1309.51        2978.00           1605         106.00       433.75
 1309.54        2978.25           1608         104.00       425.03
 1309.57        2978.50           1611         108.00       442.46
 1309.60        2978.75           1615          99.00       403.23
 1309.63        2979.00           1618         111.00       455.54
 1309.66        2979.25           1622         105.00       429.39
 1309.69        2979.50           1625         103.00       420.67
 1309.72        2979.75           1628         112.00       459.90
 1309.75        2980.00           1632         101.00       411.95
 1309.78        2980.25           1635         103.00       420.67
 1309.81        2980.50           1638          89.00       359.64
 1309.83        2980.75           1642          97.00       394.51
 1309.86        2981.00           1645          95.00       385.79
 1309.89        2981.25           1648         106.00       433.75
 1309.92        2981.50           1652         111.00       455.54
 1309.95        2981.75           1655          97.00       394.51
 1309.98        2982.00           1658         113.00       464.26
 1310.01        2982.25           1662         102.00       416.31
 1310.04        2982.50           1665          94.00       381.43
 1310.07        2982.75           1669         106.00       433.75
 1310.10        2983.00           1672         103.00       420.67
 1310.13        2983.25           1675          93.00       377.07
 1310.16        2983.50           1679         101.00       411.95
 1310.19        2983.75           1682         103.00       420.67
 1310.22        2984.00           1685          95.00       385.79
HS scan finished at 21:50:26
end
