************************************************************
  HS Scan of (1) Internal mercury lamp
************************************************************
Integration time is 0.2294 seconds per sample
dh040617inta 37.1 6.733 2.980924pr1000
************************************************************
Dead Time -------------------------  3E-08 
Number of Cycles Used -------------  4 
Starting Wavelength (Angstroms) ---  2950 
Final Wavelength (Angstoms) -------  2984 
Wavelength Increment (Angstroms) --  .25 
Filter Wheel #1 Position ---------- (1) Ground quartz diffuser (ND=2.32)
Filter Wheel #2 Position ---------- (1) Neutral Density 0.494



************************************************************
HS scan start time = 02:54:29
Dark Count =  4.5 


Time (GMT)  Wavelength (Ang)  Step Number  Raw Counts  Counts/Second

  174.81        2950.00           1230         131.00       551.45
  174.87        2950.25           1234         121.00       507.85
  174.90        2950.50           1237         121.00       507.85
  174.93        2950.75           1240         119.00       499.14
  174.96        2951.00           1244         118.00       494.78
  174.99        2951.25           1247         114.00       477.34
  175.02        2951.50           1250         122.00       512.21
  175.05        2951.75           1254         126.00       529.65
  175.08        2952.00           1257         125.00       525.29
  175.11        2952.25           1260         121.00       507.85
  175.14        2952.50           1264         126.00       529.65
  175.17        2952.75           1267         116.00       486.06
  175.20        2953.00           1270         118.00       494.78
  175.23        2953.25           1274         120.00       503.50
  175.26        2953.50           1277         130.00       547.09
  175.29        2953.75           1280         124.00       520.93
  175.31        2954.00           1284         113.00       472.98
  175.34        2954.25           1287         121.00       507.85
  175.37        2954.50           1290         116.00       486.06
  175.40        2954.75           1294         123.00       516.57
  175.43        2955.00           1297         121.00       507.85
  175.46        2955.25           1300         119.00       499.14
  175.49        2955.50           1304         116.00       486.06
  175.52        2955.75           1307         119.00       499.14
  175.55        2956.00           1310         121.00       507.85
  175.58        2956.25           1314         129.00       542.73
  175.61        2956.50           1317         125.00       525.29
  175.64        2956.75           1320         122.00       512.21
  175.67        2957.00           1324         121.00       507.85
  175.70        2957.25           1327         126.00       529.65
  175.73        2957.50           1330         112.00       468.62
  175.76        2957.75           1334         108.00       451.18
  175.79        2958.00           1337         114.00       477.34
  175.82        2958.25           1340         115.00       481.70
  175.84        2958.50           1344         103.00       429.39
  175.88        2958.75           1347         121.00       507.85
  175.91        2959.00           1350         118.00       494.78
  175.94        2959.25           1354         118.00       494.78
  175.96        2959.50           1357         121.00       507.85
  175.99        2959.75           1360         117.00       490.42
  176.02        2960.00           1364         121.00       507.85
  176.05        2960.25           1367         136.00       573.24
  176.08        2960.50           1370         151.00       638.63
  176.11        2960.75           1374         274.00      1174.85
  176.14        2961.00           1377         667.00      2888.22
  176.17        2961.25           1380        1530.00      6651.28
  176.20        2961.50           1384        3757.00     16365.93
  176.23        2961.75           1387        6073.00     26474.81
  176.26        2962.00           1391       10649.00     46466.22
  176.29        2962.25           1394       14384.00     62801.30
  176.32        2962.50           1397       18478.00     80724.91
  176.35        2962.75           1401       24409.00    106725.20
  176.38        2963.00           1404       28911.00    126488.20
  176.41        2963.25           1407       33310.00    145821.80
  176.44        2963.50           1411       39133.00    171448.50
  176.47        2963.75           1414       44076.00    193233.30
  176.50        2964.00           1417       48874.00    214406.50
  176.53        2964.25           1421       54749.00    240369.20
  176.56        2964.50           1424       59743.00    262470.60
  176.59        2964.75           1427       64648.00    284206.70
  176.62        2965.00           1431       70789.00    311460.40
  176.65        2965.25           1434       75543.00    332589.30
  176.68        2965.50           1437       80198.00    353304.30
  176.71        2965.75           1441       85691.00    377781.80
  176.74        2966.00           1444       89865.00    396405.90
  176.77        2966.25           1447       93368.00    412052.30
  176.79        2966.50           1451       97306.00    429659.20
  176.82        2966.75           1454       99017.00    437315.00
  176.85        2967.00           1457      100889.00    445695.20
  176.88        2967.25           1461      101468.00    448288.00
  176.91        2967.50           1464      101275.00    447423.70
  176.94        2967.75           1467       99935.00    441424.00
  176.97        2968.00           1471       97768.00    431726.10
  177.00        2968.25           1474       95007.00    419378.00
  177.03        2968.50           1477       91384.00    403188.80
  177.06        2968.75           1481       85936.00    378874.50
  177.09        2969.00           1484       81314.00    358274.40
  177.12        2969.25           1487       76769.00    338042.50
  177.15        2969.50           1491       71198.00    313277.00
  177.18        2969.75           1494       66554.00    292660.70
  177.21        2970.00           1498       60547.00    266031.50
  177.24        2970.25           1501       55820.00    245106.50
  177.27        2970.50           1504       51605.00    226470.20
  177.30        2970.75           1508       45135.00    197904.30
  177.33        2971.00           1511       40609.00    177950.50
  177.36        2971.25           1514       36193.00    158504.80
  177.39        2971.50           1518       29604.00    129532.50
  177.42        2971.75           1521       25406.00    111099.90
  177.45        2972.00           1524       20232.00     88409.86
  177.48        2972.25           1528       14193.00     61965.57
  177.51        2972.50           1531       10072.00     43944.12
  177.54        2972.75           1534        6533.00     28483.35
  177.56        2973.00           1538        3451.00     15030.75
  177.59        2973.25           1541        1865.00      8112.26
  177.62        2973.50           1544         900.00      3904.12
  177.65        2973.75           1548         322.00      1384.10
  177.68        2974.00           1551         205.00       874.04
  177.71        2974.25           1554         155.00       656.07
  177.74        2974.50           1558         138.00       581.96
  177.77        2974.75           1561         119.00       499.14
  177.80        2975.00           1565         115.00       481.70
  177.83        2975.25           1568         117.00       490.42
  177.86        2975.50           1571         106.00       442.46
  177.89        2975.75           1575         112.00       468.62
  177.92        2976.00           1578         110.00       459.90
  177.95        2976.25           1581         109.00       455.54
  177.98        2976.50           1585         103.00       429.39
  178.01        2976.75           1588         125.00       525.29
  178.04        2977.00           1591         120.00       503.50
  178.07        2977.25           1595         104.00       433.75
  178.10        2977.50           1598         109.00       455.54
  178.13        2977.75           1601         112.00       468.62
  178.16        2978.00           1605         110.00       459.90
  178.19        2978.25           1608         111.00       464.26
  178.22        2978.50           1611         112.00       468.62
  178.25        2978.75           1615         109.00       455.54
  178.28        2979.00           1618         115.00       481.70
  178.31        2979.25           1622         114.00       477.34
  178.34        2979.50           1625         100.00       416.31
  178.36        2979.75           1628         105.00       438.11
  178.39        2980.00           1632         105.00       438.11
  178.42        2980.25           1635         101.00       420.67
  178.45        2980.50           1638         105.00       438.11
  178.48        2980.75           1642         101.00       420.67
  178.51        2981.00           1645         106.00       442.46
  178.54        2981.25           1648         109.00       455.54
  178.57        2981.50           1652         105.00       438.11
  178.60        2981.75           1655         107.00       446.82
  178.63        2982.00           1658         101.00       420.67
  178.66        2982.25           1662         103.00       429.39
  178.69        2982.50           1665         115.00       481.70
  178.72        2982.75           1669          99.00       411.95
  178.75        2983.00           1672         103.00       429.39
  178.78        2983.25           1675         108.00       451.18
  178.81        2983.50           1679         104.00       433.75
  178.84        2983.75           1682          99.00       411.95
  178.87        2984.00           1685         105.00       438.11
HS scan finished at 02:59:05
end
