************************************************************
  HS Scan of (1) Internal mercury lamp
************************************************************
Integration time is 0.2294 seconds per sample
dh300517inta 37.1 6.733 3.026809pr1000
************************************************************
Dead Time -------------------------  3E-08 
Number of Cycles Used -------------  4 
Starting Wavelength (Angstroms) ---  2950 
Final Wavelength (Angstoms) -------  2984 
Wavelength Increment (Angstroms) --  .25 
Filter Wheel #1 Position ---------- (1) Ground quartz diffuser (ND=2.32)
Filter Wheel #2 Position ---------- (1) Neutral Density 0.494



************************************************************
HS scan start time = 01:52:36
Dark Count =  7 


Time (GMT)  Wavelength (Ang)  Step Number  Raw Counts  Counts/Second

  112.93        2950.00           1230         114.00       466.44
  113.00        2950.25           1234         121.00       496.96
  113.03        2950.50           1237         123.00       505.67
  113.06        2950.75           1240         120.00       492.60
  113.08        2951.00           1244         121.00       496.96
  113.11        2951.25           1247         113.00       462.08
  113.14        2951.50           1250         117.00       479.52
  113.17        2951.75           1254         128.00       527.47
  113.20        2952.00           1257         116.00       475.16
  113.23        2952.25           1260         118.00       483.88
  113.26        2952.50           1264         126.00       518.75
  113.29        2952.75           1267         109.00       444.64
  113.32        2953.00           1270         106.00       431.57
  113.35        2953.25           1274         121.00       496.96
  113.38        2953.50           1277         112.00       457.72
  113.41        2953.75           1280         128.00       527.47
  113.44        2954.00           1284         121.00       496.96
  113.47        2954.25           1287         117.00       479.52
  113.50        2954.50           1290         116.00       475.16
  113.53        2954.75           1294         119.00       488.24
  113.56        2955.00           1297         122.00       501.32
  113.58        2955.25           1300         107.00       435.93
  113.61        2955.50           1304         106.00       431.57
  113.64        2955.75           1307         116.00       475.16
  113.67        2956.00           1310         111.00       453.36
  113.70        2956.25           1314         123.00       505.67
  113.73        2956.50           1317         116.00       475.16
  113.76        2956.75           1320         115.00       470.80
  113.79        2957.00           1324         122.00       501.32
  113.82        2957.25           1327         113.00       462.08
  113.85        2957.50           1330         114.00       466.44
  113.88        2957.75           1334         121.00       496.96
  113.91        2958.00           1337         106.00       431.57
  113.94        2958.25           1340         113.00       462.08
  113.96        2958.50           1344         117.00       479.52
  113.99        2958.75           1347         114.00       466.44
  114.02        2959.00           1350         104.00       422.85
  114.05        2959.25           1354         114.00       466.44
  114.08        2959.50           1357         121.00       496.96
  114.11        2959.75           1360         126.00       518.75
  114.14        2960.00           1364         130.00       536.19
  114.17        2960.25           1367         124.00       510.03
  114.20        2960.50           1370         167.00       697.49
  114.23        2960.75           1374         299.00      1272.93
  114.26        2961.00           1377         748.00      3230.48
  114.29        2961.25           1380        1664.00      7224.76
  114.32        2961.50           1384        4060.00     17677.20
  114.35        2961.75           1387        6624.00     28869.81
  114.38        2962.00           1391       10920.00     47639.97
  114.40        2962.25           1394       14652.00     63963.07
  114.43        2962.50           1397       19188.00     83824.31
  114.46        2962.75           1401       25393.00    111031.80
  114.49        2963.00           1404       29800.00    130382.60
  114.52        2963.25           1407       34438.00    150772.00
  114.55        2963.50           1411       40386.00    176957.00
  114.58        2963.75           1414       44896.00    196839.00
  114.61        2964.00           1417       49787.00    218427.50
  114.64        2964.25           1421       55999.00    245887.40
  114.67        2964.50           1424       60777.00    267039.30
  114.70        2964.75           1427       65939.00    289921.40
  114.73        2965.00           1431       72479.00    318957.30
  114.76        2965.25           1434       76709.00    337764.50
  114.79        2965.50           1437       81609.00    359577.30
  114.82        2965.75           1441       87320.00    385036.60
  114.85        2966.00           1444       91597.00    404129.00
  114.87        2966.25           1447       94977.00    419232.70
  114.90        2966.50           1451       98818.00    436413.20
  114.93        2966.75           1454      101203.00    447090.10
  114.96        2967.00           1457      102015.00    450726.70
  114.99        2967.25           1461      103046.00    455345.30
  115.02        2967.50           1464      102378.00    452352.70
  115.05        2967.75           1467      101758.00    449575.60
  115.08        2968.00           1471       98969.00    437089.00
  115.11        2968.25           1474       95693.00    422434.00
  115.14        2968.50           1477       92237.00    406987.80
  115.17        2968.75           1481       86234.00    380192.30
  115.20        2969.00           1484       81817.00    360503.90
  115.23        2969.25           1487       77157.00    339757.60
  115.26        2969.50           1491       71495.00    314585.30
  115.29        2969.75           1494       66863.00    294020.60
  115.31        2970.00           1498       60690.00    266653.90
  115.34        2970.25           1501       56187.00    246719.10
  115.37        2970.50           1504       51648.00    226649.20
  115.40        2970.75           1508       45495.00    199481.40
  115.43        2971.00           1511       40717.00    178415.40
  115.46        2971.25           1514       35742.00    156509.10
  115.49        2971.50           1518       29127.00    127426.00
  115.52        2971.75           1521       24569.00    107416.20
  115.55        2972.00           1524       19865.00     86790.64
  115.58        2972.25           1528       13731.00     59933.30
  115.61        2972.50           1531        9959.00     43439.32
  115.64        2972.75           1534        6683.00     29127.45
  115.67        2973.00           1538        3436.00     14954.40
  115.70        2973.25           1541        1713.00      7438.45
  115.73        2973.50           1544         825.00      3566.21
  115.76        2973.75           1548         315.00      1342.69
  115.79        2974.00           1551         187.00       784.67
  115.81        2974.25           1554         158.00       658.25
  115.84        2974.50           1558         129.00       531.83
  115.87        2974.75           1561         117.00       479.52
  115.90        2975.00           1565         120.00       492.60
  115.93        2975.25           1568         114.00       466.44
  115.96        2975.50           1571         102.00       414.13
  115.99        2975.75           1575         100.00       405.41
  116.02        2976.00           1578         115.00       470.80
  116.05        2976.25           1581         108.00       440.28
  116.08        2976.50           1585         112.00       457.72
  116.11        2976.75           1588         111.00       453.36
  116.14        2977.00           1591         105.00       427.21
  116.17        2977.25           1595         103.00       418.49
  116.20        2977.50           1598         112.00       457.72
  116.23        2977.75           1601         108.00       440.28
  116.26        2978.00           1605         108.00       440.28
  116.29        2978.25           1608         119.00       488.24
  116.31        2978.50           1611         101.00       409.77
  116.34        2978.75           1615         110.00       449.00
  116.37        2979.00           1618         110.00       449.00
  116.40        2979.25           1622          98.00       396.69
  116.43        2979.50           1625         112.00       457.72
  116.46        2979.75           1628          99.00       401.05
  116.49        2980.00           1632         108.00       440.28
  116.52        2980.25           1635         109.00       444.64
  116.55        2980.50           1638          97.00       392.33
  116.58        2980.75           1642          93.00       374.90
  116.61        2981.00           1645         104.00       422.85
  116.64        2981.25           1648         101.00       409.77
  116.67        2981.50           1652         108.00       440.28
  116.70        2981.75           1655         109.00       444.64
  116.73        2982.00           1658          98.00       396.69
  116.75        2982.25           1662          96.00       387.97
  116.78        2982.50           1665         104.00       422.85
  116.81        2982.75           1669         103.00       418.49
  116.84        2983.00           1672          94.00       379.25
  116.87        2983.25           1675          96.00       387.97
  116.90        2983.50           1679         105.00       427.21
  116.93        2983.75           1682         101.00       409.77
  116.96        2984.00           1685         110.00       449.00
HS scan finished at 01:57:11
end
************************************************************
  HS Scan of (1) Internal mercury lamp
************************************************************
Integration time is 0.2294 seconds per sample
dh300517inta 37.1 6.733 3.246037pr1000
************************************************************
Dead Time -------------------------  3E-08 
Number of Cycles Used -------------  4 
Starting Wavelength (Angstroms) ---  2950 
Final Wavelength (Angstoms) -------  2984 
Wavelength Increment (Angstroms) --  .25 
Filter Wheel #1 Position ---------- (1) Ground quartz diffuser (ND=2.32)
Filter Wheel #2 Position ---------- (1) Neutral Density 0.494



************************************************************
HS scan start time = 20:25:34
Dark Count =  6.2 


Time (GMT)  Wavelength (Ang)  Step Number  Raw Counts  Counts/Second

 1225.90        2950.00           1230         120.00       496.08
 1225.97        2950.25           1234          99.00       404.54
 1226.00        2950.50           1237         114.00       469.93
 1226.03        2950.75           1240         108.00       443.77
 1226.06        2951.00           1244         111.00       456.85
 1226.09        2951.25           1247         123.00       509.16
 1226.12        2951.50           1250         109.00       448.13
 1226.15        2951.75           1254         114.00       469.93
 1226.18        2952.00           1257         124.00       513.52
 1226.20        2952.25           1260         115.00       474.29
 1226.23        2952.50           1264         117.00       483.01
 1226.26        2952.75           1267         113.00       465.57
 1226.29        2953.00           1270         119.00       491.72
 1226.32        2953.25           1274         109.00       448.13
 1226.35        2953.50           1277         122.00       504.80
 1226.38        2953.75           1280         116.00       478.65
 1226.41        2954.00           1284         104.00       426.34
 1226.44        2954.25           1287         116.00       478.65
 1226.47        2954.50           1290         107.00       439.41
 1226.50        2954.75           1294         106.00       435.05
 1226.53        2955.00           1297         133.00       552.76
 1226.56        2955.25           1300         108.00       443.77
 1226.59        2955.50           1304         115.00       474.29
 1226.62        2955.75           1307         106.00       435.05
 1226.65        2956.00           1310         103.00       421.98
 1226.68        2956.25           1314         111.00       456.85
 1226.71        2956.50           1317         122.00       504.80
 1226.74        2956.75           1320         108.00       443.77
 1226.77        2957.00           1324         121.00       500.44
 1226.80        2957.25           1327         116.00       478.65
 1226.83        2957.50           1330         120.00       496.08
 1226.85        2957.75           1334         109.00       448.13
 1226.88        2958.00           1337         107.00       439.41
 1226.91        2958.25           1340         110.00       452.49
 1226.94        2958.50           1344         114.00       469.93
 1226.97        2958.75           1347         108.00       443.77
 1227.00        2959.00           1350         111.00       456.85
 1227.03        2959.25           1354         109.00       448.13
 1227.06        2959.50           1357         112.00       461.21
 1227.09        2959.75           1360         113.00       465.57
 1227.12        2960.00           1364         108.00       443.77
 1227.15        2960.25           1367         133.00       552.76
 1227.18        2960.50           1370         156.00       653.02
 1227.21        2960.75           1374         457.00      1965.24
 1227.24        2961.00           1377        1203.00      5217.91
 1227.27        2961.25           1380        2529.00     11001.02
 1227.30        2961.50           1384        5680.00     24751.59
 1227.33        2961.75           1387        8752.00     38168.35
 1227.36        2962.00           1391       13793.00     60208.05
 1227.38        2962.25           1394       18191.00     79460.35
 1227.41        2962.50           1397       22710.00     99265.53
 1227.44        2962.75           1401       29060.00    127135.30
 1227.47        2963.00           1404       34189.00    149680.20
 1227.50        2963.25           1407       39263.00    172013.60
 1227.53        2963.50           1411       45770.00    200698.20
 1227.56        2963.75           1414       50585.00    221956.00
 1227.59        2964.00           1417       55476.00    243577.30
 1227.62        2964.25           1421       62539.00    274849.80
 1227.65        2964.50           1424       67583.00    297219.00
 1227.68        2964.75           1427       73137.00    321885.00
 1227.71        2965.00           1431       79780.00    351435.50
 1227.74        2965.25           1434       84584.00    372838.40
 1227.77        2965.50           1437       89702.00    395670.60
 1227.80        2965.75           1441       95696.00    422451.00
 1227.83        2966.00           1444       99842.00    441000.10
 1227.86        2966.25           1447      103570.00    457696.80
 1227.89        2966.50           1451      107240.00    474150.20
 1227.92        2966.75           1454      108564.00    480090.00
 1227.95        2967.00           1457      109673.00    485066.90
 1227.97        2967.25           1461      110142.00    487172.10
 1228.00        2967.50           1464      109285.00    483325.50
 1228.03        2967.75           1467      107997.00    477546.00
 1228.06        2968.00           1471      104573.00    462191.80
 1228.09        2968.25           1474      101202.00    447089.20
 1228.12        2968.50           1477       96918.00    427916.00
 1228.15        2968.75           1481       90874.00    400903.60
 1228.18        2969.00           1484       85787.00    378202.40
 1228.21        2969.25           1487       81052.00    357099.90
 1228.24        2969.50           1491       74863.00    329557.80
 1228.27        2969.75           1494       69869.00    307367.00
 1228.30        2970.00           1498       63037.00    277057.00
 1228.33        2970.25           1501       58741.00    258026.20
 1228.36        2970.50           1504       53372.00    234272.80
 1228.39        2970.75           1508       47000.00    206126.00
 1228.42        2971.00           1511       41756.00    182997.50
 1228.45        2971.25           1514       36763.00    161006.00
 1228.48        2971.50           1518       30012.00    131317.50
 1228.51        2971.75           1521       24470.00    106985.40
 1228.54        2972.00           1524       19510.00     85238.62
 1228.57        2972.25           1528       13274.00     57937.58
 1228.59        2972.50           1531        9126.00     39802.51
 1228.62        2972.75           1534        5936.00     25869.24
 1228.65        2973.00           1538        2886.00     12558.35
 1228.68        2973.25           1541        1381.00      5994.10
 1228.71        2973.50           1544         677.00      2924.41
 1228.74        2973.75           1548         261.00      1110.76
 1228.77        2974.00           1551         174.00       731.49
 1228.80        2974.25           1554         145.00       605.07
 1228.83        2974.50           1558         135.00       561.47
 1228.86        2974.75           1561         122.00       504.80
 1228.89        2975.00           1565         113.00       465.57
 1228.92        2975.25           1568         110.00       452.49
 1228.95        2975.50           1571         110.00       452.49
 1228.98        2975.75           1575         111.00       456.85
 1229.01        2976.00           1578         105.00       430.69
 1229.04        2976.25           1581         114.00       469.93
 1229.07        2976.50           1585         110.00       452.49
 1229.10        2976.75           1588         106.00       435.05
 1229.13        2977.00           1591         102.00       417.62
 1229.15        2977.25           1595         103.00       421.98
 1229.18        2977.50           1598         103.00       421.98
 1229.21        2977.75           1601         105.00       430.69
 1229.24        2978.00           1605         104.00       426.34
 1229.27        2978.25           1608         103.00       421.98
 1229.30        2978.50           1611         106.00       435.05
 1229.33        2978.75           1615         107.00       439.41
 1229.36        2979.00           1618         118.00       487.37
 1229.39        2979.25           1622         109.00       448.13
 1229.42        2979.50           1625         101.00       413.26
 1229.45        2979.75           1628         100.00       408.90
 1229.48        2980.00           1632         107.00       439.41
 1229.51        2980.25           1635         103.00       421.98
 1229.54        2980.50           1638         103.00       421.98
 1229.57        2980.75           1642         115.00       474.29
 1229.60        2981.00           1645         102.00       417.62
 1229.63        2981.25           1648         104.00       426.34
 1229.66        2981.50           1652          99.00       404.54
 1229.68        2981.75           1655         109.00       448.13
 1229.71        2982.00           1658         104.00       426.34
 1229.74        2982.25           1662         105.00       430.69
 1229.77        2982.50           1665          92.00       374.02
 1229.80        2982.75           1669         105.00       430.69
 1229.83        2983.00           1672          98.00       400.18
 1229.86        2983.25           1675          98.00       400.18
 1229.89        2983.50           1679          96.00       391.46
 1229.92        2983.75           1682          96.00       391.46
 1229.95        2984.00           1685         105.00       430.69
HS scan finished at 20:30:10
end
