************************************************************
  HS Scan of (1) Internal mercury lamp
************************************************************
Integration time is 0.2294 seconds per sample
dh180619inta 37.1 6.733 3.179758pr1000
************************************************************
Dead Time -------------------------  3E-08 
Number of Cycles Used -------------  4 
Starting Wavelength (Angstroms) ---  2950 
Final Wavelength (Angstoms) -------  2984 
Wavelength Increment (Angstroms) --  .25 
Filter Wheel #1 Position ---------- (1) Ground quartz diffuser (ND=2.32)
Filter Wheel #2 Position ---------- (1) Neutral Density 0.494



************************************************************
HS scan start time = 03:14:03
Dark Count =  5.9 


Time (GMT)  Wavelength (Ang)  Step Number  Raw Counts  Counts/Second

  194.39        2950.00           1230         125.00       519.19
  194.46        2950.25           1234         114.00       471.24
  194.50        2950.50           1237         123.00       510.47
  194.53        2950.75           1240         125.00       519.19
  194.56        2951.00           1244         116.00       479.95
  194.60        2951.25           1247         128.00       532.27
  194.63        2951.50           1250         132.00       549.70
  194.67        2951.75           1254         125.00       519.19
  194.70        2952.00           1257         123.00       510.47
  194.74        2952.25           1260         127.00       527.91
  194.77        2952.50           1264         129.00       536.63
  194.81        2952.75           1267         121.00       501.75
  194.84        2953.00           1270         118.00       488.67
  194.88        2953.25           1274         125.00       519.19
  194.91        2953.50           1277         119.00       493.03
  194.95        2953.75           1280         119.00       493.03
  194.98        2954.00           1284         116.00       479.95
  195.02        2954.25           1287         118.00       488.67
  195.05        2954.50           1290         115.00       475.60
  195.09        2954.75           1294         120.00       497.39
  195.12        2955.00           1297         122.00       506.11
  195.16        2955.25           1300         110.00       453.80
  195.19        2955.50           1304         129.00       536.63
  195.23        2955.75           1307         118.00       488.67
  195.26        2956.00           1310         123.00       510.47
  195.30        2956.25           1314         116.00       479.95
  195.33        2956.50           1317         112.00       462.52
  195.37        2956.75           1320         112.00       462.52
  195.40        2957.00           1324         114.00       471.24
  195.43        2957.25           1327         114.00       471.24
  195.47        2957.50           1330         118.00       488.67
  195.50        2957.75           1334         117.00       484.31
  195.54        2958.00           1337         107.00       440.72
  195.58        2958.25           1340         126.00       523.55
  195.61        2958.50           1344         126.00       523.55
  195.64        2958.75           1347         116.00       479.95
  195.68        2959.00           1350         114.00       471.24
  195.71        2959.25           1354         113.00       466.88
  195.75        2959.50           1357         111.00       458.16
  195.78        2959.75           1360         110.00       453.80
  195.82        2960.00           1364         123.00       510.47
  195.85        2960.25           1367         138.00       575.86
  195.89        2960.50           1370         144.00       602.02
  195.92        2960.75           1374         270.00      1151.30
  195.96        2961.00           1377         692.00      2991.11
  195.99        2961.25           1380        1657.00      7199.02
  196.03        2961.50           1384        3989.00     17372.17
  196.06        2961.75           1387        6571.00     28643.17
  196.09        2962.00           1391       10862.00     47391.21
  196.13        2962.25           1394       14599.00     63735.96
  196.16        2962.50           1397       18848.00     82339.58
  196.20        2962.75           1401       24653.00    107789.60
  196.23        2963.00           1404       28907.00    126464.50
  196.27        2963.25           1407       33501.00    146655.60
  196.30        2963.50           1411       39514.00    173120.40
  196.34        2963.75           1414       43964.00    192733.20
  196.37        2964.00           1417       48394.00    212280.90
  196.41        2964.25           1421       54905.00    241053.00
  196.44        2964.50           1424       59308.00    260538.00
  196.47        2964.75           1427       64185.00    282147.50
  196.51        2965.00           1431       70370.00    309593.20
  196.54        2965.25           1434       75080.00    330524.00
  196.58        2965.50           1437       79607.00    350666.60
  196.62        2965.75           1441       84983.00    374618.50
  196.65        2966.00           1444       88877.00    391989.30
  196.69        2966.25           1447       92268.00    407131.20
  196.72        2966.50           1451       95690.00    422425.40
  196.76        2966.75           1454       97528.00    430646.00
  196.79        2967.00           1457       98610.00    435487.20
  196.82        2967.25           1461       98763.00    436171.90
  196.86        2967.50           1464       98604.00    435460.50
  196.89        2967.75           1467       97539.00    430695.20
  196.93        2968.00           1471       94558.00    417364.50
  196.96        2968.25           1474       91496.00    403682.70
  197.00        2968.50           1477       88292.00    389378.60
  197.03        2968.75           1481       82430.00    363239.80
  197.07        2969.00           1484       78383.00    345218.10
  197.10        2969.25           1487       73654.00    324184.20
  197.14        2969.50           1491       68149.00    299732.40
  197.17        2969.75           1494       63909.00    280923.80
  197.21        2970.00           1498       57980.00    254658.70
  197.24        2970.25           1501       53748.00    235936.50
  197.28        2970.50           1504       49357.00    216533.20
  197.31        2970.75           1508       43461.00    190515.10
  197.35        2971.00           1511       38772.00    169852.40
  197.38        2971.25           1514       34398.00    150600.90
  197.42        2971.50           1518       28443.00    124426.50
  197.45        2971.75           1521       23651.00    103393.90
  197.49        2972.00           1524       18852.00     82357.10
  197.52        2972.25           1528       12964.00     56582.88
  197.56        2972.50           1531        9187.00     40070.37
  197.59        2972.75           1534        6181.00     26940.25
  197.63        2973.00           1538        3078.00     13397.28
  197.66        2973.25           1541        1642.00      7133.61
  197.70        2973.50           1544         784.00      3392.24
  197.73        2973.75           1548         318.00      1360.56
  197.77        2974.00           1551         184.00       776.39
  197.80        2974.25           1554         161.00       676.13
  197.83        2974.50           1558         131.00       545.34
  197.87        2974.75           1561         109.00       449.44
  197.90        2975.00           1565         107.00       440.72
  197.94        2975.25           1568         119.00       493.03
  197.97        2975.50           1571         106.00       436.36
  198.01        2975.75           1575         104.00       427.64
  198.04        2976.00           1578         106.00       436.36
  198.08        2976.25           1581         109.00       449.44
  198.11        2976.50           1585         100.00       410.21
  198.15        2976.75           1588         116.00       479.95
  198.18        2977.00           1591         105.00       432.00
  198.22        2977.25           1595         113.00       466.88
  198.25        2977.50           1598         109.00       449.44
  198.29        2977.75           1601         115.00       475.60
  198.32        2978.00           1605         106.00       436.36
  198.36        2978.25           1608         104.00       427.64
  198.40        2978.50           1611         101.00       414.56
  198.43        2978.75           1615         106.00       436.36
  198.46        2979.00           1618         103.00       423.28
  198.50        2979.25           1622         112.00       462.52
  198.53        2979.50           1625         109.00       449.44
  198.57        2979.75           1628         111.00       458.16
  198.60        2980.00           1632         113.00       466.88
  198.64        2980.25           1635         101.00       414.56
  198.67        2980.50           1638         111.00       458.16
  198.71        2980.75           1642         106.00       436.36
  198.74        2981.00           1645         101.00       414.56
  198.77        2981.25           1648         106.00       436.36
  198.81        2981.50           1652         102.00       418.92
  198.84        2981.75           1655         103.00       423.28
  198.88        2982.00           1658         110.00       453.80
  198.91        2982.25           1662          99.00       405.85
  198.95        2982.50           1665         106.00       436.36
  198.98        2982.75           1669         100.00       410.21
  199.01        2983.00           1672         107.00       440.72
  199.05        2983.25           1675         103.00       423.28
  199.08        2983.50           1679          97.00       397.13
  199.12        2983.75           1682         101.00       414.56
  199.15        2984.00           1685         102.00       418.92
HS scan finished at 03:19:23
end
************************************************************
  HS Scan of (1) Internal mercury lamp
************************************************************
Integration time is 0.2294 seconds per sample
dh180619inta 37.1 6.733 3.215447pr1000
************************************************************
Dead Time -------------------------  3E-08 
Number of Cycles Used -------------  4 
Starting Wavelength (Angstroms) ---  2950 
Final Wavelength (Angstoms) -------  2984 
Wavelength Increment (Angstroms) --  .25 
Filter Wheel #1 Position ---------- (1) Ground quartz diffuser (ND=2.32)
Filter Wheel #2 Position ---------- (1) Neutral Density 0.494



************************************************************
HS scan start time = 21:03:20
Dark Count =  6.2 


Time (GMT)  Wavelength (Ang)  Step Number  Raw Counts  Counts/Second

 1263.67        2950.00           1230         116.00       478.65
 1263.74        2950.25           1234         116.00       478.65
 1263.78        2950.50           1237         120.00       496.08
 1263.81        2950.75           1240         122.00       504.80
 1263.85        2951.00           1244         124.00       513.52
 1263.88        2951.25           1247         126.00       522.24
 1263.92        2951.50           1250         114.00       469.93
 1263.95        2951.75           1254         119.00       491.72
 1263.99        2952.00           1257         104.00       426.33
 1264.02        2952.25           1260         118.00       487.37
 1264.06        2952.50           1264         105.00       430.69
 1264.09        2952.75           1267         115.00       474.29
 1264.13        2953.00           1270         135.00       561.47
 1264.16        2953.25           1274         121.00       500.44
 1264.19        2953.50           1277         125.00       517.88
 1264.23        2953.75           1280         123.00       509.16
 1264.26        2954.00           1284         112.00       461.21
 1264.30        2954.25           1287         115.00       474.29
 1264.33        2954.50           1290         124.00       513.52
 1264.37        2954.75           1294         125.00       517.88
 1264.40        2955.00           1297         122.00       504.80
 1264.44        2955.25           1300         127.00       526.60
 1264.47        2955.50           1304         111.00       456.85
 1264.51        2955.75           1307         122.00       504.80
 1264.54        2956.00           1310         118.00       487.37
 1264.58        2956.25           1314         115.00       474.29
 1264.61        2956.50           1317         121.00       500.44
 1264.64        2956.75           1320         125.00       517.88
 1264.68        2957.00           1324         111.00       456.85
 1264.72        2957.25           1327         127.00       526.60
 1264.75        2957.50           1330         114.00       469.93
 1264.79        2957.75           1334         116.00       478.65
 1264.82        2958.00           1337         113.00       465.57
 1264.85        2958.25           1340         124.00       513.52
 1264.89        2958.50           1344         113.00       465.57
 1264.92        2958.75           1347         117.00       483.01
 1264.96        2959.00           1350         116.00       478.65
 1264.99        2959.25           1354         110.00       452.49
 1265.03        2959.50           1357         125.00       517.88
 1265.06        2959.75           1360         119.00       491.72
 1265.10        2960.00           1364         138.00       574.55
 1265.13        2960.25           1367         142.00       591.99
 1265.17        2960.50           1370         143.00       596.35
 1265.20        2960.75           1374         318.00      1359.25
 1265.24        2961.00           1377         842.00      3643.82
 1265.27        2961.25           1380        1829.00      7947.84
 1265.31        2961.50           1384        4265.00     18575.30
 1265.34        2961.75           1387        7051.00     30738.01
 1265.37        2962.00           1391       11208.00     48902.55
 1265.41        2962.25           1394       15038.00     65655.78
 1265.44        2962.50           1397       19310.00     84362.32
 1265.48        2962.75           1401       24883.00    108797.40
 1265.51        2963.00           1404       29395.00    128606.80
 1265.55        2963.25           1407       33972.00    148725.70
 1265.58        2963.50           1411       39640.00    173674.10
 1265.62        2963.75           1414       43942.00    192634.90
 1265.65        2964.00           1417       48534.00    212897.70
 1265.69        2964.25           1421       54821.00    240680.10
 1265.72        2964.50           1424       59064.00    259456.30
 1265.76        2964.75           1427       63813.00    280496.90
 1265.79        2965.00           1431       69953.00    307739.90
 1265.83        2965.25           1434       74407.00    327530.30
 1265.86        2965.50           1437       79143.00    348599.60
 1265.90        2965.75           1441       84662.00    373186.10
 1265.93        2966.00           1444       88412.00    389912.70
 1265.97        2966.25           1447       91954.00    405727.10
 1266.00        2966.50           1451       95276.00    420573.00
 1266.04        2966.75           1454       96956.00    428086.00
 1266.07        2967.00           1457       98213.00    433709.40
 1266.11        2967.25           1461       98504.00    435011.50
 1266.14        2967.50           1464       98199.00    433646.70
 1266.18        2967.75           1467       96837.00    427553.70
 1266.21        2968.00           1471       94240.00    415941.70
 1266.24        2968.25           1474       91117.00    401988.70
 1266.28        2968.50           1477       87763.00    387016.70
 1266.31        2968.75           1481       82152.00    361999.80
 1266.35        2969.00           1484       77810.00    342666.70
 1266.38        2969.25           1487       73616.00    324014.00
 1266.42        2969.50           1491       67903.00    298639.20
 1266.45        2969.75           1494       63734.00    280146.70
 1266.49        2970.00           1498       57568.00    252833.70
 1266.53        2970.25           1501       53592.00    235245.50
 1266.56        2970.50           1504       49179.00    215745.90
 1266.60        2970.75           1508       43306.00    189830.40
 1266.63        2971.00           1511       38481.00    168569.60
 1266.67        2971.25           1514       34119.00    149372.30
 1266.70        2971.50           1518       28053.00    122712.50
 1266.74        2971.75           1521       23197.00    101401.30
 1266.77        2972.00           1524       18482.00     80734.98
 1266.80        2972.25           1528       12783.00     55789.89
 1266.84        2972.50           1531        8826.00     38491.68
 1266.87        2972.75           1534        5808.00     25310.40
 1266.91        2973.00           1538        2994.00     13029.50
 1266.94        2973.25           1541        1486.00      6451.99
 1266.98        2973.50           1544         710.00      3068.29
 1267.01        2973.75           1548         280.00      1193.59
 1267.05        2974.00           1551         186.00       783.80
 1267.08        2974.25           1554         157.00       657.38
 1267.12        2974.50           1558         125.00       517.88
 1267.15        2974.75           1561         123.00       509.16
 1267.19        2975.00           1565         115.00       474.29
 1267.22        2975.25           1568         122.00       504.80
 1267.26        2975.50           1571         107.00       439.41
 1267.29        2975.75           1575         100.00       408.90
 1267.33        2976.00           1578         118.00       487.37
 1267.36        2976.25           1581         105.00       430.69
 1267.39        2976.50           1585         118.00       487.37
 1267.43        2976.75           1588         100.00       408.90
 1267.46        2977.00           1591         101.00       413.26
 1267.50        2977.25           1595         113.00       465.57
 1267.53        2977.50           1598         121.00       500.44
 1267.57        2977.75           1601         109.00       448.13
 1267.60        2978.00           1605         107.00       439.41
 1267.64        2978.25           1608         108.00       443.77
 1267.67        2978.50           1611         108.00       443.77
 1267.71        2978.75           1615         119.00       491.72
 1267.74        2979.00           1618         108.00       443.77
 1267.78        2979.25           1622         118.00       487.37
 1267.81        2979.50           1625         109.00       448.13
 1267.85        2979.75           1628          98.00       400.18
 1267.88        2980.00           1632          99.00       404.54
 1267.92        2980.25           1635          98.00       400.18
 1267.95        2980.50           1638         101.00       413.26
 1267.98        2980.75           1642         108.00       443.77
 1268.02        2981.00           1645         102.00       417.62
 1268.05        2981.25           1648         106.00       435.05
 1268.09        2981.50           1652         101.00       413.26
 1268.12        2981.75           1655         101.00       413.26
 1268.16        2982.00           1658         105.00       430.69
 1268.19        2982.25           1662         107.00       439.41
 1268.23        2982.50           1665         122.00       504.80
 1268.26        2982.75           1669          98.00       400.18
 1268.30        2983.00           1672         109.00       448.13
 1268.33        2983.25           1675          92.00       374.02
 1268.37        2983.50           1679         100.00       408.90
 1268.40        2983.75           1682          99.00       404.54
 1268.44        2984.00           1685          98.00       400.18
HS scan finished at 21:08:40
end
