************************************************************
  HS Scan of (1) Internal mercury lamp
************************************************************
Integration time is 0.2294 seconds per sample
dh180619inta 37.1 6.733 3.179758pr1000
************************************************************
Dead Time -------------------------  3E-08 
Number of Cycles Used -------------  4 
Starting Wavelength (Angstroms) ---  2950 
Final Wavelength (Angstoms) -------  2984 
Wavelength Increment (Angstroms) --  .25 
Filter Wheel #1 Position ---------- (1) Ground quartz diffuser (ND=2.32)
Filter Wheel #2 Position ---------- (1) Neutral Density 0.494



************************************************************
HS scan start time = 03:14:03
Dark Count =  5.9 


Time (GMT)  Wavelength (Ang)  Step Number  Raw Counts  Counts/Second

  194.39        2950.00           1230         125.00       519.19
  194.46        2950.25           1234         114.00       471.24
  194.50        2950.50           1237         123.00       510.47
  194.53        2950.75           1240         125.00       519.19
  194.56        2951.00           1244         116.00       479.95
  194.60        2951.25           1247         128.00       532.27
  194.63        2951.50           1250         132.00       549.70
  194.67        2951.75           1254         125.00       519.19
  194.70        2952.00           1257         123.00       510.47
  194.74        2952.25           1260         127.00       527.91
  194.77        2952.50           1264         129.00       536.63
  194.81        2952.75           1267         121.00       501.75
  194.84        2953.00           1270         118.00       488.67
  194.88        2953.25           1274         125.00       519.19
  194.91        2953.50           1277         119.00       493.03
  194.95        2953.75           1280         119.00       493.03
  194.98        2954.00           1284         116.00       479.95
  195.02        2954.25           1287         118.00       488.67
  195.05        2954.50           1290         115.00       475.60
  195.09        2954.75           1294         120.00       497.39
  195.12        2955.00           1297         122.00       506.11
  195.16        2955.25           1300         110.00       453.80
  195.19        2955.50           1304         129.00       536.63
  195.23        2955.75           1307         118.00       488.67
  195.26        2956.00           1310         123.00       510.47
  195.30        2956.25           1314         116.00       479.95
  195.33        2956.50           1317         112.00       462.52
  195.37        2956.75           1320         112.00       462.52
  195.40        2957.00           1324         114.00       471.24
  195.43        2957.25           1327         114.00       471.24
  195.47        2957.50           1330         118.00       488.67
  195.50        2957.75           1334         117.00       484.31
  195.54        2958.00           1337         107.00       440.72
  195.58        2958.25           1340         126.00       523.55
  195.61        2958.50           1344         126.00       523.55
  195.64        2958.75           1347         116.00       479.95
  195.68        2959.00           1350         114.00       471.24
  195.71        2959.25           1354         113.00       466.88
  195.75        2959.50           1357         111.00       458.16
  195.78        2959.75           1360         110.00       453.80
  195.82        2960.00           1364         123.00       510.47
  195.85        2960.25           1367         138.00       575.86
  195.89        2960.50           1370         144.00       602.02
  195.92        2960.75           1374         270.00      1151.30
  195.96        2961.00           1377         692.00      2991.11
  195.99        2961.25           1380        1657.00      7199.02
  196.03        2961.50           1384        3989.00     17372.17
  196.06        2961.75           1387        6571.00     28643.17
  196.09        2962.00           1391       10862.00     47391.21
  196.13        2962.25           1394       14599.00     63735.96
  196.16        2962.50           1397       18848.00     82339.58
  196.20        2962.75           1401       24653.00    107789.60
  196.23        2963.00           1404       28907.00    126464.50
  196.27        2963.25           1407       33501.00    146655.60
  196.30        2963.50           1411       39514.00    173120.40
  196.34        2963.75           1414       43964.00    192733.20
  196.37        2964.00           1417       48394.00    212280.90
  196.41        2964.25           1421       54905.00    241053.00
  196.44        2964.50           1424       59308.00    260538.00
  196.47        2964.75           1427       64185.00    282147.50
  196.51        2965.00           1431       70370.00    309593.20
  196.54        2965.25           1434       75080.00    330524.00
  196.58        2965.50           1437       79607.00    350666.60
  196.62        2965.75           1441       84983.00    374618.50
  196.65        2966.00           1444       88877.00    391989.30
  196.69        2966.25           1447       92268.00    407131.20
  196.72        2966.50           1451       95690.00    422425.40
  196.76        2966.75           1454       97528.00    430646.00
  196.79        2967.00           1457       98610.00    435487.20
  196.82        2967.25           1461       98763.00    436171.90
  196.86        2967.50           1464       98604.00    435460.50
  196.89        2967.75           1467       97539.00    430695.20
  196.93        2968.00           1471       94558.00    417364.50
  196.96        2968.25           1474       91496.00    403682.70
  197.00        2968.50           1477       88292.00    389378.60
  197.03        2968.75           1481       82430.00    363239.80
  197.07        2969.00           1484       78383.00    345218.10
  197.10        2969.25           1487       73654.00    324184.20
  197.14        2969.50           1491       68149.00    299732.40
  197.17        2969.75           1494       63909.00    280923.80
  197.21        2970.00           1498       57980.00    254658.70
  197.24        2970.25           1501       53748.00    235936.50
  197.28        2970.50           1504       49357.00    216533.20
  197.31        2970.75           1508       43461.00    190515.10
  197.35        2971.00           1511       38772.00    169852.40
  197.38        2971.25           1514       34398.00    150600.90
  197.42        2971.50           1518       28443.00    124426.50
  197.45        2971.75           1521       23651.00    103393.90
  197.49        2972.00           1524       18852.00     82357.10
  197.52        2972.25           1528       12964.00     56582.88
  197.56        2972.50           1531        9187.00     40070.37
  197.59        2972.75           1534        6181.00     26940.25
  197.63        2973.00           1538        3078.00     13397.28
  197.66        2973.25           1541        1642.00      7133.61
  197.70        2973.50           1544         784.00      3392.24
  197.73        2973.75           1548         318.00      1360.56
  197.77        2974.00           1551         184.00       776.39
  197.80        2974.25           1554         161.00       676.13
  197.83        2974.50           1558         131.00       545.34
  197.87        2974.75           1561         109.00       449.44
  197.90        2975.00           1565         107.00       440.72
  197.94        2975.25           1568         119.00       493.03
  197.97        2975.50           1571         106.00       436.36
  198.01        2975.75           1575         104.00       427.64
  198.04        2976.00           1578         106.00       436.36
  198.08        2976.25           1581         109.00       449.44
  198.11        2976.50           1585         100.00       410.21
  198.15        2976.75           1588         116.00       479.95
  198.18        2977.00           1591         105.00       432.00
  198.22        2977.25           1595         113.00       466.88
  198.25        2977.50           1598         109.00       449.44
  198.29        2977.75           1601         115.00       475.60
  198.32        2978.00           1605         106.00       436.36
  198.36        2978.25           1608         104.00       427.64
  198.40        2978.50           1611         101.00       414.56
  198.43        2978.75           1615         106.00       436.36
  198.46        2979.00           1618         103.00       423.28
  198.50        2979.25           1622         112.00       462.52
  198.53        2979.50           1625         109.00       449.44
  198.57        2979.75           1628         111.00       458.16
  198.60        2980.00           1632         113.00       466.88
  198.64        2980.25           1635         101.00       414.56
  198.67        2980.50           1638         111.00       458.16
  198.71        2980.75           1642         106.00       436.36
  198.74        2981.00           1645         101.00       414.56
  198.77        2981.25           1648         106.00       436.36
  198.81        2981.50           1652         102.00       418.92
  198.84        2981.75           1655         103.00       423.28
  198.88        2982.00           1658         110.00       453.80
  198.91        2982.25           1662          99.00       405.85
  198.95        2982.50           1665         106.00       436.36
  198.98        2982.75           1669         100.00       410.21
  199.01        2983.00           1672         107.00       440.72
  199.05        2983.25           1675         103.00       423.28
  199.08        2983.50           1679          97.00       397.13
  199.12        2983.75           1682         101.00       414.56
  199.15        2984.00           1685         102.00       418.92
HS scan finished at 03:19:23
end
