************************************************************
  HS Scan of (1) Internal mercury lamp
************************************************************
Integration time is 0.2294 seconds per sample
dh170619inta 37.1 6.733 3.138972pr1000
************************************************************
Dead Time -------------------------  3E-08 
Number of Cycles Used -------------  4 
Starting Wavelength (Angstroms) ---  2950 
Final Wavelength (Angstoms) -------  2984 
Wavelength Increment (Angstroms) --  .25 
Filter Wheel #1 Position ---------- (1) Ground quartz diffuser (ND=2.32)
Filter Wheel #2 Position ---------- (1) Neutral Density 0.494



************************************************************
HS scan start time = 21:50:58
Dark Count =  4.8 


Time (GMT)  Wavelength (Ang)  Step Number  Raw Counts  Counts/Second

 1311.32        2950.00           1230         130.00       545.78
 1311.39        2950.25           1234         120.00       502.19
 1311.42        2950.50           1237         121.00       506.55
 1311.46        2950.75           1240         112.00       467.31
 1311.49        2951.00           1244         122.00       510.91
 1311.53        2951.25           1247         122.00       510.91
 1311.56        2951.50           1250         125.00       523.98
 1311.60        2951.75           1254         124.00       519.62
 1311.63        2952.00           1257         112.00       467.31
 1311.67        2952.25           1260         118.00       493.47
 1311.70        2952.50           1264         118.00       493.47
 1311.74        2952.75           1267         126.00       528.34
 1311.77        2953.00           1270         115.00       480.39
 1311.80        2953.25           1274         125.00       523.98
 1311.84        2953.50           1277         117.00       489.11
 1311.87        2953.75           1280         116.00       484.75
 1311.91        2954.00           1284         123.00       515.27
 1311.94        2954.25           1287         120.00       502.19
 1311.98        2954.50           1290         114.00       476.03
 1312.01        2954.75           1294         117.00       489.11
 1312.05        2955.00           1297         108.00       449.88
 1312.08        2955.25           1300         116.00       484.75
 1312.12        2955.50           1304         120.00       502.19
 1312.15        2955.75           1307         117.00       489.11
 1312.19        2956.00           1310         108.00       449.88
 1312.22        2956.25           1314         115.00       480.39
 1312.25        2956.50           1317         112.00       467.31
 1312.29        2956.75           1320         116.00       484.75
 1312.32        2957.00           1324         119.00       497.83
 1312.36        2957.25           1327         122.00       510.91
 1312.39        2957.50           1330         117.00       489.11
 1312.43        2957.75           1334         110.00       458.59
 1312.46        2958.00           1337         120.00       502.19
 1312.50        2958.25           1340         112.00       467.31
 1312.53        2958.50           1344         110.00       458.59
 1312.57        2958.75           1347         105.00       436.80
 1312.60        2959.00           1350         122.00       510.91
 1312.64        2959.25           1354         109.00       454.23
 1312.67        2959.50           1357         126.00       528.34
 1312.70        2959.75           1360         113.00       471.67
 1312.74        2960.00           1364         129.00       541.42
 1312.77        2960.25           1367         136.00       571.94
 1312.81        2960.50           1370         150.00       632.97
 1312.84        2960.75           1374         301.00      1291.24
 1312.88        2961.00           1377         797.00      3453.71
 1312.91        2961.25           1380        1775.00      7718.44
 1312.95        2961.50           1384        4200.00     18297.75
 1312.98        2961.75           1387        6872.00     29962.40
 1313.02        2962.00           1391       11105.00     48458.36
 1313.05        2962.25           1394       14736.00     64340.28
 1313.09        2962.50           1397       18923.00     82672.96
 1313.12        2962.75           1401       24794.00    108413.00
 1313.16        2963.00           1404       29093.00    127286.30
 1313.19        2963.25           1407       33731.00    147671.90
 1313.23        2963.50           1411       39659.00    173763.90
 1313.26        2963.75           1414       44069.00    193201.10
 1313.30        2964.00           1417       48259.00    211689.70
 1313.33        2964.25           1421       54631.00    239846.00
 1313.37        2964.50           1424       59119.00    259706.10
 1313.40        2964.75           1427       63906.00    280915.40
 1313.44        2965.00           1431       70066.00    308248.00
 1313.47        2965.25           1434       74584.00    328323.50
 1313.51        2965.50           1437       79118.00    348494.50
 1313.54        2965.75           1441       84550.00    372693.00
 1313.58        2966.00           1444       88468.00    390169.00
 1313.61        2966.25           1447       91606.00    404179.00
 1313.65        2966.50           1451       95163.00    420074.10
 1313.68        2966.75           1454       96927.00    427962.50
 1313.72        2967.00           1457       98289.00    434055.70
 1313.75        2967.25           1461       98640.00    435626.50
 1313.79        2967.50           1464       98645.00    435648.80
 1313.82        2967.75           1467       97415.00    430145.40
 1313.86        2968.00           1471       94340.00    416395.00
 1313.89        2968.25           1474       91694.00    404572.10
 1313.93        2968.50           1477       88008.00    388116.10
 1313.96        2968.75           1481       82542.00    363743.70
 1314.00        2969.00           1484       78349.00    345071.70
 1314.03        2969.25           1487       73934.00    325433.80
 1314.07        2969.50           1491       67838.00    298357.00
 1314.10        2969.75           1494       64117.00    281850.90
 1314.14        2970.00           1498       57851.00    254092.50
 1314.17        2970.25           1501       53985.00    236989.30
 1314.21        2970.50           1504       49304.00    216304.00
 1314.24        2970.75           1508       43350.00    190030.60
 1314.28        2971.00           1511       38641.00    169280.30
 1314.31        2971.25           1514       34377.00    150513.30
 1314.35        2971.50           1518       28033.00    122630.80
 1314.38        2971.75           1521       23345.00    102056.50
 1314.42        2972.00           1524       18897.00     82559.07
 1314.45        2972.25           1528       12833.00     56014.71
 1314.49        2972.50           1531        9050.00     39476.54
 1314.52        2972.75           1534        6087.00     26534.63
 1314.55        2973.00           1538        3101.00     13502.42
 1314.59        2973.25           1541        1581.00      6872.38
 1314.62        2973.50           1544         781.00      3383.95
 1314.66        2973.75           1548         316.00      1356.64
 1314.69        2974.00           1551         183.00       776.83
 1314.73        2974.25           1554         152.00       641.69
 1314.76        2974.50           1558         132.00       554.50
 1314.80        2974.75           1561         124.00       519.62
 1314.83        2975.00           1565         111.00       462.95
 1314.87        2975.25           1568         104.00       432.44
 1314.90        2975.50           1571         109.00       454.23
 1314.94        2975.75           1575         123.00       515.27
 1314.97        2976.00           1578         106.00       441.16
 1315.00        2976.25           1581         106.00       441.16
 1315.04        2976.50           1585         111.00       462.95
 1315.07        2976.75           1588         127.00       532.70
 1315.11        2977.00           1591         118.00       493.47
 1315.14        2977.25           1595         102.00       423.72
 1315.18        2977.50           1598         100.00       415.00
 1315.21        2977.75           1601         106.00       441.16
 1315.25        2978.00           1605         113.00       471.67
 1315.28        2978.25           1608         112.00       467.31
 1315.32        2978.50           1611         105.00       436.80
 1315.35        2978.75           1615         111.00       462.95
 1315.39        2979.00           1618         100.00       415.00
 1315.42        2979.25           1622         103.00       428.08
 1315.46        2979.50           1625         100.00       415.00
 1315.50        2979.75           1628         100.00       415.00
 1315.53        2980.00           1632         106.00       441.16
 1315.57        2980.25           1635         111.00       462.95
 1315.60        2980.50           1638         106.00       441.16
 1315.64        2980.75           1642          96.00       397.56
 1315.67        2981.00           1645         112.00       467.31
 1315.71        2981.25           1648         102.00       423.72
 1315.74        2981.50           1652         105.00       436.80
 1315.78        2981.75           1655         105.00       436.80
 1315.81        2982.00           1658         100.00       415.00
 1315.85        2982.25           1662         100.00       415.00
 1315.88        2982.50           1665          99.00       410.64
 1315.92        2982.75           1669         110.00       458.59
 1315.95        2983.00           1672          98.00       406.28
 1315.99        2983.25           1675         100.00       415.00
 1316.02        2983.50           1679         107.00       445.52
 1316.06        2983.75           1682         102.00       423.72
 1316.09        2984.00           1685         106.00       441.16
HS scan finished at 21:56:19
end
