************************************************************
  HS Scan of (1) Internal mercury lamp
************************************************************
Integration time is 0.2294 seconds per sample
dh230619inta 37.1 6.733 3.210348pr1000
************************************************************
Dead Time -------------------------  3E-08 
Number of Cycles Used -------------  4 
Starting Wavelength (Angstroms) ---  2950 
Final Wavelength (Angstoms) -------  2984 
Wavelength Increment (Angstroms) --  .25 
Filter Wheel #1 Position ---------- (1) Ground quartz diffuser (ND=2.32)
Filter Wheel #2 Position ---------- (1) Neutral Density 0.494



************************************************************
HS scan start time = 02:11:33
Dark Count =  8 


Time (GMT)  Wavelength (Ang)  Step Number  Raw Counts  Counts/Second

  131.89        2950.00           1230         115.00       466.44
  131.96        2950.25           1234         117.00       475.16
  131.99        2950.50           1237         112.00       453.36
  132.03        2950.75           1240         123.00       501.32
  132.06        2951.00           1244         129.00       527.47
  132.10        2951.25           1247         125.00       510.03
  132.13        2951.50           1250         118.00       479.52
  132.17        2951.75           1254         120.00       488.24
  132.20        2952.00           1257         126.00       514.39
  132.24        2952.25           1260         122.00       496.96
  132.27        2952.50           1264         124.00       505.67
  132.31        2952.75           1267         117.00       475.16
  132.34        2953.00           1270         126.00       514.39
  132.38        2953.25           1274         120.00       488.24
  132.41        2953.50           1277         121.00       492.60
  132.44        2953.75           1280         118.00       479.52
  132.48        2954.00           1284         105.00       422.85
  132.52        2954.25           1287         120.00       488.24
  132.55        2954.50           1290         121.00       492.60
  132.58        2954.75           1294         115.00       466.44
  132.62        2955.00           1297         121.00       492.60
  132.65        2955.25           1300         120.00       488.24
  132.69        2955.50           1304         119.00       483.88
  132.72        2955.75           1307         116.00       470.80
  132.76        2956.00           1310         110.00       444.64
  132.80        2956.25           1314         109.00       440.28
  132.83        2956.50           1317         112.00       453.36
  132.86        2956.75           1320         112.00       453.36
  132.90        2957.00           1324         118.00       479.52
  132.93        2957.25           1327         118.00       479.52
  132.97        2957.50           1330         124.00       505.67
  133.00        2957.75           1334         110.00       444.64
  133.04        2958.00           1337         125.00       510.03
  133.07        2958.25           1340         116.00       470.80
  133.11        2958.50           1344         116.00       470.80
  133.14        2958.75           1347         115.00       466.44
  133.18        2959.00           1350         121.00       492.60
  133.22        2959.25           1354         112.00       453.36
  133.25        2959.50           1357         119.00       483.88
  133.29        2959.75           1360         122.00       496.96
  133.32        2960.00           1364         128.00       523.11
  133.35        2960.25           1367         158.00       653.89
  133.39        2960.50           1370         135.00       553.63
  133.42        2960.75           1374         264.00      1115.99
  133.46        2961.00           1377         725.00      3125.84
  133.49        2961.25           1380        1681.00      7294.53
  133.53        2961.50           1384        4003.00     17424.10
  133.56        2961.75           1387        6767.00     29489.90
  133.60        2962.00           1391       11397.00     49721.02
  133.63        2962.25           1394       15332.00     66934.61
  133.67        2962.50           1397       19562.00     85458.55
  133.70        2962.75           1401       25101.00    109746.10
  133.74        2963.00           1404       29397.00    128607.70
  133.78        2963.25           1407       34107.00    149311.60
  133.81        2963.50           1411       40083.00    175617.70
  133.85        2963.75           1414       44584.00    195458.40
  133.88        2964.00           1417       49250.00    216051.40
  133.92        2964.25           1421       55940.00    245621.90
  133.95        2964.50           1424       60354.00    265161.10
  133.99        2964.75           1427       65535.00    288124.90
  134.02        2965.00           1431       71769.00    315798.10
  134.06        2965.25           1434       76353.00    336176.30
  134.09        2965.50           1437       80910.00    356459.40
  134.13        2965.75           1441       86426.00    381044.20
  134.16        2966.00           1444       90219.00    397970.80
  134.20        2966.25           1447       93567.00    412925.90
  134.23        2966.50           1451       97543.00    430703.70
  134.27        2966.75           1454       99322.00    438664.30
  134.30        2967.00           1457      100536.00    444098.90
  134.34        2967.25           1461      100704.00    444851.10
  134.37        2967.50           1464      100308.00    443078.10
  134.41        2967.75           1467       98943.00    436968.10
  134.44        2968.00           1471       96070.00    424115.20
  134.48        2968.25           1474       93239.00    411460.10
  134.51        2968.50           1477       89497.00    394747.40
  134.55        2968.75           1481       84184.00    371047.20
  134.58        2969.00           1484       79471.00    350051.70
  134.62        2969.25           1487       75085.00    330537.00
  134.65        2969.50           1491       69166.00    304237.60
  134.69        2969.75           1494       64838.00    285033.70
  134.72        2970.00           1498       59027.00    259284.50
  134.76        2970.25           1501       54664.00    239977.80
  134.79        2970.50           1504       50144.00    219999.90
  134.83        2970.75           1508       44263.00    194042.60
  134.86        2971.00           1511       39599.00    173485.60
  134.90        2971.25           1514       35169.00    153983.40
  134.93        2971.50           1518       28733.00    125691.00
  134.97        2971.75           1521       23873.00    104358.40
  135.00        2972.00           1524       19146.00     83635.92
  135.04        2972.25           1528       13510.00     58962.09
  135.07        2972.50           1531        9327.00     40672.96
  135.11        2972.75           1534        6321.00     27542.37
  135.14        2973.00           1538        3253.00     14151.61
  135.18        2973.25           1541        1643.00      7128.81
  135.21        2973.50           1544         787.00      3396.16
  135.25        2973.75           1548         305.00      1294.73
  135.28        2974.00           1551         183.00       762.88
  135.32        2974.25           1554         155.00       640.81
  135.35        2974.50           1558         133.00       544.91
  135.39        2974.75           1561         125.00       510.03
  135.42        2975.00           1565         123.00       501.32
  135.45        2975.25           1568         112.00       453.36
  135.49        2975.50           1571          99.00       396.69
  135.53        2975.75           1575         105.00       422.85
  135.56        2976.00           1578         112.00       453.36
  135.60        2976.25           1581         110.00       444.64
  135.63        2976.50           1585         111.00       449.00
  135.67        2976.75           1588          99.00       396.69
  135.70        2977.00           1591         100.00       401.05
  135.74        2977.25           1595         102.00       409.77
  135.77        2977.50           1598         107.00       431.57
  135.81        2977.75           1601         100.00       401.05
  135.84        2978.00           1605          96.00       383.61
  135.88        2978.25           1608         108.00       435.93
  135.91        2978.50           1611         114.00       462.08
  135.95        2978.75           1615         112.00       453.36
  135.98        2979.00           1618         107.00       431.57
  136.02        2979.25           1622         109.00       440.28
  136.05        2979.50           1625         116.00       470.80
  136.09        2979.75           1628          99.00       396.69
  136.12        2980.00           1632         111.00       449.00
  136.15        2980.25           1635         111.00       449.00
  136.19        2980.50           1638         111.00       449.00
  136.23        2980.75           1642         112.00       453.36
  136.26        2981.00           1645          96.00       383.61
  136.29        2981.25           1648         108.00       435.93
  136.33        2981.50           1652         102.00       409.77
  136.37        2981.75           1655         106.00       427.21
  136.40        2982.00           1658         104.00       418.49
  136.44        2982.25           1662          91.00       361.82
  136.47        2982.50           1665          93.00       370.54
  136.51        2982.75           1669          97.00       387.97
  136.54        2983.00           1672          99.00       396.69
  136.58        2983.25           1675         104.00       418.49
  136.61        2983.50           1679          95.00       379.25
  136.65        2983.75           1682         102.00       409.77
  136.68        2984.00           1685         103.00       414.13
HS scan finished at 02:16:55
end
