************************************************************
  HS Scan of (1) Internal mercury lamp
************************************************************
Integration time is 0.2294 seconds per sample
dh260619inta 37.1 6.733 3.225644pr1000
************************************************************
Dead Time -------------------------  3E-08 
Number of Cycles Used -------------  4 
Starting Wavelength (Angstroms) ---  2950 
Final Wavelength (Angstoms) -------  2984 
Wavelength Increment (Angstroms) --  .25 
Filter Wheel #1 Position ---------- (1) Ground quartz diffuser (ND=2.32)
Filter Wheel #2 Position ---------- (1) Neutral Density 0.494



************************************************************
HS scan start time = 02:14:50
Dark Count =  6.9 


Time (GMT)  Wavelength (Ang)  Step Number  Raw Counts  Counts/Second

  135.17        2950.00           1230         127.00       523.55
  135.24        2950.25           1234         119.00       488.67
  135.28        2950.50           1237         115.00       471.24
  135.31        2950.75           1240         115.00       471.24
  135.35        2951.00           1244         118.00       484.31
  135.38        2951.25           1247         124.00       510.47
  135.42        2951.50           1250         114.00       466.88
  135.45        2951.75           1254         131.00       540.99
  135.49        2952.00           1257         122.00       501.75
  135.52        2952.25           1260         117.00       479.95
  135.56        2952.50           1264         114.00       466.88
  135.59        2952.75           1267         125.00       514.83
  135.63        2953.00           1270         111.00       453.80
  135.66        2953.25           1274         121.00       497.39
  135.70        2953.50           1277         121.00       497.39
  135.73        2953.75           1280         117.00       479.95
  135.77        2954.00           1284         130.00       536.63
  135.80        2954.25           1287         119.00       488.67
  135.84        2954.50           1290         121.00       497.39
  135.87        2954.75           1294         118.00       484.31
  135.91        2955.00           1297         120.00       493.03
  135.94        2955.25           1300         119.00       488.67
  135.97        2955.50           1304         114.00       466.88
  136.01        2955.75           1307         119.00       488.67
  136.04        2956.00           1310         116.00       475.60
  136.08        2956.25           1314         137.00       567.14
  136.11        2956.50           1317         128.00       527.91
  136.15        2956.75           1320         114.00       466.88
  136.18        2957.00           1324         123.00       506.11
  136.22        2957.25           1327         122.00       501.75
  136.25        2957.50           1330         116.00       475.60
  136.29        2957.75           1334         113.00       462.52
  136.32        2958.00           1337         112.00       458.16
  136.35        2958.25           1340         103.00       418.92
  136.39        2958.50           1344         114.00       466.88
  136.42        2958.75           1347         120.00       493.03
  136.46        2959.00           1350         124.00       510.47
  136.49        2959.25           1354         111.00       453.80
  136.53        2959.50           1357         105.00       427.64
  136.56        2959.75           1360         128.00       527.91
  136.60        2960.00           1364         134.00       554.06
  136.63        2960.25           1367         132.00       545.34
  136.67        2960.50           1370         145.00       602.02
  136.70        2960.75           1374         329.00      1404.16
  136.73        2961.00           1377         860.00      3719.25
  136.77        2961.25           1380        1851.00      8040.73
  136.80        2961.50           1384        4311.00     18772.99
  136.84        2961.75           1387        7033.00     30656.34
  136.87        2962.00           1391       11351.00     49524.70
  136.91        2962.25           1394       15094.00     65897.81
  136.94        2962.50           1397       19310.00     84359.25
  136.98        2962.75           1401       24498.00    107105.10
  137.01        2963.00           1404       29007.00    126899.40
  137.05        2963.25           1407       33319.00    145850.80
  137.08        2963.50           1411       39290.00    172129.40
  137.12        2963.75           1414       43585.00    191057.50
  137.15        2964.00           1417       48110.00    211022.70
  137.19        2964.25           1421       54535.00    239412.20
  137.22        2964.50           1424       58880.00    258638.50
  137.26        2964.75           1427       63083.00    277257.80
  137.29        2965.00           1431       69620.00    306258.20
  137.33        2965.25           1434       73632.00    324082.00
  137.36        2965.50           1437       78312.00    344897.60
  137.39        2965.75           1441       83765.00    369184.50
  137.43        2966.00           1444       87697.00    386719.10
  137.46        2966.25           1447       90978.00    401364.80
  137.50        2966.50           1451       94733.00    418142.30
  137.53        2966.75           1454       96103.00    424267.80
  137.57        2967.00           1457       97338.00    429791.60
  137.61        2967.25           1461       98276.00    433988.20
  137.64        2967.50           1464       97648.00    431178.40
  137.68        2967.75           1467       96255.00    424947.60
  137.71        2968.00           1471       93497.00    412618.00
  137.74        2968.25           1474       90816.00    400641.40
  137.78        2968.50           1477       87173.00    384381.30
  137.82        2968.75           1481       81747.00    360192.50
  137.85        2969.00           1484       77335.00    340550.00
  137.88        2969.25           1487       73259.00    322424.10
  137.92        2969.50           1491       67421.00    296497.00
  137.95        2969.75           1494       63351.00    278445.70
  137.99        2970.00           1498       57210.00    251246.20
  138.02        2970.25           1501       53187.00    233451.90
  138.06        2970.50           1504       48966.00    214802.20
  138.09        2970.75           1508       43050.00    188698.60
  138.13        2971.00           1511       38559.00    168910.00
  138.16        2971.25           1514       33793.00    147935.40
  138.20        2971.50           1518       27589.00    120671.90
  138.23        2971.75           1521       22974.00    100420.20
  138.27        2972.00           1524       18465.00     80657.44
  138.30        2972.25           1528       12700.00     55423.80
  138.33        2972.50           1531        8928.00     38934.28
  138.37        2972.75           1534        5779.00     25180.74
  138.40        2973.00           1538        3018.00     13131.15
  138.44        2973.25           1541        1508.00      6544.88
  138.48        2973.50           1544         773.00      3339.92
  138.51        2973.75           1548         300.00      1277.73
  138.54        2974.00           1551         164.00       684.84
  138.58        2974.25           1554         150.00       623.81
  138.61        2974.50           1558         140.00       580.22
  138.65        2974.75           1561         117.00       479.95
  138.68        2975.00           1565         115.00       471.24
  138.72        2975.25           1568         112.00       458.16
  138.75        2975.50           1571         107.00       436.36
  138.79        2975.75           1575         117.00       479.95
  138.82        2976.00           1578         119.00       488.67
  138.86        2976.25           1581         112.00       458.16
  138.89        2976.50           1585         112.00       458.16
  138.92        2976.75           1588         103.00       418.92
  138.96        2977.00           1591         111.00       453.80
  138.99        2977.25           1595         118.00       484.31
  139.03        2977.50           1598          96.00       388.41
  139.06        2977.75           1601         111.00       453.80
  139.10        2978.00           1605         114.00       466.88
  139.13        2978.25           1608         106.00       432.00
  139.17        2978.50           1611         106.00       432.00
  139.20        2978.75           1615         109.00       445.08
  139.24        2979.00           1618         105.00       427.64
  139.27        2979.25           1622          98.00       397.13
  139.31        2979.50           1625         115.00       471.24
  139.34        2979.75           1628         103.00       418.92
  139.38        2980.00           1632         112.00       458.16
  139.41        2980.25           1635         113.00       462.52
  139.45        2980.50           1638         102.00       414.56
  139.48        2980.75           1642         102.00       414.56
  139.51        2981.00           1645          96.00       388.41
  139.55        2981.25           1648         111.00       453.80
  139.58        2981.50           1652         101.00       410.21
  139.62        2981.75           1655         104.00       423.28
  139.65        2982.00           1658          97.00       392.77
  139.69        2982.25           1662         103.00       418.92
  139.72        2982.50           1665         110.00       449.44
  139.76        2982.75           1669          90.00       362.25
  139.79        2983.00           1672         113.00       462.52
  139.83        2983.25           1675         103.00       418.92
  139.86        2983.50           1679         103.00       418.92
  139.90        2983.75           1682          95.00       384.05
  139.93        2984.00           1685          95.00       384.05
HS scan finished at 02:20:10
end
************************************************************
  HS Scan of (1) Internal mercury lamp
************************************************************
Integration time is 0.2294 seconds per sample
dh260619inta 37.1 6.733 3.20525pr1000
************************************************************
Dead Time -------------------------  3E-08 
Number of Cycles Used -------------  4 
Starting Wavelength (Angstroms) ---  2950 
Final Wavelength (Angstoms) -------  2984 
Wavelength Increment (Angstroms) --  .25 
Filter Wheel #1 Position ---------- (1) Ground quartz diffuser (ND=2.32)
Filter Wheel #2 Position ---------- (1) Neutral Density 0.494



************************************************************
HS scan start time = 21:03:24
Dark Count =  8.9 


Time (GMT)  Wavelength (Ang)  Step Number  Raw Counts  Counts/Second

 1263.75        2950.00           1230         126.00       510.47
 1263.82        2950.25           1234         112.00       449.44
 1263.85        2950.50           1237         122.00       493.03
 1263.89        2950.75           1240         124.00       501.75
 1263.92        2951.00           1244         120.00       484.31
 1263.95        2951.25           1247         126.00       510.47
 1263.99        2951.50           1250         113.00       453.80
 1264.02        2951.75           1254         125.00       506.11
 1264.06        2952.00           1257         120.00       484.31
 1264.10        2952.25           1260         110.00       440.72
 1264.13        2952.50           1264         132.00       536.63
 1264.16        2952.75           1267         122.00       493.03
 1264.20        2953.00           1270         118.00       475.60
 1264.24        2953.25           1274         122.00       493.03
 1264.27        2953.50           1277         123.00       497.39
 1264.30        2953.75           1280         115.00       462.52
 1264.34        2954.00           1284         120.00       484.31
 1264.38        2954.25           1287         115.00       462.52
 1264.41        2954.50           1290         118.00       475.60
 1264.45        2954.75           1294         118.00       475.60
 1264.48        2955.00           1297         122.00       493.03
 1264.52        2955.25           1300         116.00       466.88
 1264.55        2955.50           1304         116.00       466.88
 1264.59        2955.75           1307         116.00       466.88
 1264.62        2956.00           1310         113.00       453.80
 1264.66        2956.25           1314         123.00       497.39
 1264.69        2956.50           1317         123.00       497.39
 1264.73        2956.75           1320         122.00       493.03
 1264.76        2957.00           1324         114.00       458.16
 1264.79        2957.25           1327         110.00       440.72
 1264.83        2957.50           1330         116.00       466.88
 1264.87        2957.75           1334         122.00       493.03
 1264.90        2958.00           1337         122.00       493.03
 1264.94        2958.25           1340         116.00       466.88
 1264.97        2958.50           1344         122.00       493.03
 1265.00        2958.75           1347         131.00       532.27
 1265.04        2959.00           1350         112.00       449.44
 1265.08        2959.25           1354         118.00       475.60
 1265.11        2959.50           1357         111.00       445.08
 1265.15        2959.75           1360         119.00       479.95
 1265.18        2960.00           1364         120.00       484.31
 1265.22        2960.25           1367         126.00       510.47
 1265.25        2960.50           1370         141.00       575.86
 1265.29        2960.75           1374         285.00      1203.62
 1265.32        2961.00           1377         774.00      3335.56
 1265.35        2961.25           1380        1724.00      7478.14
 1265.39        2961.50           1384        4062.00     17677.64
 1265.43        2961.75           1387        6769.00     29494.70
 1265.46        2962.00           1391       11256.00     49100.60
 1265.49        2962.25           1394       15001.00     65482.03
 1265.53        2962.50           1397       19376.00     84639.66
 1265.56        2962.75           1401       24732.00    108123.00
 1265.60        2963.00           1404       28998.00    126851.00
 1265.63        2963.25           1407       33125.00    144988.90
 1265.67        2963.50           1411       39315.00    172230.70
 1265.70        2963.75           1414       43583.00    191039.90
 1265.74        2964.00           1417       48122.00    211066.80
 1265.77        2964.25           1421       54579.00    239597.90
 1265.81        2964.50           1424       59016.00    259231.90
 1265.84        2964.75           1427       63889.00    280821.90
 1265.88        2965.00           1431       69971.00    307807.90
 1265.91        2965.25           1434       74166.00    326446.90
 1265.95        2965.50           1437       78666.00    346464.30
 1265.99        2965.75           1441       84139.00    370842.60
 1266.02        2966.00           1444       87788.00    387116.20
 1266.06        2966.25           1447       91220.00    402436.70
 1266.09        2966.50           1451       94733.00    418133.40
 1266.13        2966.75           1454       96297.00    425126.40
 1266.16        2967.00           1457       97546.00    430713.10
 1266.19        2967.25           1461       97782.00    431769.00
 1266.23        2967.50           1464       96957.00    428078.40
 1266.27        2967.75           1467       96181.00    424607.70
 1266.30        2968.00           1471       93354.00    411970.00
 1266.34        2968.25           1474       89805.00    396118.40
 1266.37        2968.50           1477       86556.00    381620.00
 1266.41        2968.75           1481       81387.00    358580.00
 1266.44        2969.00           1484       77082.00    339415.40
 1266.48        2969.25           1487       72275.00    318042.30
 1266.51        2969.50           1491       66961.00    294447.00
 1266.54        2969.75           1494       62635.00    275263.30
 1266.58        2970.00           1498       56990.00    250263.80
 1266.62        2970.25           1501       52733.00    231436.10
 1266.65        2970.50           1504       48374.00    212179.40
 1266.69        2970.75           1508       42529.00    186392.90
 1266.72        2971.00           1511       37875.00    165889.30
 1266.76        2971.25           1514       33735.00    147671.50
 1266.79        2971.50           1518       27631.00    120847.50
 1266.83        2971.75           1521       22774.00     99534.34
 1266.86        2972.00           1524       18022.00     78708.30
 1266.90        2972.25           1528       12611.00     55025.80
 1266.93        2972.50           1531        8730.00     38060.43
 1266.97        2972.75           1534        5843.00     25451.42
 1267.00        2973.00           1538        2948.00     12817.05
 1267.04        2973.25           1541        1518.00      6579.76
 1267.07        2973.50           1544         732.00      3152.43
 1267.10        2973.75           1548         291.00      1229.77
 1267.14        2974.00           1551         185.00       767.67
 1267.18        2974.25           1554         145.00       593.30
 1267.21        2974.50           1558         137.00       558.42
 1267.24        2974.75           1561         118.00       475.60
 1267.28        2975.00           1565         109.00       436.36
 1267.31        2975.25           1568         120.00       484.31
 1267.35        2975.50           1571         111.00       445.08
 1267.38        2975.75           1575         106.00       423.28
 1267.42        2976.00           1578         118.00       475.60
 1267.45        2976.25           1581         115.00       462.52
 1267.49        2976.50           1585         115.00       462.52
 1267.52        2976.75           1588         110.00       440.72
 1267.56        2977.00           1591         108.00       432.00
 1267.59        2977.25           1595         112.00       449.44
 1267.63        2977.50           1598         108.00       432.00
 1267.66        2977.75           1601         112.00       449.44
 1267.70        2978.00           1605         107.00       427.64
 1267.73        2978.25           1608         103.00       410.21
 1267.77        2978.50           1611         104.00       414.56
 1267.80        2978.75           1615         101.00       401.49
 1267.84        2979.00           1618          98.00       388.41
 1267.87        2979.25           1622         112.00       449.44
 1267.91        2979.50           1625         112.00       449.44
 1267.94        2979.75           1628         105.00       418.92
 1267.98        2980.00           1632         111.00       445.08
 1268.01        2980.25           1635         105.00       418.92
 1268.05        2980.50           1638         115.00       462.52
 1268.08        2980.75           1642          99.00       392.77
 1268.11        2981.00           1645          97.00       384.05
 1268.15        2981.25           1648         117.00       471.24
 1268.18        2981.50           1652         107.00       427.64
 1268.22        2981.75           1655         103.00       410.21
 1268.25        2982.00           1658          93.00       366.61
 1268.29        2982.25           1662         110.00       440.72
 1268.32        2982.50           1665          95.00       375.33
 1268.36        2982.75           1669          95.00       375.33
 1268.39        2983.00           1672         104.00       414.56
 1268.43        2983.25           1675         108.00       432.00
 1268.46        2983.50           1679         109.00       436.36
 1268.50        2983.75           1682          93.00       366.61
 1268.53        2984.00           1685          99.00       392.77
HS scan finished at 21:08:46
end
