************************************************************
  HS Scan of (1) Internal mercury lamp
************************************************************
Integration time is 0.2294 seconds per sample
dh250619inta 37.1 6.733 3.20525pr1000
************************************************************
Dead Time -------------------------  3E-08 
Number of Cycles Used -------------  4 
Starting Wavelength (Angstroms) ---  2950 
Final Wavelength (Angstoms) -------  2984 
Wavelength Increment (Angstroms) --  .25 
Filter Wheel #1 Position ---------- (1) Ground quartz diffuser (ND=2.32)
Filter Wheel #2 Position ---------- (1) Neutral Density 0.494



************************************************************
HS scan start time = 03:24:43
Dark Count =  4.4 


Time (GMT)  Wavelength (Ang)  Step Number  Raw Counts  Counts/Second

  205.07        2950.00           1230         120.00       503.93
  205.14        2950.25           1234         115.00       482.13
  205.17        2950.50           1237         127.00       534.45
  205.21        2950.75           1240         128.00       538.81
  205.24        2951.00           1244         122.00       512.65
  205.28        2951.25           1247         128.00       538.81
  205.31        2951.50           1250         118.00       495.21
  205.35        2951.75           1254         134.00       564.96
  205.38        2952.00           1257         128.00       538.81
  205.41        2952.25           1260         107.00       447.26
  205.45        2952.50           1264         125.00       525.73
  205.48        2952.75           1267         130.00       547.52
  205.52        2953.00           1270         130.00       547.52
  205.55        2953.25           1274         108.00       451.62
  205.59        2953.50           1277         112.00       469.06
  205.62        2953.75           1280         129.00       543.16
  205.65        2954.00           1284         118.00       495.21
  205.69        2954.25           1287         123.00       517.01
  205.72        2954.50           1290         120.00       503.93
  205.76        2954.75           1294         114.00       477.77
  205.79        2955.00           1297         131.00       551.88
  205.83        2955.25           1300         113.00       473.42
  205.86        2955.50           1304         118.00       495.21
  205.89        2955.75           1307         120.00       503.93
  205.93        2956.00           1310         116.00       486.49
  205.96        2956.25           1314         111.00       464.70
  206.00        2956.50           1317         131.00       551.88
  206.03        2956.75           1320         111.00       464.70
  206.07        2957.00           1324         132.00       556.24
  206.10        2957.25           1327         112.00       469.06
  206.14        2957.50           1330         112.00       469.06
  206.17        2957.75           1334         106.00       442.90
  206.20        2958.00           1337         119.00       499.57
  206.24        2958.25           1340         115.00       482.13
  206.27        2958.50           1344         121.00       508.29
  206.31        2958.75           1347         123.00       517.01
  206.34        2959.00           1350         116.00       486.49
  206.38        2959.25           1354         112.00       469.06
  206.41        2959.50           1357         125.00       525.73
  206.44        2959.75           1360         118.00       495.21
  206.48        2960.00           1364         126.00       530.09
  206.51        2960.25           1367         131.00       551.88
  206.55        2960.50           1370         145.00       612.91
  206.58        2960.75           1374         289.00      1240.67
  206.62        2961.00           1377         757.00      3281.05
  206.65        2961.25           1380        1716.00      7462.87
  206.68        2961.50           1384        4054.00     17662.36
  206.72        2961.75           1387        6802.00     29658.46
  206.75        2962.00           1391       11383.00     49675.55
  206.79        2962.25           1394       15357.00     67059.79
  206.82        2962.50           1397       19193.00     83857.60
  206.86        2962.75           1401       24512.00    107177.50
  206.89        2963.00           1404       29076.00    127213.40
  206.93        2963.25           1407       33345.00    145976.10
  206.96        2963.50           1411       39149.00    171519.30
  207.00        2963.75           1414       43701.00    191580.00
  207.03        2964.00           1417       48318.00    211952.00
  207.07        2964.25           1421       54719.00    240236.90
  207.10        2964.50           1424       59183.00    259991.20
  207.14        2964.75           1427       64099.00    281772.90
  207.17        2965.00           1431       70160.00    308667.20
  207.20        2965.25           1434       74419.00    327591.70
  207.24        2965.50           1437       78870.00    347392.40
  207.27        2965.75           1441       84495.00    372449.60
  207.31        2966.00           1444       88181.00    388890.00
  207.34        2966.25           1447       91765.00    404890.90
  207.38        2966.50           1451       94973.00    419226.40
  207.41        2966.75           1454       96757.00    427203.90
  207.45        2967.00           1457       97757.00    431677.20
  207.48        2967.25           1461       98188.00    433605.60
  207.52        2967.50           1464       97717.00    431498.20
  207.55        2967.75           1467       96620.00    426591.10
  207.59        2968.00           1471       93425.00    412307.40
  207.62        2968.25           1474       90453.00    399031.60
  207.66        2968.50           1477       87230.00    384646.70
  207.69        2968.75           1481       81810.00    360484.20
  207.73        2969.00           1484       77472.00    341170.70
  207.76        2969.25           1487       73086.00    321666.30
  207.80        2969.50           1491       67336.00    296130.90
  207.83        2969.75           1494       63040.00    277078.20
  207.87        2970.00           1498       57204.00    251230.80
  207.90        2970.25           1501       52981.00    232552.30
  207.94        2970.50           1504       48467.00    212609.90
  207.97        2970.75           1508       42945.00    188246.60
  208.01        2971.00           1511       38227.00    167459.10
  208.04        2971.25           1514       33953.00    148650.10
  208.08        2971.50           1518       27675.00    121060.50
  208.11        2971.75           1521       23002.00    100554.00
  208.15        2972.00           1524       18420.00     80471.26
  208.18        2972.25           1528       12746.00     55635.94
  208.22        2972.50           1531        8861.00     38652.46
  208.25        2972.75           1534        5876.00     25615.14
  208.29        2973.00           1538        3016.00     13133.33
  208.32        2973.25           1541        1541.00      6699.69
  208.35        2973.50           1544         726.00      3145.89
  208.39        2973.75           1548         296.00      1271.19
  208.42        2974.00           1551         188.00       800.37
  208.46        2974.25           1554         150.00       634.71
  208.49        2974.50           1558         133.00       560.60
  208.53        2974.75           1561         130.00       547.52
  208.56        2975.00           1565         122.00       512.65
  208.59        2975.25           1568         126.00       530.09
  208.63        2975.50           1571         106.00       442.90
  208.66        2975.75           1575         113.00       473.42
  208.70        2976.00           1578         105.00       438.54
  208.73        2976.25           1581         112.00       469.06
  208.77        2976.50           1585         108.00       451.62
  208.80        2976.75           1588         116.00       486.49
  208.84        2977.00           1591         118.00       495.21
  208.87        2977.25           1595         118.00       495.21
  208.91        2977.50           1598         114.00       477.77
  208.94        2977.75           1601         111.00       464.70
  208.98        2978.00           1605         103.00       429.82
  209.01        2978.25           1608         110.00       460.34
  209.05        2978.50           1611         107.00       447.26
  209.08        2978.75           1615         112.00       469.06
  209.11        2979.00           1618         114.00       477.77
  209.15        2979.25           1622         103.00       429.82
  209.18        2979.50           1625         112.00       469.06
  209.22        2979.75           1628         114.00       477.77
  209.25        2980.00           1632          95.00       394.95
  209.29        2980.25           1635         118.00       495.21
  209.32        2980.50           1638          94.00       390.59
  209.36        2980.75           1642         108.00       451.62
  209.39        2981.00           1645         108.00       451.62
  209.42        2981.25           1648         101.00       421.10
  209.46        2981.50           1652         112.00       469.06
  209.49        2981.75           1655         102.00       425.46
  209.53        2982.00           1658         114.00       477.77
  209.56        2982.25           1662         103.00       429.82
  209.60        2982.50           1665         102.00       425.46
  209.63        2982.75           1669         103.00       429.82
  209.67        2983.00           1672          90.00       373.15
  209.70        2983.25           1675         100.00       416.74
  209.74        2983.50           1679          97.00       403.67
  209.77        2983.75           1682         110.00       460.34
  209.80        2984.00           1685          97.00       403.67
HS scan finished at 03:30:02
end
