************************************************************
  HS Scan of (1) Internal mercury lamp
************************************************************
Integration time is 0.2294 seconds per sample
dh200619inta 37.1 6.733 3.179758pr1000
************************************************************
Dead Time -------------------------  3E-08 
Number of Cycles Used -------------  4 
Starting Wavelength (Angstroms) ---  2950 
Final Wavelength (Angstoms) -------  2984 
Wavelength Increment (Angstroms) --  .25 
Filter Wheel #1 Position ---------- (1) Ground quartz diffuser (ND=2.32)
Filter Wheel #2 Position ---------- (1) Neutral Density 0.494



************************************************************
HS scan start time = 02:10:26
Dark Count =  6.3 


Time (GMT)  Wavelength (Ang)  Step Number  Raw Counts  Counts/Second

  130.79        2950.00           1230         121.00       500.01
  130.86        2950.25           1234         120.00       495.65
  130.89        2950.50           1237         121.00       500.01
  130.93        2950.75           1240         133.00       552.32
  130.96        2951.00           1244         112.00       460.77
  131.00        2951.25           1247         119.00       491.29
  131.03        2951.50           1250         120.00       495.65
  131.07        2951.75           1254         125.00       517.44
  131.10        2952.00           1257         114.00       469.49
  131.14        2952.25           1260         126.00       521.80
  131.17        2952.50           1264         125.00       517.44
  131.21        2952.75           1267         128.00       530.52
  131.24        2953.00           1270         116.00       478.21
  131.28        2953.25           1274         119.00       491.29
  131.31        2953.50           1277         119.00       491.29
  131.34        2953.75           1280         112.00       460.77
  131.38        2954.00           1284         117.00       482.57
  131.42        2954.25           1287         108.00       443.34
  131.45        2954.50           1290         112.00       460.77
  131.49        2954.75           1294         119.00       491.29
  131.52        2955.00           1297         115.00       473.85
  131.55        2955.25           1300         117.00       482.57
  131.59        2955.50           1304         113.00       465.13
  131.62        2955.75           1307         121.00       500.01
  131.66        2956.00           1310         121.00       500.01
  131.69        2956.25           1314         121.00       500.01
  131.73        2956.50           1317         110.00       452.05
  131.76        2956.75           1320         109.00       447.70
  131.80        2957.00           1324         112.00       460.77
  131.83        2957.25           1327         118.00       486.93
  131.87        2957.50           1330         116.00       478.21
  131.90        2957.75           1334         115.00       473.85
  131.94        2958.00           1337         126.00       521.80
  131.97        2958.25           1340         109.00       447.70
  132.01        2958.50           1344         116.00       478.21
  132.04        2958.75           1347         120.00       495.65
  132.08        2959.00           1350         110.00       452.05
  132.11        2959.25           1354         116.00       478.21
  132.15        2959.50           1357         103.00       421.54
  132.18        2959.75           1360         122.00       504.37
  132.22        2960.00           1364         126.00       521.80
  132.25        2960.25           1367         135.00       561.04
  132.29        2960.50           1370         153.00       639.51
  132.32        2960.75           1374         305.00      1302.14
  132.36        2961.00           1377         755.00      3264.05
  132.39        2961.25           1380        1794.00      7794.76
  132.43        2961.50           1384        4255.00     18531.22
  132.46        2961.75           1387        6983.00     30440.60
  132.50        2962.00           1391       11492.00     50143.82
  132.53        2962.25           1394       15425.00     67349.10
  132.57        2962.50           1397       19395.00     84734.29
  132.60        2962.75           1401       25134.00    109898.40
  132.64        2963.00           1404       29556.00    129313.70
  132.67        2963.25           1407       33907.00    148439.40
  132.71        2963.50           1411       39879.00    174726.50
  132.74        2963.75           1414       44243.00    193961.90
  132.78        2964.00           1417       49123.00    215498.10
  132.81        2964.25           1421       56136.00    246496.50
  132.85        2964.50           1424       60335.00    265084.50
  132.88        2964.75           1427       65123.00    286305.10
  132.92        2965.00           1431       71351.00    313948.70
  132.95        2965.25           1434       75964.00    334453.60
  132.99        2965.50           1437       80309.00    353790.50
  133.02        2965.75           1441       85772.00    378135.00
  133.06        2966.00           1444       90184.00    397822.10
  133.09        2966.25           1447       93697.00    413514.50
  133.13        2966.50           1451       97281.00    429539.30
  133.16        2966.75           1454       98921.00    436877.20
  133.20        2967.00           1457       99927.00    441380.00
  133.23        2967.25           1461      101034.00    446336.30
  133.27        2967.50           1464      100353.00    443287.20
  133.30        2967.75           1467       99336.00    438734.60
  133.34        2968.00           1471       96434.00    425750.80
  133.37        2968.25           1474       93870.00    414287.60
  133.40        2968.50           1477       89864.00    396393.40
  133.44        2968.75           1481       84015.00    370301.50
  133.48        2969.00           1484       79748.00    351292.60
  133.51        2969.25           1487       75151.00    330838.00
  133.55        2969.50           1491       69720.00    306704.90
  133.58        2969.75           1494       65122.00    286300.70
  133.62        2970.00           1498       58841.00    258468.50
  133.65        2970.25           1501       54679.00    240051.60
  133.69        2970.50           1504       49975.00    219261.00
  133.72        2970.75           1508       44280.00    194125.00
  133.76        2971.00           1511       39404.00    172634.10
  133.79        2971.25           1514       34992.00    153212.20
  133.83        2971.50           1518       28857.00    126243.10
  133.86        2971.75           1521       23831.00    104181.70
  133.90        2972.00           1524       19129.00     83568.88
  133.93        2972.25           1528       13318.00     58129.61
  133.97        2972.50           1531        9289.00     40514.33
  134.00        2972.75           1534        6003.00     26161.33
  134.04        2973.00           1538        3026.00     13168.67
  134.07        2973.25           1541        1551.00      6735.01
  134.11        2973.50           1544         763.00      3298.93
  134.14        2973.75           1548         295.00      1258.55
  134.18        2974.00           1551         187.00       787.73
  134.21        2974.25           1554         144.00       600.27
  134.25        2974.50           1558         125.00       517.44
  134.28        2974.75           1561         106.00       434.62
  134.32        2975.00           1565         117.00       482.57
  134.35        2975.25           1568         105.00       430.26
  134.39        2975.50           1571         109.00       447.70
  134.42        2975.75           1575         112.00       460.77
  134.45        2976.00           1578         102.00       417.18
  134.49        2976.25           1581         110.00       452.05
  134.52        2976.50           1585         108.00       443.34
  134.56        2976.75           1588         118.00       486.93
  134.59        2977.00           1591          99.00       404.10
  134.63        2977.25           1595         105.00       430.26
  134.66        2977.50           1598         104.00       425.90
  134.70        2977.75           1601         119.00       491.29
  134.73        2978.00           1605         114.00       469.49
  134.77        2978.25           1608         102.00       417.18
  134.80        2978.50           1611         112.00       460.77
  134.84        2978.75           1615         108.00       443.34
  134.87        2979.00           1618          98.00       399.74
  134.91        2979.25           1622         104.00       425.90
  134.94        2979.50           1625         111.00       456.41
  134.98        2979.75           1628         102.00       417.18
  135.01        2980.00           1632          97.00       395.38
  135.05        2980.25           1635         110.00       452.05
  135.08        2980.50           1638         106.00       434.62
  135.12        2980.75           1642         100.00       408.46
  135.15        2981.00           1645         107.00       438.98
  135.19        2981.25           1648         107.00       438.98
  135.22        2981.50           1652         110.00       452.05
  135.26        2981.75           1655         109.00       447.70
  135.29        2982.00           1658          96.00       391.02
  135.33        2982.25           1662         106.00       434.62
  135.36        2982.50           1665         106.00       434.62
  135.40        2982.75           1669         103.00       421.54
  135.43        2983.00           1672         108.00       443.34
  135.47        2983.25           1675          99.00       404.10
  135.50        2983.50           1679         103.00       421.54
  135.54        2983.75           1682          98.00       399.74
  135.57        2984.00           1685         102.00       417.18
HS scan finished at 02:15:48
end
************************************************************
  HS Scan of (1) Internal mercury lamp
************************************************************
Integration time is 0.2294 seconds per sample
dh200619inta 37.1 6.733 3.210348pr1000
************************************************************
Dead Time -------------------------  3E-08 
Number of Cycles Used -------------  4 
Starting Wavelength (Angstroms) ---  2950 
Final Wavelength (Angstoms) -------  2984 
Wavelength Increment (Angstroms) --  .25 
Filter Wheel #1 Position ---------- (1) Ground quartz diffuser (ND=2.32)
Filter Wheel #2 Position ---------- (1) Neutral Density 0.494



************************************************************
HS scan start time = 21:50:57
Dark Count =  6 


Time (GMT)  Wavelength (Ang)  Step Number  Raw Counts  Counts/Second

 1311.29        2950.00           1230         118.00       488.24
 1311.37        2950.25           1234         118.00       488.24
 1311.40        2950.50           1237         126.00       523.11
 1311.44        2950.75           1240         123.00       510.03
 1311.47        2951.00           1244         124.00       514.39
 1311.50        2951.25           1247         123.00       510.03
 1311.54        2951.50           1250         123.00       510.03
 1311.57        2951.75           1254         125.00       518.75
 1311.61        2952.00           1257         127.00       527.47
 1311.64        2952.25           1260         117.00       483.88
 1311.68        2952.50           1264         121.00       501.32
 1311.71        2952.75           1267         122.00       505.67
 1311.75        2953.00           1270         124.00       514.39
 1311.78        2953.25           1274         123.00       510.03
 1311.82        2953.50           1277         115.00       475.16
 1311.85        2953.75           1280         128.00       531.83
 1311.89        2954.00           1284         112.00       462.08
 1311.92        2954.25           1287         119.00       492.60
 1311.96        2954.50           1290         117.00       483.88
 1311.99        2954.75           1294         126.00       523.11
 1312.03        2955.00           1297         122.00       505.67
 1312.06        2955.25           1300         120.00       496.96
 1312.10        2955.50           1304         115.00       475.16
 1312.13        2955.75           1307         111.00       457.72
 1312.17        2956.00           1310         116.00       479.52
 1312.20        2956.25           1314         119.00       492.60
 1312.24        2956.50           1317         119.00       492.60
 1312.27        2956.75           1320         116.00       479.52
 1312.31        2957.00           1324         116.00       479.52
 1312.34        2957.25           1327         107.00       440.28
 1312.38        2957.50           1330         116.00       479.52
 1312.41        2957.75           1334         114.00       470.80
 1312.44        2958.00           1337         113.00       466.44
 1312.48        2958.25           1340         116.00       479.52
 1312.51        2958.50           1344         112.00       462.08
 1312.55        2958.75           1347         114.00       470.80
 1312.58        2959.00           1350         115.00       475.16
 1312.62        2959.25           1354         119.00       492.60
 1312.65        2959.50           1357         111.00       457.72
 1312.69        2959.75           1360         116.00       479.52
 1312.72        2960.00           1364         118.00       488.24
 1312.76        2960.25           1367         133.00       553.63
 1312.79        2960.50           1370         149.00       623.38
 1312.83        2960.75           1374         297.00      1268.57
 1312.86        2961.00           1377         750.00      3243.56
 1312.90        2961.25           1380        1732.00      7525.67
 1312.93        2961.50           1384        4387.00     19108.60
 1312.97        2961.75           1387        7060.00     30778.18
 1313.00        2962.00           1391       11569.00     50481.79
 1313.04        2962.25           1394       15389.00     67192.85
 1313.07        2962.50           1397       19516.00     85265.77
 1313.11        2962.75           1401       25341.00    110808.00
 1313.14        2963.00           1404       29840.00    130562.70
 1313.18        2963.25           1407       34187.00    149672.30
 1313.21        2963.50           1411       40377.00    176921.70
 1313.25        2963.75           1414       44896.00    196843.40
 1313.28        2964.00           1417       49666.00    217897.50
 1313.32        2964.25           1421       56420.00    247754.40
 1313.35        2964.50           1424       60655.00    266503.20
 1313.39        2964.75           1427       65711.00    288914.40
 1313.42        2965.00           1431       72023.00    316935.50
 1313.46        2965.25           1434       76418.00    336474.40
 1313.49        2965.50           1437       81300.00    358205.30
 1313.52        2965.75           1441       86684.00    382203.90
 1313.56        2966.00           1444       90943.00    401212.60
 1313.59        2966.25           1447       94528.00    417230.00
 1313.63        2966.50           1451       98045.00    432958.70
 1313.66        2966.75           1454       99981.00    441623.10
 1313.70        2967.00           1457      100699.00    444837.70
 1313.73        2967.25           1461      101589.00    448823.10
 1313.77        2967.50           1464      101345.00    447730.40
 1313.80        2967.75           1467      100150.00    442379.70
 1313.84        2968.00           1471       97533.00    430668.00
 1313.87        2968.25           1474       94523.00    417207.60
 1313.91        2968.50           1477       90706.00    400154.20
 1313.94        2968.75           1481       84889.00    374199.00
 1313.98        2969.00           1484       80588.00    355034.30
 1314.01        2969.25           1487       75783.00    333649.90
 1314.05        2969.50           1491       70091.00    308353.70
 1314.08        2969.75           1494       65573.00    288302.30
 1314.12        2970.00           1498       59833.00    262862.50
 1314.15        2970.25           1501       55078.00    241817.70
 1314.19        2970.50           1504       50711.00    222513.60
 1314.23        2970.75           1508       44626.00    195652.40
 1314.26        2971.00           1511       40123.00    175802.70
 1314.30        2971.25           1514       35326.00    154683.00
 1314.33        2971.50           1518       29280.00    128102.50
 1314.37        2971.75           1521       24347.00    106446.60
 1314.40        2972.00           1524       19271.00     84192.33
 1314.44        2972.25           1528       13226.00     57728.49
 1314.47        2972.50           1531        9254.00     40362.70
 1314.51        2972.75           1534        6154.00     26821.92
 1314.54        2973.00           1538        3083.00     13418.65
 1314.58        2973.25           1541        1546.00      6714.52
 1314.61        2973.50           1544         732.00      3165.08
 1314.65        2973.75           1548         301.00      1286.01
 1314.68        2974.00           1551         185.00       780.31
 1314.72        2974.25           1554         161.00       675.69
 1314.75        2974.50           1558         130.00       540.55
 1314.79        2974.75           1561         119.00       492.60
 1314.82        2975.00           1565         120.00       496.96
 1314.86        2975.25           1568         124.00       514.39
 1314.89        2975.50           1571         117.00       483.88
 1314.92        2975.75           1575         108.00       444.64
 1314.96        2976.00           1578         118.00       488.24
 1314.99        2976.25           1581         109.00       449.00
 1315.03        2976.50           1585         112.00       462.08
 1315.06        2976.75           1588         114.00       470.80
 1315.10        2977.00           1591         106.00       435.93
 1315.13        2977.25           1595         107.00       440.28
 1315.17        2977.50           1598         115.00       475.16
 1315.20        2977.75           1601         105.00       431.57
 1315.24        2978.00           1605         108.00       444.64
 1315.27        2978.25           1608         106.00       435.93
 1315.31        2978.50           1611         108.00       444.64
 1315.34        2978.75           1615         104.00       427.21
 1315.38        2979.00           1618         111.00       457.72
 1315.41        2979.25           1622         103.00       422.85
 1315.45        2979.50           1625         101.00       414.13
 1315.48        2979.75           1628         114.00       470.80
 1315.52        2980.00           1632         105.00       431.57
 1315.55        2980.25           1635          98.00       401.05
 1315.59        2980.50           1638          94.00       383.61
 1315.62        2980.75           1642          97.00       396.69
 1315.66        2981.00           1645          96.00       392.33
 1315.69        2981.25           1648         105.00       431.57
 1315.73        2981.50           1652         104.00       427.21
 1315.76        2981.75           1655          96.00       392.33
 1315.80        2982.00           1658         105.00       431.57
 1315.83        2982.25           1662         105.00       431.57
 1315.87        2982.50           1665         101.00       414.13
 1315.90        2982.75           1669          98.00       401.05
 1315.94        2983.00           1672          95.00       387.97
 1315.97        2983.25           1675         110.00       453.36
 1316.01        2983.50           1679         100.00       409.77
 1316.04        2983.75           1682          98.00       401.05
 1316.08        2984.00           1685         101.00       414.13
HS scan finished at 21:56:19
end
