************************************************************
  HS Scan of (1) Internal mercury lamp
************************************************************
Integration time is 0.2294 seconds per sample
dh220619inta 37.1 6.733 3.240938pr1000
************************************************************
Dead Time -------------------------  3E-08 
Number of Cycles Used -------------  4 
Starting Wavelength (Angstroms) ---  2950 
Final Wavelength (Angstoms) -------  2984 
Wavelength Increment (Angstroms) --  .25 
Filter Wheel #1 Position ---------- (1) Ground quartz diffuser (ND=2.32)
Filter Wheel #2 Position ---------- (1) Neutral Density 0.494



************************************************************
HS scan start time = 02:11:27
Dark Count =  8.5 


Time (GMT)  Wavelength (Ang)  Step Number  Raw Counts  Counts/Second

  131.80        2950.00           1230         122.00       494.78
  131.87        2950.25           1234         120.00       486.06
  131.90        2950.50           1237         118.00       477.34
  131.94        2950.75           1240         119.00       481.70
  131.97        2951.00           1244         120.00       486.06
  132.01        2951.25           1247         120.00       486.06
  132.04        2951.50           1250         120.00       486.06
  132.08        2951.75           1254         119.00       481.70
  132.11        2952.00           1257         106.00       425.03
  132.15        2952.25           1260         114.00       459.90
  132.18        2952.50           1264         112.00       451.18
  132.22        2952.75           1267         114.00       459.90
  132.25        2953.00           1270         109.00       438.11
  132.29        2953.25           1274         119.00       481.70
  132.32        2953.50           1277         125.00       507.85
  132.36        2953.75           1280         121.00       490.42
  132.39        2954.00           1284         117.00       472.98
  132.43        2954.25           1287         126.00       512.21
  132.46        2954.50           1290         105.00       420.67
  132.50        2954.75           1294         115.00       464.26
  132.53        2955.00           1297         114.00       459.90
  132.57        2955.25           1300         112.00       451.18
  132.60        2955.50           1304         118.00       477.34
  132.64        2955.75           1307         114.00       459.90
  132.67        2956.00           1310         120.00       486.06
  132.71        2956.25           1314         121.00       490.42
  132.74        2956.50           1317         119.00       481.70
  132.78        2956.75           1320         122.00       494.78
  132.81        2957.00           1324         110.00       442.46
  132.84        2957.25           1327         105.00       420.67
  132.88        2957.50           1330         119.00       481.70
  132.91        2957.75           1334         111.00       446.82
  132.95        2958.00           1337         114.00       459.90
  132.98        2958.25           1340         123.00       499.14
  133.02        2958.50           1344         117.00       472.98
  133.05        2958.75           1347         114.00       459.90
  133.09        2959.00           1350         116.00       468.62
  133.12        2959.25           1354         124.00       503.49
  133.16        2959.50           1357         108.00       433.75
  133.19        2959.75           1360         115.00       464.26
  133.23        2960.00           1364         118.00       477.34
  133.26        2960.25           1367         135.00       551.45
  133.30        2960.50           1370         144.00       590.68
  133.33        2960.75           1374         299.00      1266.40
  133.37        2961.00           1377         790.00      3407.06
  133.40        2961.25           1380        1738.00      7540.94
  133.44        2961.50           1384        4333.00     18862.02
  133.47        2961.75           1387        7108.00     30976.90
  133.51        2962.00           1391       11621.00     50698.24
  133.54        2962.25           1394       15539.00     67838.43
  133.58        2962.50           1397       19637.00     85785.00
  133.61        2962.75           1401       25590.00    111889.80
  133.64        2963.00           1404       29905.00    130837.30
  133.68        2963.25           1407       34402.00    150607.00
  133.72        2963.50           1411       40467.00    177307.20
  133.75        2963.75           1414       44935.00    197004.40
  133.79        2964.00           1417       49851.00    218703.50
  133.82        2964.25           1421       56508.00    248132.70
  133.85        2964.50           1424       61177.00    268804.50
  133.89        2964.75           1427       65975.00    290074.40
  133.93        2965.00           1431       72539.00    319217.20
  133.96        2965.25           1434       76805.00    338184.90
  134.00        2965.50           1437       81434.00    358791.10
  134.03        2965.75           1441       86975.00    383490.80
  134.07        2966.00           1444       91139.00    402076.70
  134.10        2966.25           1447       94818.00    418515.10
  134.14        2966.50           1451       98475.00    434871.40
  134.17        2966.75           1454      100499.00    443931.10
  134.21        2967.00           1457      101628.00    448986.60
  134.24        2967.25           1461      102167.00    451400.70
  134.28        2967.50           1464      101762.00    449586.80
  134.31        2967.75           1467      100613.00    444441.50
  134.35        2968.00           1471       97692.00    431368.10
  134.38        2968.25           1474       94883.00    418805.70
  134.42        2968.50           1477       90957.00    401263.90
  134.45        2968.75           1481       85159.00    375391.80
  134.49        2969.00           1484       80802.00    355976.20
  134.52        2969.25           1487       76327.00    336058.50
  134.56        2969.50           1491       70339.00    309443.90
  134.59        2969.75           1494       65992.00    290149.80
  134.63        2970.00           1498       59717.00    262337.60
  134.66        2970.25           1501       55222.00    242443.50
  134.70        2970.50           1504       50834.00    223045.90
  134.73        2970.75           1508       44854.00    196647.10
  134.77        2971.00           1511       40357.00    176822.60
  134.80        2971.25           1514       35580.00    155789.60
  134.84        2971.50           1518       29639.00    129668.60
  134.87        2971.75           1521       24233.00    105935.50
  134.91        2972.00           1524       19429.00     84873.63
  134.94        2972.25           1528       13387.00     58421.83
  134.98        2972.50           1531        9314.00     40613.97
  135.01        2972.75           1534        6173.00     26893.96
  135.05        2973.00           1538        3078.00     13385.93
  135.08        2973.25           1541        1564.00      6782.11
  135.12        2973.50           1544         757.00      3263.18
  135.15        2973.75           1548         305.00      1292.55
  135.19        2974.00           1551         186.00       773.78
  135.23        2974.25           1554         143.00       586.32
  135.26        2974.50           1558         133.00       542.73
  135.29        2974.75           1561         125.00       507.85
  135.33        2975.00           1565         116.00       468.62
  135.36        2975.25           1568         107.00       429.39
  135.40        2975.50           1571         106.00       425.03
  135.43        2975.75           1575         105.00       420.67
  135.47        2976.00           1578          99.00       394.51
  135.50        2976.25           1581         104.00       416.31
  135.54        2976.50           1585         109.00       438.11
  135.57        2976.75           1588         110.00       442.46
  135.61        2977.00           1591         107.00       429.39
  135.64        2977.25           1595         111.00       446.82
  135.68        2977.50           1598         107.00       429.39
  135.71        2977.75           1601         103.00       411.95
  135.75        2978.00           1605         100.00       398.87
  135.78        2978.25           1608         117.00       472.98
  135.82        2978.50           1611         111.00       446.82
  135.85        2978.75           1615         100.00       398.87
  135.89        2979.00           1618         102.00       407.59
  135.92        2979.25           1622         108.00       433.75
  135.96        2979.50           1625         110.00       442.46
  135.99        2979.75           1628         104.00       416.31
  136.03        2980.00           1632          96.00       381.43
  136.06        2980.25           1635         111.00       446.82
  136.10        2980.50           1638         112.00       451.18
  136.13        2980.75           1642         102.00       407.59
  136.17        2981.00           1645         105.00       420.67
  136.20        2981.25           1648         106.00       425.03
  136.24        2981.50           1652         102.00       407.59
  136.27        2981.75           1655          98.00       390.15
  136.31        2982.00           1658         112.00       451.18
  136.34        2982.25           1662          96.00       381.43
  136.38        2982.50           1665          99.00       394.51
  136.41        2982.75           1669         102.00       407.59
  136.44        2983.00           1672         101.00       403.23
  136.48        2983.25           1675         102.00       407.59
  136.51        2983.50           1679         102.00       407.59
  136.55        2983.75           1682          98.00       390.15
  136.58        2984.00           1685         101.00       403.23
HS scan finished at 02:16:49
end
************************************************************
  HS Scan of (1) Internal mercury lamp
************************************************************
Integration time is 0.2294 seconds per sample
dh220619inta 37.1 6.733 3.210348pr1000
************************************************************
Dead Time -------------------------  3E-08 
Number of Cycles Used -------------  4 
Starting Wavelength (Angstroms) ---  2950 
Final Wavelength (Angstoms) -------  2984 
Wavelength Increment (Angstroms) --  .25 
Filter Wheel #1 Position ---------- (1) Ground quartz diffuser (ND=2.32)
Filter Wheel #2 Position ---------- (1) Neutral Density 0.494



************************************************************
HS scan start time = 21:50:54
Dark Count =  4.5 


Time (GMT)  Wavelength (Ang)  Step Number  Raw Counts  Counts/Second

 1311.24        2950.00           1230         112.00       468.62
 1311.32        2950.25           1234         128.00       538.37
 1311.35        2950.50           1237         124.00       520.93
 1311.39        2950.75           1240         134.00       564.53
 1311.42        2951.00           1244         120.00       503.49
 1311.46        2951.25           1247         126.00       529.65
 1311.49        2951.50           1250         119.00       499.14
 1311.53        2951.75           1254         127.00       534.01
 1311.56        2952.00           1257         118.00       494.78
 1311.59        2952.25           1260         117.00       490.42
 1311.63        2952.50           1264         121.00       507.85
 1311.67        2952.75           1267         127.00       534.01
 1311.70        2953.00           1270         124.00       520.93
 1311.74        2953.25           1274         120.00       503.49
 1311.77        2953.50           1277         120.00       503.49
 1311.81        2953.75           1280         119.00       499.14
 1311.84        2954.00           1284         120.00       503.49
 1311.88        2954.25           1287         119.00       499.14
 1311.91        2954.50           1290         120.00       503.49
 1311.95        2954.75           1294         114.00       477.34
 1311.98        2955.00           1297         108.00       451.18
 1312.02        2955.25           1300         121.00       507.85
 1312.05        2955.50           1304         130.00       547.09
 1312.09        2955.75           1307         121.00       507.85
 1312.12        2956.00           1310         120.00       503.49
 1312.16        2956.25           1314         113.00       472.98
 1312.19        2956.50           1317         124.00       520.93
 1312.23        2956.75           1320         109.00       455.54
 1312.26        2957.00           1324         124.00       520.93
 1312.30        2957.25           1327         118.00       494.78
 1312.33        2957.50           1330         123.00       516.57
 1312.37        2957.75           1334         120.00       503.49
 1312.40        2958.00           1337         112.00       468.62
 1312.44        2958.25           1340         115.00       481.70
 1312.47        2958.50           1344         123.00       516.57
 1312.51        2958.75           1347         120.00       503.49
 1312.54        2959.00           1350         120.00       503.49
 1312.58        2959.25           1354         114.00       477.34
 1312.61        2959.50           1357         117.00       490.42
 1312.65        2959.75           1360         121.00       507.85
 1312.68        2960.00           1364         140.00       590.68
 1312.72        2960.25           1367         136.00       573.24
 1312.75        2960.50           1370         148.00       625.56
 1312.79        2960.75           1374         292.00      1253.32
 1312.82        2961.00           1377         778.00      3372.18
 1312.86        2961.25           1380        1718.00      7471.16
 1312.89        2961.50           1384        4196.00     18281.60
 1312.93        2961.75           1387        6977.00     30422.26
 1312.96        2962.00           1391       11395.00     49727.57
 1313.00        2962.25           1394       15293.00     66779.25
 1313.03        2962.50           1397       19312.00     84378.52
 1313.07        2962.75           1401       24973.00    109199.80
 1313.10        2963.00           1404       29182.00    127678.60
 1313.14        2963.25           1407       33851.00    148201.00
 1313.17        2963.50           1411       39880.00    174738.80
 1313.21        2963.75           1414       44188.00    193727.30
 1313.24        2964.00           1417       48810.00    214123.90
 1313.28        2964.25           1421       55560.00    243956.30
 1313.31        2964.50           1424       60119.00    264135.70
 1313.35        2964.75           1427       64798.00    284871.80
 1313.38        2965.00           1431       71209.00    313325.90
 1313.42        2965.25           1434       75735.00    333443.10
 1313.45        2965.50           1437       79952.00    352209.00
 1313.49        2965.75           1441       85755.00    378067.20
 1313.52        2966.00           1444       89636.00    395383.50
 1313.56        2966.25           1447       93207.00    411332.80
 1313.59        2966.50           1451       96801.00    427400.20
 1313.63        2966.75           1454       98859.00    436607.80
 1313.66        2967.00           1457       99833.00    440967.30
 1313.70        2967.25           1461      100472.00    443828.00
 1313.73        2967.50           1464       99975.00    441603.00
 1313.77        2967.75           1467       99062.00    437516.30
 1313.80        2968.00           1471       96520.00    426143.40
 1313.84        2968.25           1474       93432.00    412338.20
 1313.87        2968.50           1477       89614.00    395285.40
 1313.91        2968.75           1481       83883.00    369721.10
 1313.94        2969.00           1484       79747.00    351296.20
 1313.98        2969.25           1487       75296.00    331490.80
 1314.01        2969.50           1491       69939.00    307685.40
 1314.05        2969.75           1494       64972.00    285643.50
 1314.08        2970.00           1498       58898.00    258728.90
 1314.12        2970.25           1501       54524.00    239374.10
 1314.15        2970.50           1504       50194.00    220236.30
 1314.19        2970.75           1508       44429.00    194790.20
 1314.22        2971.00           1511       39778.00    174289.50
 1314.26        2971.25           1514       35005.00    153277.30
 1314.29        2971.50           1518       29293.00    128166.20
 1314.33        2971.75           1521       24057.00    105181.00
 1314.36        2972.00           1524       19091.00     83410.28
 1314.40        2972.25           1528       13354.00     58294.97
 1314.43        2972.50           1531        9165.00     39980.35
 1314.47        2972.75           1534        6091.00     26553.40
 1314.50        2973.00           1538        3083.00     13425.20
 1314.54        2973.25           1541        1558.00      6773.39
 1314.57        2973.50           1544         784.00      3398.34
 1314.61        2973.75           1548         310.00      1331.79
 1314.64        2974.00           1551         189.00       804.29
 1314.68        2974.25           1554         158.00       669.15
 1314.71        2974.50           1558         130.00       547.09
 1314.75        2974.75           1561         114.00       477.34
 1314.78        2975.00           1565         117.00       490.42
 1314.82        2975.25           1568         105.00       438.11
 1314.85        2975.50           1571         115.00       481.70
 1314.89        2975.75           1575         111.00       464.26
 1314.92        2976.00           1578         113.00       472.98
 1314.96        2976.25           1581         101.00       420.67
 1314.99        2976.50           1585         108.00       451.18
 1315.03        2976.75           1588         119.00       499.14
 1315.06        2977.00           1591         115.00       481.70
 1315.10        2977.25           1595         105.00       438.11
 1315.13        2977.50           1598         103.00       429.39
 1315.17        2977.75           1601         106.00       442.46
 1315.20        2978.00           1605          97.00       403.23
 1315.24        2978.25           1608         112.00       468.62
 1315.27        2978.50           1611         110.00       459.90
 1315.31        2978.75           1615         111.00       464.26
 1315.34        2979.00           1618          98.00       407.59
 1315.38        2979.25           1622         107.00       446.82
 1315.41        2979.50           1625         108.00       451.18
 1315.45        2979.75           1628         104.00       433.75
 1315.48        2980.00           1632         104.00       433.75
 1315.52        2980.25           1635         103.00       429.39
 1315.55        2980.50           1638         105.00       438.11
 1315.59        2980.75           1642         113.00       472.98
 1315.62        2981.00           1645         107.00       446.82
 1315.66        2981.25           1648         107.00       446.82
 1315.70        2981.50           1652         102.00       425.03
 1315.73        2981.75           1655         105.00       438.11
 1315.76        2982.00           1658         101.00       420.67
 1315.80        2982.25           1662         103.00       429.39
 1315.83        2982.50           1665          99.00       411.95
 1315.87        2982.75           1669          97.00       403.23
 1315.90        2983.00           1672          95.00       394.51
 1315.94        2983.25           1675          83.00       342.20
 1315.97        2983.50           1679         103.00       429.39
 1316.01        2983.75           1682         104.00       433.75
 1316.04        2984.00           1685          92.00       381.43
HS scan finished at 21:56:17
end
