************************************************************
  HS Scan of (1) Internal mercury lamp
************************************************************
Integration time is 0.2294 seconds per sample
dh240619inta 37.1 6.733 3.200152pr1000
************************************************************
Dead Time -------------------------  3E-08 
Number of Cycles Used -------------  4 
Starting Wavelength (Angstroms) ---  2950 
Final Wavelength (Angstoms) -------  2984 
Wavelength Increment (Angstroms) --  .25 
Filter Wheel #1 Position ---------- (1) Ground quartz diffuser (ND=2.32)
Filter Wheel #2 Position ---------- (1) Neutral Density 0.494



************************************************************
HS scan start time = 02:11:34
Dark Count =  6.7 


Time (GMT)  Wavelength (Ang)  Step Number  Raw Counts  Counts/Second

  131.91        2950.00           1230         124.00       511.34
  131.99        2950.25           1234         132.00       546.22
  132.02        2950.50           1237         112.00       459.03
  132.05        2950.75           1240         109.00       445.95
  132.09        2951.00           1244         135.00       559.29
  132.13        2951.25           1247         121.00       498.26
  132.16        2951.50           1250         121.00       498.26
  132.20        2951.75           1254         119.00       489.55
  132.23        2952.00           1257         117.00       480.83
  132.27        2952.25           1260         122.00       502.62
  132.30        2952.50           1264         126.00       520.06
  132.34        2952.75           1267         108.00       441.59
  132.37        2953.00           1270         115.00       472.11
  132.41        2953.25           1274         122.00       502.62
  132.44        2953.50           1277         123.00       506.98
  132.48        2953.75           1280         130.00       537.50
  132.51        2954.00           1284         117.00       480.83
  132.55        2954.25           1287         112.00       459.03
  132.58        2954.50           1290         112.00       459.03
  132.62        2954.75           1294         123.00       506.98
  132.65        2955.00           1297         113.00       463.39
  132.69        2955.25           1300         122.00       502.62
  132.72        2955.50           1304         124.00       511.34
  132.76        2955.75           1307         113.00       463.39
  132.79        2956.00           1310         122.00       502.62
  132.83        2956.25           1314         123.00       506.98
  132.86        2956.50           1317         112.00       459.03
  132.90        2956.75           1320         110.00       450.31
  132.93        2957.00           1324         122.00       502.62
  132.97        2957.25           1327         109.00       445.95
  133.00        2957.50           1330         119.00       489.55
  133.04        2957.75           1334         116.00       476.47
  133.07        2958.00           1337         115.00       472.11
  133.10        2958.25           1340         113.00       463.39
  133.14        2958.50           1344         116.00       476.47
  133.17        2958.75           1347         129.00       533.14
  133.21        2959.00           1350         115.00       472.11
  133.25        2959.25           1354         119.00       489.55
  133.28        2959.50           1357         110.00       450.31
  133.32        2959.75           1360         114.00       467.75
  133.35        2960.00           1364         118.00       485.19
  133.39        2960.25           1367         124.00       511.34
  133.42        2960.50           1370         145.00       602.89
  133.46        2960.75           1374         296.00      1261.16
  133.49        2961.00           1377         773.00      3340.79
  133.53        2961.25           1380        1729.00      7509.54
  133.56        2961.50           1384        4317.00     18800.05
  133.60        2961.75           1387        7021.00     30604.81
  133.63        2962.00           1391       11476.00     50072.11
  133.67        2962.25           1394       15259.00     66620.82
  133.70        2962.50           1397       19429.00     84881.52
  133.74        2962.75           1401       24946.00    109071.60
  133.77        2963.00           1404       29328.00    128310.30
  133.81        2963.25           1407       33838.00    148134.20
  133.84        2963.50           1411       40025.00    175367.90
  133.88        2963.75           1414       44402.00    194661.40
  133.91        2964.00           1417       49144.00    215589.10
  133.95        2964.25           1421       55489.00    243632.50
  133.98        2964.50           1424       60290.00    264883.40
  134.02        2964.75           1427       64984.00    285687.00
  134.05        2965.00           1431       71206.00    313302.80
  134.09        2965.25           1434       75975.00    334500.70
  134.12        2965.50           1437       80279.00    353655.20
  134.15        2965.75           1441       86074.00    379480.00
  134.19        2966.00           1444       90032.00    397141.60
  134.23        2966.25           1447       93526.00    412748.40
  134.26        2966.50           1451       97160.00    428996.20
  134.30        2966.75           1454       98970.00    437094.70
  134.33        2967.00           1457      100041.00    441888.60
  134.36        2967.25           1461      100734.00    444991.20
  134.40        2967.50           1464       99964.00    441543.90
  134.43        2967.75           1467       98872.00    436656.10
  134.47        2968.00           1471       96331.00    425288.30
  134.50        2968.25           1474       93183.00    411215.70
  134.54        2968.50           1477       89555.00    395012.10
  134.57        2968.75           1481       84079.00    370584.90
  134.61        2969.00           1484       79710.00    351121.60
  134.64        2969.25           1487       74899.00    329715.60
  134.68        2969.50           1491       69443.00    305473.20
  134.71        2969.75           1494       65453.00    287767.00
  134.75        2970.00           1498       59081.00    259529.40
  134.78        2970.25           1501       54867.00    240881.30
  134.82        2970.50           1504       50175.00    220142.70
  134.85        2970.75           1508       44364.00    194493.80
  134.89        2971.00           1511       39830.00    174508.80
  134.92        2971.25           1514       35266.00    154416.00
  134.96        2971.50           1518       28848.00    126201.80
  134.99        2971.75           1521       23821.00    104136.10
  135.03        2972.00           1524       18919.00     82647.12
  135.07        2972.25           1528       13139.00     57344.85
  135.10        2972.50           1531        9115.00     39752.26
  135.14        2972.75           1534        6080.00     26495.77
  135.17        2973.00           1538        3064.00     13332.71
  135.20        2973.25           1541        1570.00      6816.13
  135.24        2973.50           1544         757.00      3271.03
  135.28        2973.75           1548         288.00      1226.29
  135.31        2974.00           1551         188.00       790.34
  135.35        2974.25           1554         146.00       607.25
  135.38        2974.50           1558         140.00       581.09
  135.42        2974.75           1561         129.00       533.14
  135.45        2975.00           1565         115.00       472.11
  135.48        2975.25           1568         119.00       489.55
  135.52        2975.50           1571         111.00       454.67
  135.55        2975.75           1575         112.00       459.03
  135.59        2976.00           1578         110.00       450.31
  135.62        2976.25           1581         112.00       459.03
  135.66        2976.50           1585         113.00       463.39
  135.69        2976.75           1588          96.00       389.28
  135.73        2977.00           1591         111.00       454.67
  135.77        2977.25           1595         116.00       476.47
  135.80        2977.50           1598          93.00       376.20
  135.84        2977.75           1601         101.00       411.08
  135.87        2978.00           1605         112.00       459.03
  135.90        2978.25           1608         103.00       419.80
  135.94        2978.50           1611         111.00       454.67
  135.97        2978.75           1615         102.00       415.44
  136.01        2979.00           1618         108.00       441.59
  136.04        2979.25           1622         112.00       459.03
  136.08        2979.50           1625         115.00       472.11
  136.11        2979.75           1628         102.00       415.44
  136.15        2980.00           1632         101.00       411.08
  136.19        2980.25           1635         102.00       415.44
  136.22        2980.50           1638         110.00       450.31
  136.26        2980.75           1642         110.00       450.31
  136.29        2981.00           1645         108.00       441.59
  136.33        2981.25           1648         101.00       411.08
  136.36        2981.50           1652          98.00       398.00
  136.39        2981.75           1655          98.00       398.00
  136.43        2982.00           1658          98.00       398.00
  136.47        2982.25           1662         107.00       437.23
  136.50        2982.50           1665         108.00       441.59
  136.53        2982.75           1669         105.00       428.51
  136.57        2983.00           1672         110.00       450.31
  136.60        2983.25           1675         103.00       419.80
  136.64        2983.50           1679         102.00       415.44
  136.68        2983.75           1682         104.00       424.16
  136.71        2984.00           1685         107.00       437.23
HS scan finished at 02:16:56
end
************************************************************
  HS Scan of (1) Internal mercury lamp
************************************************************
Integration time is 0.2294 seconds per sample
dh240619inta 37.1 6.733 3.240938pr1000
************************************************************
Dead Time -------------------------  3E-08 
Number of Cycles Used -------------  4 
Starting Wavelength (Angstroms) ---  2950 
Final Wavelength (Angstoms) -------  2984 
Wavelength Increment (Angstroms) --  .25 
Filter Wheel #1 Position ---------- (1) Ground quartz diffuser (ND=2.32)
Filter Wheel #2 Position ---------- (1) Neutral Density 0.494



************************************************************
HS scan start time = 21:03:23
Dark Count =  6.5 


Time (GMT)  Wavelength (Ang)  Step Number  Raw Counts  Counts/Second

 1263.73        2950.00           1230         127.00       525.29
 1263.80        2950.25           1234         129.00       534.01
 1263.84        2950.50           1237         122.00       503.49
 1263.88        2950.75           1240         120.00       494.78
 1263.91        2951.00           1244         123.00       507.85
 1263.94        2951.25           1247         140.00       581.96
 1263.98        2951.50           1250         132.00       547.09
 1264.01        2951.75           1254         117.00       481.70
 1264.05        2952.00           1257         116.00       477.34
 1264.08        2952.25           1260         134.00       555.81
 1264.12        2952.50           1264         123.00       507.85
 1264.15        2952.75           1267         129.00       534.01
 1264.19        2953.00           1270         109.00       446.82
 1264.22        2953.25           1274         131.00       542.73
 1264.26        2953.50           1277         116.00       477.34
 1264.29        2953.75           1280         118.00       486.06
 1264.33        2954.00           1284         116.00       477.34
 1264.36        2954.25           1287         118.00       486.06
 1264.39        2954.50           1290         126.00       520.93
 1264.43        2954.75           1294         131.00       542.73
 1264.47        2955.00           1297         115.00       472.98
 1264.50        2955.25           1300         113.00       464.26
 1264.53        2955.50           1304         118.00       486.06
 1264.57        2955.75           1307         113.00       464.26
 1264.60        2956.00           1310         131.00       542.73
 1264.64        2956.25           1314         122.00       503.49
 1264.67        2956.50           1317         117.00       481.70
 1264.71        2956.75           1320         135.00       560.17
 1264.74        2957.00           1324         126.00       520.93
 1264.78        2957.25           1327         109.00       446.82
 1264.81        2957.50           1330         113.00       464.26
 1264.85        2957.75           1334         123.00       507.85
 1264.88        2958.00           1337         106.00       433.75
 1264.92        2958.25           1340         117.00       481.70
 1264.95        2958.50           1344         111.00       455.54
 1264.98        2958.75           1347         115.00       472.98
 1265.02        2959.00           1350         110.00       451.18
 1265.05        2959.25           1354         117.00       481.70
 1265.09        2959.50           1357         108.00       442.46
 1265.12        2959.75           1360         127.00       525.29
 1265.16        2960.00           1364         132.00       547.09
 1265.19        2960.25           1367         126.00       520.93
 1265.23        2960.50           1370         154.00       642.99
 1265.26        2960.75           1374         315.00      1344.87
 1265.30        2961.00           1377         788.00      3407.06
 1265.33        2961.25           1380        1853.00      8051.20
 1265.37        2961.50           1384        4376.00     19058.41
 1265.40        2961.75           1387        7163.00     31225.83
 1265.44        2962.00           1391       11527.00     50295.97
 1265.47        2962.25           1394       15168.00     66223.42
 1265.51        2962.50           1397       19333.00     84461.78
 1265.54        2962.75           1401       24691.00    107953.70
 1265.58        2963.00           1404       29046.00    127072.40
 1265.61        2963.25           1407       33512.00    146701.30
 1265.65        2963.50           1411       39412.00    172668.50
 1265.68        2963.75           1414       43638.00    191293.00
 1265.72        2964.00           1417       48330.00    211995.70
 1265.75        2964.25           1421       54685.00    240077.30
 1265.79        2964.50           1424       58808.00    258321.50
 1265.82        2964.75           1427       63439.00    278837.60
 1265.86        2965.00           1431       69766.00    306908.30
 1265.89        2965.25           1434       74016.00    325790.70
 1265.93        2965.50           1437       78467.00    345589.30
 1265.96        2965.75           1441       83784.00    369271.00
 1266.00        2966.00           1444       87746.00    386939.50
 1266.03        2966.25           1447       91053.00    401701.50
 1266.07        2966.50           1451       94641.00    417732.80
 1266.10        2966.75           1454       96779.00    427292.80
 1266.14        2967.00           1457       97519.00    430603.00
 1266.18        2967.25           1461       98244.00    433846.80
 1266.21        2967.50           1464       97511.00    430567.30
 1266.24        2967.75           1467       96658.00    426751.70
 1266.28        2968.00           1471       93941.00    414604.00
 1266.31        2968.25           1474       90826.00    400687.90
 1266.35        2968.50           1477       87432.00    385538.50
 1266.39        2968.75           1481       81861.00    360702.10
 1266.42        2969.00           1484       77314.00    340458.40
 1266.45        2969.25           1487       72886.00    320768.10
 1266.49        2969.50           1491       67690.00    297692.60
 1266.52        2969.75           1494       63185.00    277711.70
 1266.56        2970.00           1498       57421.00    252181.80
 1266.59        2970.25           1501       53410.00    234439.50
 1266.63        2970.50           1504       48924.00    214618.50
 1266.66        2970.75           1508       43409.00    190283.20
 1266.70        2971.00           1511       38574.00    168977.80
 1266.73        2971.25           1514       33924.00    148513.30
 1266.77        2971.50           1518       27914.00    122100.80
 1266.80        2971.75           1521       23079.00    100882.40
 1266.84        2972.00           1524       18469.00     80676.71
 1266.87        2972.25           1528       12534.00     54699.53
 1266.91        2972.50           1531        8770.00     38245.69
 1266.94        2972.75           1534        5805.00     25296.00
 1266.98        2973.00           1538        2913.00     12674.83
 1267.01        2973.25           1541        1539.00      6681.81
 1267.05        2973.50           1544         749.00      3237.02
 1267.08        2973.75           1548         312.00      1331.79
 1267.12        2974.00           1551         189.00       795.57
 1267.15        2974.25           1554         138.00       573.24
 1267.19        2974.50           1558         134.00       555.81
 1267.22        2974.75           1561         131.00       542.73
 1267.25        2975.00           1565         117.00       481.70
 1267.29        2975.25           1568         117.00       481.70
 1267.33        2975.50           1571         118.00       486.06
 1267.36        2975.75           1575         107.00       438.11
 1267.39        2976.00           1578         109.00       446.82
 1267.43        2976.25           1581         110.00       451.18
 1267.46        2976.50           1585         110.00       451.18
 1267.50        2976.75           1588         110.00       451.18
 1267.53        2977.00           1591         105.00       429.39
 1267.57        2977.25           1595         101.00       411.95
 1267.60        2977.50           1598         105.00       429.39
 1267.64        2977.75           1601         104.00       425.03
 1267.67        2978.00           1605         111.00       455.54
 1267.71        2978.25           1608         112.00       459.90
 1267.74        2978.50           1611         103.00       420.67
 1267.78        2978.75           1615          97.00       394.51
 1267.81        2979.00           1618          99.00       403.23
 1267.85        2979.25           1622         101.00       411.95
 1267.88        2979.50           1625         103.00       420.67
 1267.92        2979.75           1628         101.00       411.95
 1267.95        2980.00           1632         104.00       425.03
 1267.99        2980.25           1635         115.00       472.98
 1268.02        2980.50           1638          98.00       398.87
 1268.06        2980.75           1642         107.00       438.11
 1268.09        2981.00           1645         109.00       446.82
 1268.13        2981.25           1648         104.00       425.03
 1268.16        2981.50           1652         101.00       411.95
 1268.20        2981.75           1655         108.00       442.46
 1268.23        2982.00           1658         104.00       425.03
 1268.27        2982.25           1662         108.00       442.46
 1268.30        2982.50           1665          95.00       385.79
 1268.34        2982.75           1669          96.00       390.15
 1268.37        2983.00           1672          98.00       398.87
 1268.41        2983.25           1675          94.00       381.43
 1268.44        2983.50           1679         100.00       407.59
 1268.48        2983.75           1682          94.00       381.43
 1268.51        2984.00           1685         104.00       425.03
HS scan finished at 21:08:45
end
