************************************************************
  HS Scan of (1) Internal mercury lamp
************************************************************
Integration time is 0.2294 seconds per sample
dh210619inta 37.1 6.733 3.169562pr1000
************************************************************
Dead Time -------------------------  3E-08 
Number of Cycles Used -------------  4 
Starting Wavelength (Angstroms) ---  2950 
Final Wavelength (Angstoms) -------  2984 
Wavelength Increment (Angstroms) --  .25 
Filter Wheel #1 Position ---------- (1) Ground quartz diffuser (ND=2.32)
Filter Wheel #2 Position ---------- (1) Neutral Density 0.494



************************************************************
HS scan start time = 02:10:28
Dark Count =  9.1 


Time (GMT)  Wavelength (Ang)  Step Number  Raw Counts  Counts/Second

  130.81        2950.00           1230         118.00       474.72
  130.88        2950.25           1234         132.00       535.75
  130.92        2950.50           1237         127.00       513.96
  130.95        2950.75           1240         120.00       483.44
  130.99        2951.00           1244         134.00       544.47
  131.02        2951.25           1247         119.00       479.08
  131.06        2951.50           1250         112.00       448.57
  131.09        2951.75           1254         133.00       540.11
  131.13        2952.00           1257         118.00       474.72
  131.16        2952.25           1260         127.00       513.96
  131.20        2952.50           1264         119.00       479.08
  131.23        2952.75           1267         116.00       466.00
  131.27        2953.00           1270         115.00       461.65
  131.30        2953.25           1274         123.00       496.52
  131.34        2953.50           1277         126.00       509.60
  131.37        2953.75           1280         133.00       540.11
  131.41        2954.00           1284         132.00       535.75
  131.44        2954.25           1287         116.00       466.00
  131.48        2954.50           1290         119.00       479.08
  131.51        2954.75           1294         117.00       470.36
  131.55        2955.00           1297         114.00       457.29
  131.58        2955.25           1300         122.00       492.16
  131.62        2955.50           1304         118.00       474.72
  131.66        2955.75           1307         120.00       483.44
  131.69        2956.00           1310         123.00       496.52
  131.73        2956.25           1314         107.00       426.77
  131.76        2956.50           1317         117.00       470.36
  131.80        2956.75           1320         124.00       500.88
  131.83        2957.00           1324         115.00       461.65
  131.87        2957.25           1327         113.00       452.93
  131.90        2957.50           1330         122.00       492.16
  131.94        2957.75           1334         126.00       509.60
  131.97        2958.00           1337         140.00       570.63
  132.00        2958.25           1340         116.00       466.00
  132.04        2958.50           1344         126.00       509.60
  132.07        2958.75           1347         110.00       439.85
  132.11        2959.00           1350         122.00       492.16
  132.14        2959.25           1354         125.00       505.24
  132.18        2959.50           1357         116.00       466.00
  132.21        2959.75           1360         120.00       483.44
  132.25        2960.00           1364         122.00       492.16
  132.28        2960.25           1367         137.00       557.55
  132.32        2960.50           1370         143.00       583.71
  132.35        2960.75           1374         272.00      1146.07
  132.39        2961.00           1377         730.00      3142.84
  132.43        2961.25           1380        1661.00      7202.51
  132.46        2961.50           1384        3956.00     17214.20
  132.50        2961.75           1387        6688.00     29140.11
  132.53        2962.00           1391       11164.00     48697.51
  132.57        2962.25           1394       15063.00     65752.49
  132.60        2962.50           1397       19322.00     84402.19
  132.64        2962.75           1401       24711.00    108030.00
  132.67        2963.00           1404       29031.00    126995.10
  132.71        2963.25           1407       33602.00    147085.70
  132.74        2963.50           1411       39485.00    172978.60
  132.78        2963.75           1414       43985.00    192811.70
  132.81        2964.00           1417       48851.00    214284.60
  132.85        2964.25           1421       55141.00    242082.60
  132.88        2964.50           1424       59777.00    262600.80
  132.92        2964.75           1427       64643.00    284164.10
  132.95        2965.00           1431       70816.00    311559.80
  132.99        2965.25           1434       75408.00    331968.30
  133.03        2965.50           1437       79893.00    351925.70
  133.06        2965.75           1441       85369.00    376325.30
  133.09        2966.00           1444       89352.00    394095.20
  133.13        2966.25           1447       92881.00    409855.60
  133.17        2966.50           1451       96348.00    425353.60
  133.20        2966.75           1454       98214.00    433700.90
  133.24        2967.00           1457       99010.00    437263.00
  133.27        2967.25           1461       99738.00    440521.50
  133.31        2967.50           1464       99309.00    438601.20
  133.34        2967.75           1467       97934.00    432448.20
  133.37        2968.00           1471       95102.00    419782.10
  133.41        2968.25           1474       91912.00    405526.50
  133.44        2968.50           1477       88649.00    390957.50
  133.48        2968.75           1481       83293.00    367071.00
  133.52        2969.00           1484       78819.00    347144.50
  133.55        2969.25           1487       74175.00    326486.00
  133.59        2969.50           1491       68302.00    300397.30
  133.62        2969.75           1494       64213.00    282257.40
  133.66        2970.00           1498       58278.00    255963.60
  133.69        2970.25           1501       54124.00    237584.90
  133.73        2970.50           1504       49554.00    217389.20
  133.76        2970.75           1508       43741.00    191735.70
  133.80        2971.00           1511       39122.00    171379.70
  133.83        2971.25           1514       34700.00    151915.20
  133.87        2971.50           1518       28454.00    124460.80
  133.90        2971.75           1521       23368.00    102138.50
  133.94        2972.00           1524       18853.00     82347.47
  133.97        2972.25           1528       13217.00     57675.55
  134.01        2972.50           1531        9261.00     40379.76
  134.04        2972.75           1534        6235.00     27162.05
  134.08        2973.00           1538        3195.00     13893.76
  134.11        2973.25           1541        1644.00      7128.38
  134.15        2973.50           1544         768.00      3308.52
  134.18        2973.75           1548         313.00      1324.81
  134.22        2974.00           1551         185.00       766.80
  134.25        2974.25           1554         154.00       631.66
  134.29        2974.50           1558         144.00       588.07
  134.32        2974.75           1561         131.00       531.39
  134.36        2975.00           1565         111.00       444.21
  134.39        2975.25           1568         134.00       544.47
  134.43        2975.50           1571         106.00       422.41
  134.46        2975.75           1575         111.00       444.21
  134.50        2976.00           1578         113.00       452.93
  134.53        2976.25           1581         116.00       466.00
  134.57        2976.50           1585         111.00       444.21
  134.60        2976.75           1588         114.00       457.29
  134.64        2977.00           1591         107.00       426.77
  134.67        2977.25           1595         105.00       418.05
  134.71        2977.50           1598         115.00       461.65
  134.74        2977.75           1601         110.00       439.85
  134.78        2978.00           1605         107.00       426.77
  134.81        2978.25           1608         105.00       418.05
  134.85        2978.50           1611         108.00       431.13
  134.88        2978.75           1615         103.00       409.33
  134.92        2979.00           1618         119.00       479.08
  134.95        2979.25           1622         104.00       413.69
  134.99        2979.50           1625         110.00       439.85
  135.02        2979.75           1628         116.00       466.00
  135.06        2980.00           1632         110.00       439.85
  135.10        2980.25           1635         101.00       400.62
  135.13        2980.50           1638         106.00       422.41
  135.16        2980.75           1642          97.00       383.18
  135.20        2981.00           1645          96.00       378.82
  135.23        2981.25           1648         102.00       404.97
  135.27        2981.50           1652         101.00       400.62
  135.31        2981.75           1655         108.00       431.13
  135.34        2982.00           1658          97.00       383.18
  135.38        2982.25           1662         109.00       435.49
  135.41        2982.50           1665          97.00       383.18
  135.45        2982.75           1669         100.00       396.26
  135.48        2983.00           1672         108.00       431.13
  135.52        2983.25           1675         102.00       404.97
  135.55        2983.50           1679         101.00       400.62
  135.59        2983.75           1682          99.00       391.90
  135.62        2984.00           1685          91.00       357.02
HS scan finished at 02:15:51
end
************************************************************
  HS Scan of (1) Internal mercury lamp
************************************************************
Integration time is 0.2294 seconds per sample
dh210619inta 37.1 6.733 3.215447pr1000
************************************************************
Dead Time -------------------------  3E-08 
Number of Cycles Used -------------  4 
Starting Wavelength (Angstroms) ---  2950 
Final Wavelength (Angstoms) -------  2984 
Wavelength Increment (Angstroms) --  .25 
Filter Wheel #1 Position ---------- (1) Ground quartz diffuser (ND=2.32)
Filter Wheel #2 Position ---------- (1) Neutral Density 0.494



************************************************************
HS scan start time = 21:50:56
Dark Count =  5.2 


Time (GMT)  Wavelength (Ang)  Step Number  Raw Counts  Counts/Second

 1311.28        2950.00           1230         109.00       452.49
 1311.35        2950.25           1234         124.00       517.88
 1311.39        2950.50           1237         117.00       487.37
 1311.42        2950.75           1240         124.00       517.88
 1311.46        2951.00           1244         109.00       452.49
 1311.49        2951.25           1247         106.00       439.41
 1311.53        2951.50           1250         121.00       504.80
 1311.56        2951.75           1254         121.00       504.80
 1311.60        2952.00           1257         119.00       496.08
 1311.63        2952.25           1260         118.00       491.72
 1311.67        2952.50           1264         108.00       448.13
 1311.70        2952.75           1267         127.00       530.96
 1311.74        2953.00           1270         118.00       491.72
 1311.77        2953.25           1274         116.00       483.01
 1311.81        2953.50           1277         114.00       474.29
 1311.84        2953.75           1280         116.00       483.01
 1311.88        2954.00           1284         115.00       478.65
 1311.91        2954.25           1287         119.00       496.08
 1311.95        2954.50           1290         116.00       483.01
 1311.98        2954.75           1294         116.00       483.01
 1312.02        2955.00           1297         110.00       456.85
 1312.05        2955.25           1300         120.00       500.44
 1312.09        2955.50           1304         124.00       517.88
 1312.12        2955.75           1307         112.00       465.57
 1312.15        2956.00           1310         120.00       500.44
 1312.19        2956.25           1314         122.00       509.16
 1312.22        2956.50           1317         114.00       474.29
 1312.26        2956.75           1320         113.00       469.93
 1312.29        2957.00           1324         121.00       504.80
 1312.33        2957.25           1327         114.00       474.29
 1312.36        2957.50           1330         110.00       456.85
 1312.40        2957.75           1334         119.00       496.08
 1312.43        2958.00           1337         113.00       469.93
 1312.47        2958.25           1340         120.00       500.44
 1312.50        2958.50           1344         119.00       496.08
 1312.54        2958.75           1347         115.00       478.65
 1312.57        2959.00           1350         109.00       452.49
 1312.61        2959.25           1354         110.00       456.85
 1312.64        2959.50           1357         118.00       491.72
 1312.68        2959.75           1360         122.00       509.16
 1312.71        2960.00           1364         131.00       548.40
 1312.75        2960.25           1367         118.00       491.72
 1312.78        2960.50           1370         144.00       605.07
 1312.82        2960.75           1374         269.00      1150.00
 1312.85        2961.00           1377         743.00      3216.53
 1312.89        2961.25           1380        1750.00      7607.66
 1312.92        2961.50           1384        4214.00     18357.10
 1312.95        2961.75           1387        6899.00     30078.57
 1312.99        2962.00           1391       11411.00     49794.47
 1313.03        2962.25           1394       15374.00     67130.70
 1313.06        2962.50           1397       19796.00     86496.16
 1313.09        2962.75           1401       25424.00    111175.80
 1313.13        2963.00           1404       30018.00    131348.30
 1313.17        2963.25           1407       34463.00    150889.90
 1313.20        2963.50           1411       40393.00    176995.70
 1313.24        2963.75           1414       44910.00    196908.70
 1313.27        2964.00           1417       49787.00    218435.50
 1313.30        2964.25           1421       56104.00    246359.90
 1313.34        2964.50           1424       60689.00    266657.40
 1313.37        2964.75           1427       65514.00    288044.20
 1313.41        2965.00           1431       72277.00    318067.60
 1313.44        2965.25           1434       76889.00    338573.20
 1313.48        2965.50           1437       81635.00    359701.00
 1313.52        2965.75           1441       87277.00    384852.80
 1313.55        2966.00           1444       91115.00    401984.20
 1313.59        2966.25           1447       94672.00    417877.30
 1313.62        2966.50           1451       98039.00    432935.40
 1313.65        2966.75           1454      100173.00    442486.20
 1313.69        2967.00           1457      101484.00    448356.50
 1313.73        2967.25           1461      101721.00    449417.90
 1313.76        2967.50           1464      101264.00    447371.20
 1313.80        2967.75           1467       99996.00    441693.80
 1313.83        2968.00           1471       96631.00    426636.70
 1313.87        2968.25           1474       94091.00    415280.30
 1313.90        2968.50           1477       90070.00    397318.00
 1313.94        2968.75           1481       84427.00    372142.90
 1313.97        2969.00           1484       80070.00    352731.20
 1314.01        2969.25           1487       75528.00    332519.30
 1314.04        2969.50           1491       69574.00    306061.50
 1314.08        2969.75           1494       65174.00    286536.30
 1314.11        2970.00           1498       59331.00    260643.00
 1314.15        2970.25           1501       54943.00    241224.10
 1314.18        2970.50           1504       50273.00    220582.20
 1314.22        2970.75           1508       44366.00    194509.20
 1314.25        2971.00           1511       39321.00    172273.40
 1314.29        2971.25           1514       34857.00    152623.10
 1314.32        2971.50           1518       28826.00    126111.80
 1314.36        2971.75           1521       23912.00    104541.80
 1314.39        2972.00           1524       19184.00     83814.66
 1314.43        2972.25           1528       13092.00     57145.83
 1314.46        2972.50           1531        9169.00     39994.77
 1314.50        2972.75           1534        5969.00     26017.68
 1314.53        2973.00           1538        3048.00     13269.45
 1314.56        2973.25           1541        1622.00      7049.44
 1314.60        2973.50           1544         763.00      3303.73
 1314.63        2973.75           1548         310.00      1328.74
 1314.67        2974.00           1551         192.00       814.32
 1314.71        2974.25           1554         146.00       613.79
 1314.74        2974.50           1558         126.00       526.60
 1314.77        2974.75           1561         121.00       504.80
 1314.81        2975.00           1565         114.00       474.29
 1314.84        2975.25           1568         105.00       435.05
 1314.88        2975.50           1571         117.00       487.37
 1314.91        2975.75           1575         106.00       439.41
 1314.95        2976.00           1578         102.00       421.98
 1314.98        2976.25           1581          99.00       408.90
 1315.02        2976.50           1585         101.00       417.62
 1315.05        2976.75           1588         105.00       435.05
 1315.09        2977.00           1591         110.00       456.85
 1315.12        2977.25           1595         109.00       452.49
 1315.16        2977.50           1598         110.00       456.85
 1315.19        2977.75           1601          98.00       404.54
 1315.23        2978.00           1605         108.00       448.13
 1315.26        2978.25           1608         110.00       456.85
 1315.30        2978.50           1611         108.00       448.13
 1315.33        2978.75           1615         106.00       439.41
 1315.37        2979.00           1618         104.00       430.69
 1315.40        2979.25           1622         114.00       474.29
 1315.44        2979.50           1625          95.00       391.46
 1315.47        2979.75           1628         104.00       430.69
 1315.51        2980.00           1632         111.00       461.21
 1315.54        2980.25           1635          99.00       408.90
 1315.58        2980.50           1638         106.00       439.41
 1315.61        2980.75           1642         113.00       469.93
 1315.65        2981.00           1645         110.00       456.85
 1315.68        2981.25           1648         106.00       439.41
 1315.72        2981.50           1652          89.00       365.30
 1315.75        2981.75           1655         102.00       421.98
 1315.79        2982.00           1658         101.00       417.62
 1315.82        2982.25           1662         104.00       430.69
 1315.86        2982.50           1665          87.00       356.59
 1315.89        2982.75           1669         104.00       430.69
 1315.93        2983.00           1672         108.00       448.13
 1315.96        2983.25           1675          97.00       400.18
 1316.00        2983.50           1679         105.00       435.05
 1316.03        2983.75           1682         104.00       430.69
 1316.07        2984.00           1685         104.00       430.69
HS scan finished at 21:56:18
end
