************************************************************
  HS Scan of (1) Internal mercury lamp
************************************************************
Integration time is 0.2294 seconds per sample
dh270619inta 37.1 6.733 3.189955pr1000
************************************************************
Dead Time -------------------------  3E-08 
Number of Cycles Used -------------  4 
Starting Wavelength (Angstroms) ---  2950 
Final Wavelength (Angstoms) -------  2984 
Wavelength Increment (Angstroms) --  .25 
Filter Wheel #1 Position ---------- (1) Ground quartz diffuser (ND=2.32)
Filter Wheel #2 Position ---------- (1) Neutral Density 0.494



************************************************************
HS scan start time = 02:15:08
Dark Count =  7.7 


Time (GMT)  Wavelength (Ang)  Step Number  Raw Counts  Counts/Second

  135.48        2950.00           1230         121.00       493.90
  135.55        2950.25           1234         121.00       493.90
  135.59        2950.50           1237         132.00       541.86
  135.62        2950.75           1240         130.00       533.14
  135.66        2951.00           1244         122.00       498.26
  135.69        2951.25           1247         122.00       498.26
  135.73        2951.50           1250         119.00       485.19
  135.76        2951.75           1254         124.00       506.98
  135.80        2952.00           1257         125.00       511.34
  135.83        2952.25           1260         129.00       528.78
  135.87        2952.50           1264         112.00       454.67
  135.90        2952.75           1267         134.00       550.58
  135.93        2953.00           1270         129.00       528.78
  135.97        2953.25           1274         123.00       502.62
  136.00        2953.50           1277         105.00       424.16
  136.04        2953.75           1280         117.00       476.47
  136.07        2954.00           1284         129.00       528.78
  136.11        2954.25           1287         122.00       498.26
  136.14        2954.50           1290         121.00       493.90
  136.18        2954.75           1294         118.00       480.83
  136.21        2955.00           1297         116.00       472.11
  136.25        2955.25           1300         124.00       506.98
  136.28        2955.50           1304         115.00       467.75
  136.32        2955.75           1307         119.00       485.19
  136.35        2956.00           1310         121.00       493.90
  136.39        2956.25           1314         131.00       537.50
  136.42        2956.50           1317         114.00       463.39
  136.46        2956.75           1320         122.00       498.26
  136.49        2957.00           1324         117.00       476.47
  136.53        2957.25           1327         122.00       498.26
  136.56        2957.50           1330         113.00       459.03
  136.60        2957.75           1334         121.00       493.90
  136.63        2958.00           1337         113.00       459.03
  136.67        2958.25           1340         115.00       467.75
  136.70        2958.50           1344         132.00       541.86
  136.74        2958.75           1347         117.00       476.47
  136.77        2959.00           1350         117.00       476.47
  136.81        2959.25           1354         118.00       480.83
  136.84        2959.50           1357         119.00       485.19
  136.88        2959.75           1360         128.00       524.42
  136.91        2960.00           1364         132.00       541.86
  136.95        2960.25           1367         137.00       563.65
  136.98        2960.50           1370         152.00       629.04
  137.02        2960.75           1374         289.00      1226.29
  137.05        2961.00           1377         740.00      3192.55
  137.09        2961.25           1380        1782.00      7736.32
  137.12        2961.50           1384        4222.00     18381.10
  137.16        2961.75           1387        6604.00     28779.41
  137.19        2962.00           1391       10962.00     47820.51
  137.23        2962.25           1394       14839.00     64778.33
  137.26        2962.50           1397       18841.00     82301.03
  137.30        2962.75           1401       24168.00    105653.90
  137.33        2963.00           1404       28597.00    125095.00
  137.37        2963.25           1407       33012.00    144497.30
  137.40        2963.50           1411       38639.00    169258.70
  137.44        2963.75           1414       42926.00    188148.40
  137.47        2964.00           1417       47388.00    207831.90
  137.51        2964.25           1421       53547.00    235039.90
  137.54        2964.50           1424       57720.00    253499.90
  137.57        2964.75           1427       62304.00    273801.70
  137.61        2965.00           1431       68742.00    302356.60
  137.64        2965.25           1434       73182.00    322078.30
  137.68        2965.50           1437       77423.00    340938.00
  137.72        2965.75           1441       83045.00    365972.10
  137.75        2966.00           1444       87049.00    383824.50
  137.78        2966.25           1447       90032.00    397137.20
  137.82        2966.50           1451       93610.00    413119.30
  137.85        2966.75           1454       95112.00    419833.10
  137.89        2967.00           1457       96551.00    426267.70
  137.92        2967.25           1461       96945.00    428030.00
  137.96        2967.50           1464       96573.00    426366.10
  137.99        2967.75           1467       95833.00    423056.80
  138.03        2968.00           1471       92560.00    408427.60
  138.06        2968.25           1474       90202.00    397896.10
  138.10        2968.50           1477       86372.00    380804.70
  138.13        2968.75           1481       81154.00    357547.50
  138.17        2969.00           1484       76712.00    337774.60
  138.20        2969.25           1487       72474.00    318931.90
  138.24        2969.50           1491       66710.00    293338.60
  138.27        2969.75           1494       62562.00    274945.10
  138.31        2970.00           1498       56819.00    249512.40
  138.34        2970.25           1501       52661.00    231123.20
  138.38        2970.50           1504       48447.00    212506.90
  138.41        2970.75           1508       42302.00    185397.50
  138.45        2971.00           1511       38191.00    167286.00
  138.48        2971.25           1514       33393.00    146172.70
  138.52        2971.50           1518       27236.00    119118.50
  138.55        2971.75           1521       22561.00     98605.55
  138.59        2972.00           1524       18027.00     78735.45
  138.62        2972.25           1528       12414.00     54169.47
  138.66        2972.50           1531        8759.00     38192.38
  138.69        2972.75           1534        5590.00     24352.13
  138.73        2973.00           1538        2831.00     12311.87
  138.76        2973.25           1541        1493.00      6475.97
  138.80        2973.50           1544         729.00      3144.59
  138.83        2973.75           1548         291.00      1235.01
  138.87        2974.00           1551         181.00       755.47
  138.90        2974.25           1554         148.00       611.61
  138.94        2974.50           1558         135.00       554.94
  138.97        2974.75           1561         129.00       528.78
  139.01        2975.00           1565         118.00       480.83
  139.04        2975.25           1568         103.00       415.44
  139.08        2975.50           1571         117.00       476.47
  139.11        2975.75           1575         109.00       441.59
  139.15        2976.00           1578         107.00       432.87
  139.18        2976.25           1581         109.00       441.59
  139.22        2976.50           1585         120.00       489.55
  139.25        2976.75           1588         127.00       520.06
  139.28        2977.00           1591         103.00       415.44
  139.32        2977.25           1595          99.00       398.00
  139.35        2977.50           1598         107.00       432.87
  139.39        2977.75           1601         106.00       428.51
  139.42        2978.00           1605         111.00       450.31
  139.46        2978.25           1608         110.00       445.95
  139.49        2978.50           1611         108.00       437.23
  139.53        2978.75           1615         114.00       463.39
  139.56        2979.00           1618          96.00       384.92
  139.60        2979.25           1622         104.00       419.80
  139.63        2979.50           1625         116.00       472.11
  139.67        2979.75           1628         100.00       402.36
  139.70        2980.00           1632         109.00       441.59
  139.73        2980.25           1635          97.00       389.28
  139.77        2980.50           1638         107.00       432.87
  139.80        2980.75           1642          86.00       341.33
  139.84        2981.00           1645         100.00       402.36
  139.87        2981.25           1648         109.00       441.59
  139.91        2981.50           1652         105.00       424.16
  139.94        2981.75           1655          97.00       389.28
  139.98        2982.00           1658         109.00       441.59
  140.01        2982.25           1662         101.00       406.72
  140.05        2982.50           1665          96.00       384.92
  140.08        2982.75           1669          94.00       376.20
  140.12        2983.00           1672         104.00       419.80
  140.15        2983.25           1675         108.00       437.23
  140.19        2983.50           1679         102.00       411.08
  140.22        2983.75           1682         101.00       406.72
  140.25        2984.00           1685         102.00       411.08
HS scan finished at 02:20:29
end
