************************************************************
  HS Scan of (1) Internal mercury lamp
************************************************************
Integration time is 0.2294 seconds per sample
dh240619inta 37.1 6.733 3.200152pr1000
************************************************************
Dead Time -------------------------  3E-08 
Number of Cycles Used -------------  4 
Starting Wavelength (Angstroms) ---  2950 
Final Wavelength (Angstoms) -------  2984 
Wavelength Increment (Angstroms) --  .25 
Filter Wheel #1 Position ---------- (1) Ground quartz diffuser (ND=2.32)
Filter Wheel #2 Position ---------- (1) Neutral Density 0.494



************************************************************
HS scan start time = 02:11:34
Dark Count =  6.7 


Time (GMT)  Wavelength (Ang)  Step Number  Raw Counts  Counts/Second

  131.91        2950.00           1230         124.00       511.34
  131.99        2950.25           1234         132.00       546.22
  132.02        2950.50           1237         112.00       459.03
  132.05        2950.75           1240         109.00       445.95
  132.09        2951.00           1244         135.00       559.29
  132.13        2951.25           1247         121.00       498.26
  132.16        2951.50           1250         121.00       498.26
  132.20        2951.75           1254         119.00       489.55
  132.23        2952.00           1257         117.00       480.83
  132.27        2952.25           1260         122.00       502.62
  132.30        2952.50           1264         126.00       520.06
  132.34        2952.75           1267         108.00       441.59
  132.37        2953.00           1270         115.00       472.11
  132.41        2953.25           1274         122.00       502.62
  132.44        2953.50           1277         123.00       506.98
  132.48        2953.75           1280         130.00       537.50
  132.51        2954.00           1284         117.00       480.83
  132.55        2954.25           1287         112.00       459.03
  132.58        2954.50           1290         112.00       459.03
  132.62        2954.75           1294         123.00       506.98
  132.65        2955.00           1297         113.00       463.39
  132.69        2955.25           1300         122.00       502.62
  132.72        2955.50           1304         124.00       511.34
  132.76        2955.75           1307         113.00       463.39
  132.79        2956.00           1310         122.00       502.62
  132.83        2956.25           1314         123.00       506.98
  132.86        2956.50           1317         112.00       459.03
  132.90        2956.75           1320         110.00       450.31
  132.93        2957.00           1324         122.00       502.62
  132.97        2957.25           1327         109.00       445.95
  133.00        2957.50           1330         119.00       489.55
  133.04        2957.75           1334         116.00       476.47
  133.07        2958.00           1337         115.00       472.11
  133.10        2958.25           1340         113.00       463.39
  133.14        2958.50           1344         116.00       476.47
  133.17        2958.75           1347         129.00       533.14
  133.21        2959.00           1350         115.00       472.11
  133.25        2959.25           1354         119.00       489.55
  133.28        2959.50           1357         110.00       450.31
  133.32        2959.75           1360         114.00       467.75
  133.35        2960.00           1364         118.00       485.19
  133.39        2960.25           1367         124.00       511.34
  133.42        2960.50           1370         145.00       602.89
  133.46        2960.75           1374         296.00      1261.16
  133.49        2961.00           1377         773.00      3340.79
  133.53        2961.25           1380        1729.00      7509.54
  133.56        2961.50           1384        4317.00     18800.05
  133.60        2961.75           1387        7021.00     30604.81
  133.63        2962.00           1391       11476.00     50072.11
  133.67        2962.25           1394       15259.00     66620.82
  133.70        2962.50           1397       19429.00     84881.52
  133.74        2962.75           1401       24946.00    109071.60
  133.77        2963.00           1404       29328.00    128310.30
  133.81        2963.25           1407       33838.00    148134.20
  133.84        2963.50           1411       40025.00    175367.90
  133.88        2963.75           1414       44402.00    194661.40
  133.91        2964.00           1417       49144.00    215589.10
  133.95        2964.25           1421       55489.00    243632.50
  133.98        2964.50           1424       60290.00    264883.40
  134.02        2964.75           1427       64984.00    285687.00
  134.05        2965.00           1431       71206.00    313302.80
  134.09        2965.25           1434       75975.00    334500.70
  134.12        2965.50           1437       80279.00    353655.20
  134.15        2965.75           1441       86074.00    379480.00
  134.19        2966.00           1444       90032.00    397141.60
  134.23        2966.25           1447       93526.00    412748.40
  134.26        2966.50           1451       97160.00    428996.20
  134.30        2966.75           1454       98970.00    437094.70
  134.33        2967.00           1457      100041.00    441888.60
  134.36        2967.25           1461      100734.00    444991.20
  134.40        2967.50           1464       99964.00    441543.90
  134.43        2967.75           1467       98872.00    436656.10
  134.47        2968.00           1471       96331.00    425288.30
  134.50        2968.25           1474       93183.00    411215.70
  134.54        2968.50           1477       89555.00    395012.10
  134.57        2968.75           1481       84079.00    370584.90
  134.61        2969.00           1484       79710.00    351121.60
  134.64        2969.25           1487       74899.00    329715.60
  134.68        2969.50           1491       69443.00    305473.20
  134.71        2969.75           1494       65453.00    287767.00
  134.75        2970.00           1498       59081.00    259529.40
  134.78        2970.25           1501       54867.00    240881.30
  134.82        2970.50           1504       50175.00    220142.70
  134.85        2970.75           1508       44364.00    194493.80
  134.89        2971.00           1511       39830.00    174508.80
  134.92        2971.25           1514       35266.00    154416.00
  134.96        2971.50           1518       28848.00    126201.80
  134.99        2971.75           1521       23821.00    104136.10
  135.03        2972.00           1524       18919.00     82647.12
  135.07        2972.25           1528       13139.00     57344.85
  135.10        2972.50           1531        9115.00     39752.26
  135.14        2972.75           1534        6080.00     26495.77
  135.17        2973.00           1538        3064.00     13332.71
  135.20        2973.25           1541        1570.00      6816.13
  135.24        2973.50           1544         757.00      3271.03
  135.28        2973.75           1548         288.00      1226.29
  135.31        2974.00           1551         188.00       790.34
  135.35        2974.25           1554         146.00       607.25
  135.38        2974.50           1558         140.00       581.09
  135.42        2974.75           1561         129.00       533.14
  135.45        2975.00           1565         115.00       472.11
  135.48        2975.25           1568         119.00       489.55
  135.52        2975.50           1571         111.00       454.67
  135.55        2975.75           1575         112.00       459.03
  135.59        2976.00           1578         110.00       450.31
  135.62        2976.25           1581         112.00       459.03
  135.66        2976.50           1585         113.00       463.39
  135.69        2976.75           1588          96.00       389.28
  135.73        2977.00           1591         111.00       454.67
  135.77        2977.25           1595         116.00       476.47
  135.80        2977.50           1598          93.00       376.20
  135.84        2977.75           1601         101.00       411.08
  135.87        2978.00           1605         112.00       459.03
  135.90        2978.25           1608         103.00       419.80
  135.94        2978.50           1611         111.00       454.67
  135.97        2978.75           1615         102.00       415.44
  136.01        2979.00           1618         108.00       441.59
  136.04        2979.25           1622         112.00       459.03
  136.08        2979.50           1625         115.00       472.11
  136.11        2979.75           1628         102.00       415.44
  136.15        2980.00           1632         101.00       411.08
  136.19        2980.25           1635         102.00       415.44
  136.22        2980.50           1638         110.00       450.31
  136.26        2980.75           1642         110.00       450.31
  136.29        2981.00           1645         108.00       441.59
  136.33        2981.25           1648         101.00       411.08
  136.36        2981.50           1652          98.00       398.00
  136.39        2981.75           1655          98.00       398.00
  136.43        2982.00           1658          98.00       398.00
  136.47        2982.25           1662         107.00       437.23
  136.50        2982.50           1665         108.00       441.59
  136.53        2982.75           1669         105.00       428.51
  136.57        2983.00           1672         110.00       450.31
  136.60        2983.25           1675         103.00       419.80
  136.64        2983.50           1679         102.00       415.44
  136.68        2983.75           1682         104.00       424.16
  136.71        2984.00           1685         107.00       437.23
HS scan finished at 02:16:56
end
