************************************************************
  HS Scan of (1) Internal mercury lamp
************************************************************
Integration time is 0.2294 seconds per sample
dh250619inta 37.1 6.733 3.20525pr1000
************************************************************
Dead Time -------------------------  3E-08 
Number of Cycles Used -------------  4 
Starting Wavelength (Angstroms) ---  2950 
Final Wavelength (Angstoms) -------  2984 
Wavelength Increment (Angstroms) --  .25 
Filter Wheel #1 Position ---------- (1) Ground quartz diffuser (ND=2.32)
Filter Wheel #2 Position ---------- (1) Neutral Density 0.494



************************************************************
HS scan start time = 03:24:43
Dark Count =  4.4 


Time (GMT)  Wavelength (Ang)  Step Number  Raw Counts  Counts/Second

  205.07        2950.00           1230         120.00       503.93
  205.14        2950.25           1234         115.00       482.13
  205.17        2950.50           1237         127.00       534.45
  205.21        2950.75           1240         128.00       538.81
  205.24        2951.00           1244         122.00       512.65
  205.28        2951.25           1247         128.00       538.81
  205.31        2951.50           1250         118.00       495.21
  205.35        2951.75           1254         134.00       564.96
  205.38        2952.00           1257         128.00       538.81
  205.41        2952.25           1260         107.00       447.26
  205.45        2952.50           1264         125.00       525.73
  205.48        2952.75           1267         130.00       547.52
  205.52        2953.00           1270         130.00       547.52
  205.55        2953.25           1274         108.00       451.62
  205.59        2953.50           1277         112.00       469.06
  205.62        2953.75           1280         129.00       543.16
  205.65        2954.00           1284         118.00       495.21
  205.69        2954.25           1287         123.00       517.01
  205.72        2954.50           1290         120.00       503.93
  205.76        2954.75           1294         114.00       477.77
  205.79        2955.00           1297         131.00       551.88
  205.83        2955.25           1300         113.00       473.42
  205.86        2955.50           1304         118.00       495.21
  205.89        2955.75           1307         120.00       503.93
  205.93        2956.00           1310         116.00       486.49
  205.96        2956.25           1314         111.00       464.70
  206.00        2956.50           1317         131.00       551.88
  206.03        2956.75           1320         111.00       464.70
  206.07        2957.00           1324         132.00       556.24
  206.10        2957.25           1327         112.00       469.06
  206.14        2957.50           1330         112.00       469.06
  206.17        2957.75           1334         106.00       442.90
  206.20        2958.00           1337         119.00       499.57
  206.24        2958.25           1340         115.00       482.13
  206.27        2958.50           1344         121.00       508.29
  206.31        2958.75           1347         123.00       517.01
  206.34        2959.00           1350         116.00       486.49
  206.38        2959.25           1354         112.00       469.06
  206.41        2959.50           1357         125.00       525.73
  206.44        2959.75           1360         118.00       495.21
  206.48        2960.00           1364         126.00       530.09
  206.51        2960.25           1367         131.00       551.88
  206.55        2960.50           1370         145.00       612.91
  206.58        2960.75           1374         289.00      1240.67
  206.62        2961.00           1377         757.00      3281.05
  206.65        2961.25           1380        1716.00      7462.87
  206.68        2961.50           1384        4054.00     17662.36
  206.72        2961.75           1387        6802.00     29658.46
  206.75        2962.00           1391       11383.00     49675.55
  206.79        2962.25           1394       15357.00     67059.79
  206.82        2962.50           1397       19193.00     83857.60
  206.86        2962.75           1401       24512.00    107177.50
  206.89        2963.00           1404       29076.00    127213.40
  206.93        2963.25           1407       33345.00    145976.10
  206.96        2963.50           1411       39149.00    171519.30
  207.00        2963.75           1414       43701.00    191580.00
  207.03        2964.00           1417       48318.00    211952.00
  207.07        2964.25           1421       54719.00    240236.90
  207.10        2964.50           1424       59183.00    259991.20
  207.14        2964.75           1427       64099.00    281772.90
  207.17        2965.00           1431       70160.00    308667.20
  207.20        2965.25           1434       74419.00    327591.70
  207.24        2965.50           1437       78870.00    347392.40
  207.27        2965.75           1441       84495.00    372449.60
  207.31        2966.00           1444       88181.00    388890.00
  207.34        2966.25           1447       91765.00    404890.90
  207.38        2966.50           1451       94973.00    419226.40
  207.41        2966.75           1454       96757.00    427203.90
  207.45        2967.00           1457       97757.00    431677.20
  207.48        2967.25           1461       98188.00    433605.60
  207.52        2967.50           1464       97717.00    431498.20
  207.55        2967.75           1467       96620.00    426591.10
  207.59        2968.00           1471       93425.00    412307.40
  207.62        2968.25           1474       90453.00    399031.60
  207.66        2968.50           1477       87230.00    384646.70
  207.69        2968.75           1481       81810.00    360484.20
  207.73        2969.00           1484       77472.00    341170.70
  207.76        2969.25           1487       73086.00    321666.30
  207.80        2969.50           1491       67336.00    296130.90
  207.83        2969.75           1494       63040.00    277078.20
  207.87        2970.00           1498       57204.00    251230.80
  207.90        2970.25           1501       52981.00    232552.30
  207.94        2970.50           1504       48467.00    212609.90
  207.97        2970.75           1508       42945.00    188246.60
  208.01        2971.00           1511       38227.00    167459.10
  208.04        2971.25           1514       33953.00    148650.10
  208.08        2971.50           1518       27675.00    121060.50
  208.11        2971.75           1521       23002.00    100554.00
  208.15        2972.00           1524       18420.00     80471.26
  208.18        2972.25           1528       12746.00     55635.94
  208.22        2972.50           1531        8861.00     38652.46
  208.25        2972.75           1534        5876.00     25615.14
  208.29        2973.00           1538        3016.00     13133.33
  208.32        2973.25           1541        1541.00      6699.69
  208.35        2973.50           1544         726.00      3145.89
  208.39        2973.75           1548         296.00      1271.19
  208.42        2974.00           1551         188.00       800.37
  208.46        2974.25           1554         150.00       634.71
  208.49        2974.50           1558         133.00       560.60
  208.53        2974.75           1561         130.00       547.52
  208.56        2975.00           1565         122.00       512.65
  208.59        2975.25           1568         126.00       530.09
  208.63        2975.50           1571         106.00       442.90
  208.66        2975.75           1575         113.00       473.42
  208.70        2976.00           1578         105.00       438.54
  208.73        2976.25           1581         112.00       469.06
  208.77        2976.50           1585         108.00       451.62
  208.80        2976.75           1588         116.00       486.49
  208.84        2977.00           1591         118.00       495.21
  208.87        2977.25           1595         118.00       495.21
  208.91        2977.50           1598         114.00       477.77
  208.94        2977.75           1601         111.00       464.70
  208.98        2978.00           1605         103.00       429.82
  209.01        2978.25           1608         110.00       460.34
  209.05        2978.50           1611         107.00       447.26
  209.08        2978.75           1615         112.00       469.06
  209.11        2979.00           1618         114.00       477.77
  209.15        2979.25           1622         103.00       429.82
  209.18        2979.50           1625         112.00       469.06
  209.22        2979.75           1628         114.00       477.77
  209.25        2980.00           1632          95.00       394.95
  209.29        2980.25           1635         118.00       495.21
  209.32        2980.50           1638          94.00       390.59
  209.36        2980.75           1642         108.00       451.62
  209.39        2981.00           1645         108.00       451.62
  209.42        2981.25           1648         101.00       421.10
  209.46        2981.50           1652         112.00       469.06
  209.49        2981.75           1655         102.00       425.46
  209.53        2982.00           1658         114.00       477.77
  209.56        2982.25           1662         103.00       429.82
  209.60        2982.50           1665         102.00       425.46
  209.63        2982.75           1669         103.00       429.82
  209.67        2983.00           1672          90.00       373.15
  209.70        2983.25           1675         100.00       416.74
  209.74        2983.50           1679          97.00       403.67
  209.77        2983.75           1682         110.00       460.34
  209.80        2984.00           1685          97.00       403.67
HS scan finished at 03:30:02
end
************************************************************
  HS Scan of (1) Internal mercury lamp
************************************************************
Integration time is 0.2294 seconds per sample
dh250619inta 37.1 6.733 3.230741pr1000
************************************************************
Dead Time -------------------------  3E-08 
Number of Cycles Used -------------  4 
Starting Wavelength (Angstroms) ---  2950 
Final Wavelength (Angstoms) -------  2984 
Wavelength Increment (Angstroms) --  .25 
Filter Wheel #1 Position ---------- (1) Ground quartz diffuser (ND=2.32)
Filter Wheel #2 Position ---------- (1) Neutral Density 0.494



************************************************************
HS scan start time = 21:03:22
Dark Count =  6.4 


Time (GMT)  Wavelength (Ang)  Step Number  Raw Counts  Counts/Second

 1263.71        2950.00           1230         119.00       490.85
 1263.78        2950.25           1234         121.00       499.57
 1263.81        2950.50           1237         125.00       517.01
 1263.84        2950.75           1240         117.00       482.13
 1263.88        2951.00           1244         124.00       512.65
 1263.91        2951.25           1247         123.00       508.29
 1263.95        2951.50           1250         133.00       551.88
 1263.98        2951.75           1254         117.00       482.13
 1264.02        2952.00           1257         116.00       477.77
 1264.05        2952.25           1260         111.00       455.98
 1264.08        2952.50           1264         122.00       503.93
 1264.12        2952.75           1267         123.00       508.29
 1264.15        2953.00           1270         118.00       486.49
 1264.19        2953.25           1274         124.00       512.65
 1264.22        2953.50           1277         119.00       490.85
 1264.26        2953.75           1280         121.00       499.57
 1264.29        2954.00           1284         120.00       495.21
 1264.33        2954.25           1287         125.00       517.01
 1264.36        2954.50           1290         111.00       455.98
 1264.39        2954.75           1294         118.00       486.49
 1264.43        2955.00           1297         128.00       530.09
 1264.46        2955.25           1300         129.00       534.45
 1264.50        2955.50           1304         118.00       486.49
 1264.53        2955.75           1307         125.00       517.01
 1264.57        2956.00           1310         117.00       482.13
 1264.60        2956.25           1314         117.00       482.13
 1264.64        2956.50           1317         122.00       503.93
 1264.67        2956.75           1320         118.00       486.49
 1264.71        2957.00           1324         111.00       455.98
 1264.74        2957.25           1327         112.00       460.34
 1264.78        2957.50           1330         105.00       429.82
 1264.81        2957.75           1334         116.00       477.77
 1264.84        2958.00           1337         110.00       451.62
 1264.88        2958.25           1340         106.00       434.18
 1264.91        2958.50           1344         131.00       543.16
 1264.95        2958.75           1347         110.00       451.62
 1264.98        2959.00           1350         120.00       495.21
 1265.02        2959.25           1354         116.00       477.77
 1265.05        2959.50           1357         118.00       486.49
 1265.09        2959.75           1360         116.00       477.77
 1265.12        2960.00           1364         139.00       578.04
 1265.16        2960.25           1367         131.00       543.16
 1265.19        2960.50           1370         150.00       625.99
 1265.23        2960.75           1374         310.00      1323.50
 1265.26        2961.00           1377         786.00      3398.78
 1265.30        2961.25           1380        1750.00      7602.43
 1265.33        2961.50           1384        4131.00     17989.65
 1265.37        2961.75           1387        6799.00     29636.62
 1265.40        2962.00           1391       11196.00     48849.21
 1265.44        2962.25           1394       14996.00     65471.10
 1265.47        2962.50           1397       19031.00     83139.10
 1265.50        2962.75           1401       24589.00    107506.60
 1265.54        2963.00           1404       28955.00    126673.10
 1265.57        2963.25           1407       33587.00    147031.60
 1265.61        2963.50           1411       39365.00    172461.90
 1265.64        2963.75           1414       43708.00    191602.10
 1265.68        2964.00           1417       48202.00    211431.00
 1265.71        2964.25           1421       54946.00    241232.10
 1265.75        2964.50           1424       59120.00    259703.40
 1265.78        2964.75           1427       63810.00    280482.70
 1265.82        2965.00           1431       69884.00    307432.70
 1265.85        2965.25           1434       74446.00    327702.80
 1265.89        2965.50           1437       78815.00    347138.70
 1265.92        2965.75           1441       84173.00    371005.30
 1265.96        2966.00           1444       88353.00    389648.50
 1265.99        2966.25           1447       91813.00    405096.40
 1266.02        2966.50           1451       95113.00    419843.30
 1266.06        2966.75           1454       96882.00    427754.00
 1266.09        2967.00           1457       97893.00    432276.80
 1266.13        2967.25           1461       98617.00    435516.30
 1266.16        2967.50           1464       97616.00    431037.50
 1266.20        2967.75           1467       97228.00    429301.80
 1266.23        2968.00           1471       94110.00    415359.80
 1266.27        2968.25           1474       91310.00    402849.70
 1266.30        2968.50           1477       87718.00    386815.10
 1266.34        2968.75           1481       81854.00    360671.40
 1266.38        2969.00           1484       77236.00    340111.80
 1266.41        2969.25           1487       72899.00    320826.40
 1266.44        2969.50           1491       67133.00    295221.30
 1266.48        2969.75           1494       63032.00    277034.00
 1266.51        2970.00           1498       57256.00    251452.00
 1266.55        2970.25           1501       53124.00    233175.60
 1266.58        2970.50           1504       48564.00    213029.30
 1266.62        2970.75           1508       42740.00    187334.10
 1266.65        2971.00           1511       38332.00    167912.60
 1266.69        2971.25           1514       33600.00    147088.80
 1266.72        2971.50           1518       27342.00    119589.60
 1266.76        2971.75           1521       22678.00     99124.31
 1266.79        2972.00           1524       18049.00     78837.49
 1266.83        2972.25           1528       12390.00     54070.20
 1266.86        2972.50           1531        8599.00     37499.01
 1266.90        2972.75           1534        5818.00     25353.19
 1266.93        2973.00           1538        2873.00     12500.76
 1266.97        2973.25           1541        1509.00      6551.42
 1267.00        2973.50           1544         758.00      3276.69
 1267.04        2973.75           1548         290.00      1236.31
 1267.07        2974.00           1551         174.00       730.62
 1267.10        2974.25           1554         147.00       612.91
 1267.14        2974.50           1558         134.00       556.24
 1267.18        2974.75           1561         125.00       517.01
 1267.21        2975.00           1565         116.00       477.77
 1267.24        2975.25           1568         124.00       512.65
 1267.28        2975.50           1571         113.00       464.70
 1267.31        2975.75           1575         115.00       473.42
 1267.35        2976.00           1578         108.00       442.90
 1267.38        2976.25           1581         108.00       442.90
 1267.42        2976.50           1585         105.00       429.82
 1267.45        2976.75           1588         104.00       425.46
 1267.49        2977.00           1591         109.00       447.26
 1267.52        2977.25           1595         112.00       460.34
 1267.56        2977.50           1598         100.00       408.03
 1267.59        2977.75           1601         107.00       438.54
 1267.63        2978.00           1605          97.00       394.95
 1267.66        2978.25           1608         114.00       469.06
 1267.70        2978.50           1611         112.00       460.34
 1267.73        2978.75           1615         108.00       442.90
 1267.76        2979.00           1618         109.00       447.26
 1267.80        2979.25           1622         107.00       438.54
 1267.84        2979.50           1625         103.00       421.10
 1267.87        2979.75           1628         103.00       421.10
 1267.90        2980.00           1632         103.00       421.10
 1267.94        2980.25           1635         107.00       438.54
 1267.97        2980.50           1638          97.00       394.95
 1268.01        2980.75           1642         100.00       408.03
 1268.04        2981.00           1645         100.00       408.03
 1268.08        2981.25           1648         106.00       434.18
 1268.11        2981.50           1652         104.00       425.46
 1268.15        2981.75           1655         106.00       434.18
 1268.18        2982.00           1658          94.00       381.87
 1268.22        2982.25           1662         103.00       421.10
 1268.25        2982.50           1665          96.00       390.59
 1268.29        2982.75           1669         110.00       451.62
 1268.32        2983.00           1672         101.00       412.39
 1268.36        2983.25           1675          97.00       394.95
 1268.39        2983.50           1679          99.00       403.67
 1268.43        2983.75           1682          97.00       394.95
 1268.46        2984.00           1685          94.00       381.87
HS scan finished at 21:08:41
end
