************************************************************
  HS Scan of (1) Internal mercury lamp
************************************************************
Integration time is 0.2294 seconds per sample
dh210619inta 37.1 6.733 3.169562pr1000
************************************************************
Dead Time -------------------------  3E-08 
Number of Cycles Used -------------  4 
Starting Wavelength (Angstroms) ---  2950 
Final Wavelength (Angstoms) -------  2984 
Wavelength Increment (Angstroms) --  .25 
Filter Wheel #1 Position ---------- (1) Ground quartz diffuser (ND=2.32)
Filter Wheel #2 Position ---------- (1) Neutral Density 0.494



************************************************************
HS scan start time = 02:10:28
Dark Count =  9.1 


Time (GMT)  Wavelength (Ang)  Step Number  Raw Counts  Counts/Second

  130.81        2950.00           1230         118.00       474.72
  130.88        2950.25           1234         132.00       535.75
  130.92        2950.50           1237         127.00       513.96
  130.95        2950.75           1240         120.00       483.44
  130.99        2951.00           1244         134.00       544.47
  131.02        2951.25           1247         119.00       479.08
  131.06        2951.50           1250         112.00       448.57
  131.09        2951.75           1254         133.00       540.11
  131.13        2952.00           1257         118.00       474.72
  131.16        2952.25           1260         127.00       513.96
  131.20        2952.50           1264         119.00       479.08
  131.23        2952.75           1267         116.00       466.00
  131.27        2953.00           1270         115.00       461.65
  131.30        2953.25           1274         123.00       496.52
  131.34        2953.50           1277         126.00       509.60
  131.37        2953.75           1280         133.00       540.11
  131.41        2954.00           1284         132.00       535.75
  131.44        2954.25           1287         116.00       466.00
  131.48        2954.50           1290         119.00       479.08
  131.51        2954.75           1294         117.00       470.36
  131.55        2955.00           1297         114.00       457.29
  131.58        2955.25           1300         122.00       492.16
  131.62        2955.50           1304         118.00       474.72
  131.66        2955.75           1307         120.00       483.44
  131.69        2956.00           1310         123.00       496.52
  131.73        2956.25           1314         107.00       426.77
  131.76        2956.50           1317         117.00       470.36
  131.80        2956.75           1320         124.00       500.88
  131.83        2957.00           1324         115.00       461.65
  131.87        2957.25           1327         113.00       452.93
  131.90        2957.50           1330         122.00       492.16
  131.94        2957.75           1334         126.00       509.60
  131.97        2958.00           1337         140.00       570.63
  132.00        2958.25           1340         116.00       466.00
  132.04        2958.50           1344         126.00       509.60
  132.07        2958.75           1347         110.00       439.85
  132.11        2959.00           1350         122.00       492.16
  132.14        2959.25           1354         125.00       505.24
  132.18        2959.50           1357         116.00       466.00
  132.21        2959.75           1360         120.00       483.44
  132.25        2960.00           1364         122.00       492.16
  132.28        2960.25           1367         137.00       557.55
  132.32        2960.50           1370         143.00       583.71
  132.35        2960.75           1374         272.00      1146.07
  132.39        2961.00           1377         730.00      3142.84
  132.43        2961.25           1380        1661.00      7202.51
  132.46        2961.50           1384        3956.00     17214.20
  132.50        2961.75           1387        6688.00     29140.11
  132.53        2962.00           1391       11164.00     48697.51
  132.57        2962.25           1394       15063.00     65752.49
  132.60        2962.50           1397       19322.00     84402.19
  132.64        2962.75           1401       24711.00    108030.00
  132.67        2963.00           1404       29031.00    126995.10
  132.71        2963.25           1407       33602.00    147085.70
  132.74        2963.50           1411       39485.00    172978.60
  132.78        2963.75           1414       43985.00    192811.70
  132.81        2964.00           1417       48851.00    214284.60
  132.85        2964.25           1421       55141.00    242082.60
  132.88        2964.50           1424       59777.00    262600.80
  132.92        2964.75           1427       64643.00    284164.10
  132.95        2965.00           1431       70816.00    311559.80
  132.99        2965.25           1434       75408.00    331968.30
  133.03        2965.50           1437       79893.00    351925.70
  133.06        2965.75           1441       85369.00    376325.30
  133.09        2966.00           1444       89352.00    394095.20
  133.13        2966.25           1447       92881.00    409855.60
  133.17        2966.50           1451       96348.00    425353.60
  133.20        2966.75           1454       98214.00    433700.90
  133.24        2967.00           1457       99010.00    437263.00
  133.27        2967.25           1461       99738.00    440521.50
  133.31        2967.50           1464       99309.00    438601.20
  133.34        2967.75           1467       97934.00    432448.20
  133.37        2968.00           1471       95102.00    419782.10
  133.41        2968.25           1474       91912.00    405526.50
  133.44        2968.50           1477       88649.00    390957.50
  133.48        2968.75           1481       83293.00    367071.00
  133.52        2969.00           1484       78819.00    347144.50
  133.55        2969.25           1487       74175.00    326486.00
  133.59        2969.50           1491       68302.00    300397.30
  133.62        2969.75           1494       64213.00    282257.40
  133.66        2970.00           1498       58278.00    255963.60
  133.69        2970.25           1501       54124.00    237584.90
  133.73        2970.50           1504       49554.00    217389.20
  133.76        2970.75           1508       43741.00    191735.70
  133.80        2971.00           1511       39122.00    171379.70
  133.83        2971.25           1514       34700.00    151915.20
  133.87        2971.50           1518       28454.00    124460.80
  133.90        2971.75           1521       23368.00    102138.50
  133.94        2972.00           1524       18853.00     82347.47
  133.97        2972.25           1528       13217.00     57675.55
  134.01        2972.50           1531        9261.00     40379.76
  134.04        2972.75           1534        6235.00     27162.05
  134.08        2973.00           1538        3195.00     13893.76
  134.11        2973.25           1541        1644.00      7128.38
  134.15        2973.50           1544         768.00      3308.52
  134.18        2973.75           1548         313.00      1324.81
  134.22        2974.00           1551         185.00       766.80
  134.25        2974.25           1554         154.00       631.66
  134.29        2974.50           1558         144.00       588.07
  134.32        2974.75           1561         131.00       531.39
  134.36        2975.00           1565         111.00       444.21
  134.39        2975.25           1568         134.00       544.47
  134.43        2975.50           1571         106.00       422.41
  134.46        2975.75           1575         111.00       444.21
  134.50        2976.00           1578         113.00       452.93
  134.53        2976.25           1581         116.00       466.00
  134.57        2976.50           1585         111.00       444.21
  134.60        2976.75           1588         114.00       457.29
  134.64        2977.00           1591         107.00       426.77
  134.67        2977.25           1595         105.00       418.05
  134.71        2977.50           1598         115.00       461.65
  134.74        2977.75           1601         110.00       439.85
  134.78        2978.00           1605         107.00       426.77
  134.81        2978.25           1608         105.00       418.05
  134.85        2978.50           1611         108.00       431.13
  134.88        2978.75           1615         103.00       409.33
  134.92        2979.00           1618         119.00       479.08
  134.95        2979.25           1622         104.00       413.69
  134.99        2979.50           1625         110.00       439.85
  135.02        2979.75           1628         116.00       466.00
  135.06        2980.00           1632         110.00       439.85
  135.10        2980.25           1635         101.00       400.62
  135.13        2980.50           1638         106.00       422.41
  135.16        2980.75           1642          97.00       383.18
  135.20        2981.00           1645          96.00       378.82
  135.23        2981.25           1648         102.00       404.97
  135.27        2981.50           1652         101.00       400.62
  135.31        2981.75           1655         108.00       431.13
  135.34        2982.00           1658          97.00       383.18
  135.38        2982.25           1662         109.00       435.49
  135.41        2982.50           1665          97.00       383.18
  135.45        2982.75           1669         100.00       396.26
  135.48        2983.00           1672         108.00       431.13
  135.52        2983.25           1675         102.00       404.97
  135.55        2983.50           1679         101.00       400.62
  135.59        2983.75           1682          99.00       391.90
  135.62        2984.00           1685          91.00       357.02
HS scan finished at 02:15:51
end
