************************************************************
  HS Scan of (1) Internal mercury lamp
************************************************************
Integration time is 0.2294 seconds per sample
dh190619inta 37.1 6.733 3.240938pr1000
************************************************************
Dead Time -------------------------  3E-08 
Number of Cycles Used -------------  4 
Starting Wavelength (Angstroms) ---  2950 
Final Wavelength (Angstoms) -------  2984 
Wavelength Increment (Angstroms) --  .25 
Filter Wheel #1 Position ---------- (1) Ground quartz diffuser (ND=2.32)
Filter Wheel #2 Position ---------- (1) Neutral Density 0.494



************************************************************
HS scan start time = 02:12:59
Dark Count =  5 


Time (GMT)  Wavelength (Ang)  Step Number  Raw Counts  Counts/Second

  133.32        2950.00           1230         122.00       510.03
  133.39        2950.25           1234         124.00       518.75
  133.43        2950.50           1237         125.00       523.11
  133.46        2950.75           1240         114.00       475.16
  133.50        2951.00           1244         119.00       496.96
  133.53        2951.25           1247         111.00       462.08
  133.57        2951.50           1250         119.00       496.96
  133.60        2951.75           1254         100.00       414.13
  133.64        2952.00           1257         126.00       527.47
  133.67        2952.25           1260         127.00       531.83
  133.71        2952.50           1264         125.00       523.11
  133.74        2952.75           1267         113.00       470.80
  133.78        2953.00           1270         127.00       531.83
  133.81        2953.25           1274         112.00       466.44
  133.84        2953.50           1277         124.00       518.75
  133.88        2953.75           1280         130.00       544.91
  133.91        2954.00           1284         117.00       488.24
  133.95        2954.25           1287         112.00       466.44
  133.98        2954.50           1290         111.00       462.08
  134.02        2954.75           1294         119.00       496.96
  134.05        2955.00           1297         129.00       540.55
  134.09        2955.25           1300         120.00       501.32
  134.12        2955.50           1304         117.00       488.24
  134.16        2955.75           1307         117.00       488.24
  134.19        2956.00           1310         115.00       479.52
  134.23        2956.25           1314         115.00       479.52
  134.26        2956.50           1317         122.00       510.03
  134.29        2956.75           1320         131.00       549.27
  134.33        2957.00           1324         111.00       462.08
  134.36        2957.25           1327         117.00       488.24
  134.40        2957.50           1330         112.00       466.44
  134.43        2957.75           1334         119.00       496.96
  134.47        2958.00           1337         111.00       462.08
  134.50        2958.25           1340         113.00       470.80
  134.54        2958.50           1344         120.00       501.32
  134.57        2958.75           1347         121.00       505.67
  134.61        2959.00           1350         119.00       496.96
  134.64        2959.25           1354         126.00       527.47
  134.68        2959.50           1357         126.00       527.47
  134.71        2959.75           1360         111.00       462.08
  134.74        2960.00           1364         120.00       501.32
  134.78        2960.25           1367         135.00       566.71
  134.81        2960.50           1370         141.00       592.86
  134.85        2960.75           1374         285.00      1220.62
  134.88        2961.00           1377         754.00      3265.36
  134.92        2961.25           1380        1756.00      7634.70
  134.95        2961.50           1384        4159.00     18117.95
  134.99        2961.75           1387        6852.00     29874.19
  135.02        2962.00           1391       11245.00     49069.56
  135.06        2962.25           1394       14843.00     64807.65
  135.09        2962.50           1397       19225.00     83995.17
  135.13        2962.75           1401       24954.00    109114.20
  135.16        2963.00           1404       29067.00    127171.30
  135.19        2963.25           1407       33455.00    146457.30
  135.23        2963.50           1411       39485.00    172996.60
  135.26        2963.75           1414       43824.00    192119.80
  135.30        2964.00           1417       48378.00    212214.20
  135.33        2964.25           1421       54616.00    239778.70
  135.37        2964.50           1424       59250.00    260285.20
  135.40        2964.75           1427       63842.00    280630.80
  135.44        2965.00           1431       70163.00    308677.90
  135.47        2965.25           1434       74719.00    328922.80
  135.51        2965.50           1437       79315.00    349370.70
  135.54        2965.75           1441       84413.00    372081.40
  135.58        2966.00           1444       88490.00    390266.20
  135.61        2966.25           1447       92019.00    406022.80
  135.64        2966.50           1451       95552.00    421812.40
  135.68        2966.75           1454       97046.00    428493.90
  135.72        2967.00           1457       98429.00    434681.30
  135.75        2967.25           1461       98803.00    436355.00
  135.79        2967.50           1464       98116.00    433280.80
  135.82        2967.75           1467       97324.00    429737.40
  135.86        2968.00           1471       94253.00    416005.20
  135.89        2968.25           1474       91272.00    402686.30
  135.93        2968.50           1477       87455.00    385647.90
  135.96        2968.75           1481       82072.00    361648.80
  136.00        2969.00           1484       78115.00    344029.40
  136.03        2969.25           1487       73615.00    324014.90
  136.06        2969.50           1491       67612.00    297353.10
  136.10        2969.75           1494       63387.00    278613.70
  136.13        2970.00           1498       57514.00    252600.10
  136.17        2970.25           1501       53198.00    233508.90
  136.20        2970.50           1504       48792.00    214042.20
  136.24        2970.75           1508       42924.00    188151.40
  136.27        2971.00           1511       38217.00    167412.40
  136.31        2971.25           1514       33872.00    148291.20
  136.34        2971.50           1518       27862.00    121879.00
  136.38        2971.75           1521       23222.00    101516.20
  136.41        2972.00           1524       18414.00     80442.37
  136.45        2972.25           1528       12681.00     55349.02
  136.48        2972.50           1531        8837.00     38544.98
  136.52        2972.75           1534        5750.00     25062.43
  136.55        2973.00           1538        2931.00     12759.90
  136.59        2973.25           1541        1532.00      6657.82
  136.62        2973.50           1544         716.00      3099.68
  136.66        2973.75           1548         293.00      1255.50
  136.69        2974.00           1551         174.00       736.72
  136.73        2974.25           1554         139.00       584.14
  136.76        2974.50           1558         134.00       562.35
  136.79        2974.75           1561         118.00       492.60
  136.83        2975.00           1565         114.00       475.16
  136.86        2975.25           1568         117.00       488.24
  136.90        2975.50           1571         104.00       431.57
  136.93        2975.75           1575         105.00       435.93
  136.97        2976.00           1578         108.00       449.00
  137.00        2976.25           1581         112.00       466.44
  137.04        2976.50           1585         111.00       462.08
  137.07        2976.75           1588         108.00       449.00
  137.11        2977.00           1591         110.00       457.72
  137.14        2977.25           1595         107.00       444.64
  137.18        2977.50           1598         100.00       414.13
  137.21        2977.75           1601          98.00       405.41
  137.25        2978.00           1605         106.00       440.28
  137.28        2978.25           1608         119.00       496.96
  137.32        2978.50           1611         113.00       470.80
  137.35        2978.75           1615         100.00       414.13
  137.38        2979.00           1618         105.00       435.93
  137.42        2979.25           1622         102.00       422.85
  137.45        2979.50           1625         109.00       453.36
  137.49        2979.75           1628         106.00       440.28
  137.52        2980.00           1632         102.00       422.85
  137.56        2980.25           1635         107.00       444.64
  137.59        2980.50           1638         112.00       466.44
  137.63        2980.75           1642         101.00       418.49
  137.66        2981.00           1645          99.00       409.77
  137.70        2981.25           1648         108.00       449.00
  137.73        2981.50           1652          99.00       409.77
  137.77        2981.75           1655         109.00       453.36
  137.80        2982.00           1658         114.00       475.16
  137.84        2982.25           1662         110.00       457.72
  137.87        2982.50           1665         104.00       431.57
  137.91        2982.75           1669         113.00       470.80
  137.94        2983.00           1672         103.00       427.21
  137.98        2983.25           1675          94.00       387.97
  138.01        2983.50           1679          91.00       374.90
  138.05        2983.75           1682         102.00       422.85
  138.08        2984.00           1685         102.00       422.85
HS scan finished at 02:18:19
end
