************************************************************
  HS Scan of (1) Internal mercury lamp
************************************************************
Integration time is 0.2294 seconds per sample
dh280718arosa 46.7828-9.6754 3.103284pr812
************************************************************
Dead Time -------------------------  3E-08 
Number of Cycles Used -------------  4 
Starting Wavelength (Angstroms) ---  2950 
Final Wavelength (Angstoms) -------  2984 
Wavelength Increment (Angstroms) --  .25 
Filter Wheel #1 Position ---------- (1) Ground quartz diffuser (ND=2.32)
Filter Wheel #2 Position ---------- (1) Neutral Density 0.494



************************************************************
HS scan start time = 19:46:37
Dark Count =  8.100001 


Time (GMT)  Wavelength (Ang)  Step Number  Raw Counts  Counts/Second

 1186.95        2950.00           1230         125.00       509.60
 1187.02        2950.25           1234         119.00       483.44
 1187.05        2950.50           1237         127.00       518.32
 1187.07        2950.75           1240         121.00       492.16
 1187.10        2951.00           1244         143.00       588.07
 1187.13        2951.25           1247         132.00       540.11
 1187.16        2951.50           1250         119.00       483.44
 1187.19        2951.75           1254         120.00       487.80
 1187.22        2952.00           1257         127.00       518.32
 1187.25        2952.25           1260         128.00       522.68
 1187.28        2952.50           1264         127.00       518.32
 1187.31        2952.75           1267         123.00       500.88
 1187.34        2953.00           1270         115.00       466.00
 1187.37        2953.25           1274         130.00       531.39
 1187.40        2953.50           1277         118.00       479.08
 1187.43        2953.75           1280         132.00       540.11
 1187.46        2954.00           1284         123.00       500.88
 1187.49        2954.25           1287         121.00       492.16
 1187.52        2954.50           1290         121.00       492.16
 1187.55        2954.75           1294         121.00       492.16
 1187.58        2955.00           1297         131.00       535.75
 1187.60        2955.25           1300         127.00       518.32
 1187.63        2955.50           1304         123.00       500.88
 1187.66        2955.75           1307         117.00       474.72
 1187.69        2956.00           1310         123.00       500.88
 1187.72        2956.25           1314         126.00       513.96
 1187.75        2956.50           1317         119.00       483.44
 1187.78        2956.75           1320         122.00       496.52
 1187.81        2957.00           1324         116.00       470.36
 1187.84        2957.25           1327         121.00       492.16
 1187.87        2957.50           1330         127.00       518.32
 1187.90        2957.75           1334         120.00       487.80
 1187.93        2958.00           1337         129.00       527.04
 1187.96        2958.25           1340         116.00       470.36
 1187.99        2958.50           1344         126.00       513.96
 1188.02        2958.75           1347         132.00       540.11
 1188.05        2959.00           1350         127.00       518.32
 1188.08        2959.25           1354         107.00       431.13
 1188.10        2959.50           1357         126.00       513.96
 1188.13        2959.75           1360         135.00       553.19
 1188.16        2960.00           1364         130.00       531.39
 1188.19        2960.25           1367         138.00       566.27
 1188.22        2960.50           1370         174.00       723.21
 1188.25        2960.75           1374         344.00      1464.32
 1188.28        2961.00           1377         884.00      3818.66
 1188.31        2961.25           1380        1921.00      8340.80
 1188.34        2961.50           1384        4480.00     19505.31
 1188.37        2961.75           1387        7327.00     31935.12
 1188.40        2962.00           1391       11490.00     50127.21
 1188.43        2962.25           1394       15587.00     68050.30
 1188.46        2962.50           1397       20142.00     87999.66
 1188.49        2962.75           1401       25959.00    113511.00
 1188.52        2963.00           1404       30399.00    133009.60
 1188.55        2963.25           1407       35030.00    153371.50
 1188.58        2963.50           1411       41244.00    180732.70
 1188.61        2963.75           1414       46026.00    201819.40
 1188.64        2964.00           1417       50565.00    221859.30
 1188.67        2964.25           1421       57430.00    252214.60
 1188.70        2964.50           1424       62653.00    275346.60
 1188.73        2964.75           1427       67467.00    296695.80
 1188.75        2965.00           1431       74018.00    325792.50
 1188.78        2965.25           1434       78387.00    345226.10
 1188.81        2965.50           1437       83139.00    366389.20
 1188.84        2965.75           1441       88641.00    390926.30
 1188.87        2966.00           1444       92785.00    409431.10
 1188.90        2966.25           1447       96147.00    424459.20
 1188.93        2966.50           1451       99823.00    440906.50
 1188.96        2966.75           1454      102149.00    451322.00
 1188.99        2967.00           1457      103311.00    456527.70
 1189.02        2967.25           1461      103695.00    458248.40
 1189.05        2967.50           1464      103278.00    456379.90
 1189.08        2967.75           1467      102265.00    451841.60
 1189.11        2968.00           1471       99074.00    437554.00
 1189.14        2968.25           1474       95818.00    422988.00
 1189.17        2968.50           1477       92013.00    405982.20
 1189.20        2968.75           1481       86289.00    380432.70
 1189.23        2969.00           1484       81961.00    361140.50
 1189.26        2969.25           1487       77683.00    342093.10
 1189.29        2969.50           1491       71332.00    313856.30
 1189.32        2969.75           1494       67095.00    295045.10
 1189.35        2970.00           1498       61296.00    269333.60
 1189.38        2970.25           1501       56220.00    246860.30
 1189.40        2970.50           1504       51673.00    226754.80
 1189.43        2970.75           1508       45325.00    198726.60
 1189.46        2971.00           1511       40375.00    176903.70
 1189.49        2971.25           1514       35977.00    157538.40
 1189.52        2971.50           1518       29286.00    128119.70
 1189.55        2971.75           1521       24471.00    106981.40
 1189.58        2972.00           1524       19458.00     85002.46
 1189.61        2972.25           1528       13242.00     57789.30
 1189.64        2972.50           1531        9339.00     40724.97
 1189.67        2972.75           1534        6220.00     27100.93
 1189.70        2973.00           1538        3090.00     13440.03
 1189.73        2973.25           1541        1561.00      6770.77
 1189.76        2973.50           1544         731.00      3151.56
 1189.79        2973.75           1548         306.00      1298.66
 1189.82        2974.00           1551         199.00       832.19
 1189.85        2974.25           1554         151.00       622.94
 1189.87        2974.50           1558         142.00       583.71
 1189.90        2974.75           1561         125.00       509.60
 1189.93        2975.00           1565         120.00       487.80
 1189.96        2975.25           1568         120.00       487.80
 1189.99        2975.50           1571         100.00       400.62
 1190.02        2975.75           1575         122.00       496.52
 1190.05        2976.00           1578         117.00       474.72
 1190.08        2976.25           1581         108.00       435.49
 1190.11        2976.50           1585         119.00       483.44
 1190.14        2976.75           1588         112.00       452.93
 1190.17        2977.00           1591         105.00       422.41
 1190.20        2977.25           1595         110.00       444.21
 1190.23        2977.50           1598         114.00       461.65
 1190.26        2977.75           1601         103.00       413.69
 1190.29        2978.00           1605         114.00       461.65
 1190.32        2978.25           1608         116.00       470.36
 1190.35        2978.50           1611         114.00       461.65
 1190.38        2978.75           1615         119.00       483.44
 1190.41        2979.00           1618         108.00       435.49
 1190.44        2979.25           1622         107.00       431.13
 1190.47        2979.50           1625         115.00       466.00
 1190.49        2979.75           1628         106.00       426.77
 1190.52        2980.00           1632         103.00       413.69
 1190.55        2980.25           1635         106.00       426.77
 1190.58        2980.50           1638         118.00       479.08
 1190.61        2980.75           1642         111.00       448.57
 1190.64        2981.00           1645          96.00       383.18
 1190.67        2981.25           1648         111.00       448.57
 1190.70        2981.50           1652         104.00       418.05
 1190.73        2981.75           1655         105.00       422.41
 1190.76        2982.00           1658         109.00       439.85
 1190.79        2982.25           1662         105.00       422.41
 1190.82        2982.50           1665         106.00       426.77
 1190.85        2982.75           1669         104.00       418.05
 1190.88        2983.00           1672         104.00       418.05
 1190.91        2983.25           1675          96.00       383.18
 1190.94        2983.50           1679         103.00       413.69
 1190.97        2983.75           1682         103.00       413.69
 1191.00        2984.00           1685         102.00       409.33
HS scan finished at 19:51:13
end
