************************************************************
  HS Scan of (1) Internal mercury lamp
************************************************************
Integration time is 0.2294 seconds per sample
dh300718arosa 46.7828-9.6754 3.133874pr812
************************************************************
Dead Time -------------------------  3E-08 
Number of Cycles Used -------------  4 
Starting Wavelength (Angstroms) ---  2950 
Final Wavelength (Angstoms) -------  2984 
Wavelength Increment (Angstroms) --  .25 
Filter Wheel #1 Position ---------- (1) Ground quartz diffuser (ND=2.32)
Filter Wheel #2 Position ---------- (1) Neutral Density 0.494



************************************************************
HS scan start time = 02:46:36
Dark Count =  4.8 


Time (GMT)  Wavelength (Ang)  Step Number  Raw Counts  Counts/Second

  166.93        2950.00           1230         120.00       502.19
  167.00        2950.25           1234         117.00       489.11
  167.03        2950.50           1237         124.00       519.62
  167.06        2950.75           1240         129.00       541.42
  167.09        2951.00           1244         124.00       519.62
  167.12        2951.25           1247         116.00       484.75
  167.15        2951.50           1250         119.00       497.83
  167.18        2951.75           1254         128.00       537.06
  167.21        2952.00           1257         127.00       532.70
  167.24        2952.25           1260         128.00       537.06
  167.27        2952.50           1264         130.00       545.78
  167.30        2952.75           1267         117.00       489.11
  167.32        2953.00           1270         124.00       519.62
  167.35        2953.25           1274         140.00       589.37
  167.38        2953.50           1277         117.00       489.11
  167.41        2953.75           1280         117.00       489.11
  167.44        2954.00           1284         144.00       606.81
  167.47        2954.25           1287         132.00       554.50
  167.50        2954.50           1290         131.00       550.14
  167.53        2954.75           1294         135.00       567.58
  167.56        2955.00           1297         122.00       510.91
  167.59        2955.25           1300         120.00       502.19
  167.62        2955.50           1304         130.00       545.78
  167.65        2955.75           1307         121.00       506.55
  167.68        2956.00           1310         124.00       519.62
  167.71        2956.25           1314         127.00       532.70
  167.74        2956.50           1317         124.00       519.62
  167.77        2956.75           1320         131.00       550.14
  167.80        2957.00           1324         127.00       532.70
  167.83        2957.25           1327         124.00       519.62
  167.86        2957.50           1330         124.00       519.62
  167.89        2957.75           1334         127.00       532.70
  167.92        2958.00           1337         111.00       462.95
  167.94        2958.25           1340         121.00       506.55
  167.97        2958.50           1344         116.00       484.75
  168.00        2958.75           1347         119.00       497.83
  168.03        2959.00           1350         114.00       476.03
  168.06        2959.25           1354         116.00       484.75
  168.09        2959.50           1357         117.00       489.11
  168.12        2959.75           1360         117.00       489.11
  168.15        2960.00           1364         134.00       563.22
  168.18        2960.25           1367         136.00       571.94
  168.21        2960.50           1370         156.00       659.12
  168.24        2960.75           1374         340.00      1461.27
  168.27        2961.00           1377         922.00      3998.74
  168.30        2961.25           1380        2057.00      8948.35
  168.33        2961.50           1384        4737.00     20641.38
  168.36        2961.75           1387        7695.00     33556.87
  168.39        2962.00           1391       12003.00     52384.79
  168.42        2962.25           1394       16027.00     69990.75
  168.45        2962.50           1397       20467.00     89438.44
  168.48        2962.75           1401       26464.00    115742.10
  168.51        2963.00           1404       31424.00    137528.80
  168.54        2963.25           1407       35960.00    157478.10
  168.57        2963.50           1411       42400.00    185842.30
  168.60        2963.75           1414       47295.00    207434.20
  168.63        2964.00           1417       52070.00    228523.90
  168.65        2964.25           1421       58663.00    257687.10
  168.68        2964.50           1424       64204.00    282236.70
  168.71        2964.75           1427       68952.00    303301.80
  168.74        2965.00           1431       75474.00    332281.00
  168.77        2965.25           1434       80263.00    353592.40
  168.80        2965.50           1437       84664.00    373201.30
  168.83        2965.75           1441       90765.00    400423.10
  168.86        2966.00           1444       94689.00    417955.10
  168.89        2966.25           1447       98254.00    433899.20
  168.92        2966.50           1451      101899.00    450217.00
  168.95        2966.75           1454      104237.00    460692.20
  168.98        2967.00           1457      105236.00    465170.10
  169.01        2967.25           1461      106060.00    468864.50
  169.04        2967.50           1464      105135.00    464717.30
  169.07        2967.75           1467      103609.00    457877.80
  169.10        2968.00           1471      100835.00    445452.10
  169.13        2968.25           1474       97671.00    431290.70
  169.16        2968.50           1477       93608.00    413123.50
  169.18        2968.75           1481       87870.00    387500.50
  169.21        2969.00           1484       83444.00    367763.20
  169.24        2969.25           1487       79002.00    347978.20
  169.27        2969.50           1491       73180.00    322082.30
  169.30        2969.75           1494       68501.00    301299.70
  169.33        2970.00           1498       62339.00    273969.70
  169.36        2970.25           1501       57241.00    251392.70
  169.39        2970.50           1504       52780.00    231662.00
  169.42        2970.75           1508       46143.00    202350.20
  169.45        2971.00           1511       41224.00    180659.10
  169.48        2971.25           1514       36460.00    159678.50
  169.51        2971.50           1518       29792.00    130357.10
  169.54        2971.75           1521       25068.00    109615.30
  169.57        2972.00           1524       19687.00     86020.31
  169.60        2972.25           1528       13553.00     59164.21
  169.63        2972.50           1531        9516.00     41512.87
  169.66        2972.75           1534        6306.00     27490.84
  169.69        2973.00           1538        3191.00     13895.07
  169.72        2973.25           1541        1560.00      6780.80
  169.74        2973.50           1544         714.00      3091.83
  169.77        2973.75           1548         292.00      1252.01
  169.80        2974.00           1551         193.00       820.42
  169.83        2974.25           1554         162.00       685.28
  169.86        2974.50           1558         145.00       611.17
  169.89        2974.75           1561         131.00       550.14
  169.92        2975.00           1565         129.00       541.42
  169.95        2975.25           1568         112.00       467.31
  169.98        2975.50           1571         126.00       528.34
  170.01        2975.75           1575         107.00       445.52
  170.04        2976.00           1578         112.00       467.31
  170.07        2976.25           1581         112.00       467.31
  170.10        2976.50           1585         111.00       462.95
  170.13        2976.75           1588         114.00       476.03
  170.16        2977.00           1591         113.00       471.67
  170.19        2977.25           1595         118.00       493.47
  170.22        2977.50           1598         110.00       458.59
  170.25        2977.75           1601         120.00       502.19
  170.28        2978.00           1605         108.00       449.88
  170.31        2978.25           1608          98.00       406.28
  170.34        2978.50           1611         110.00       458.59
  170.37        2978.75           1615         104.00       432.44
  170.39        2979.00           1618         110.00       458.59
  170.42        2979.25           1622          99.00       410.64
  170.45        2979.50           1625          98.00       406.28
  170.48        2979.75           1628         112.00       467.31
  170.51        2980.00           1632         111.00       462.95
  170.54        2980.25           1635         109.00       454.23
  170.57        2980.50           1638         114.00       476.03
  170.60        2980.75           1642         105.00       436.80
  170.63        2981.00           1645         103.00       428.08
  170.66        2981.25           1648         107.00       445.52
  170.69        2981.50           1652         108.00       449.88
  170.72        2981.75           1655         109.00       454.23
  170.75        2982.00           1658         110.00       458.59
  170.78        2982.25           1662         104.00       432.44
  170.81        2982.50           1665         110.00       458.59
  170.84        2982.75           1669          93.00       384.49
  170.86        2983.00           1672         102.00       423.72
  170.89        2983.25           1675         120.00       502.19
  170.92        2983.50           1679         101.00       419.36
  170.95        2983.75           1682         117.00       489.11
  170.98        2984.00           1685          99.00       410.64
HS scan finished at 02:51:12
end
************************************************************
  HS Scan of (1) Internal mercury lamp
************************************************************
Integration time is 0.2294 seconds per sample
dh300718arosa 46.7828-9.6754 3.322511pr812
************************************************************
Dead Time -------------------------  3E-08 
Number of Cycles Used -------------  4 
Starting Wavelength (Angstroms) ---  2950 
Final Wavelength (Angstoms) -------  2984 
Wavelength Increment (Angstroms) --  .25 
Filter Wheel #1 Position ---------- (1) Ground quartz diffuser (ND=2.32)
Filter Wheel #2 Position ---------- (1) Neutral Density 0.494



************************************************************
HS scan start time = 19:53:27
Dark Count =  7.3 


Time (GMT)  Wavelength (Ang)  Step Number  Raw Counts  Counts/Second

 1193.78        2950.00           1230         113.00       460.77
 1193.85        2950.25           1234         123.00       504.37
 1193.88        2950.50           1237         126.00       517.44
 1193.91        2950.75           1240         120.00       491.29
 1193.94        2951.00           1244         124.00       508.73
 1193.96        2951.25           1247         118.00       482.57
 1193.99        2951.50           1250         117.00       478.21
 1194.02        2951.75           1254         107.00       434.62
 1194.05        2952.00           1257         126.00       517.44
 1194.08        2952.25           1260         120.00       491.29
 1194.11        2952.50           1264         116.00       473.85
 1194.14        2952.75           1267         123.00       504.37
 1194.17        2953.00           1270         119.00       486.93
 1194.20        2953.25           1274         103.00       417.18
 1194.23        2953.50           1277         120.00       491.29
 1194.26        2953.75           1280         117.00       478.21
 1194.29        2954.00           1284         123.00       504.37
 1194.32        2954.25           1287         121.00       495.65
 1194.35        2954.50           1290         112.00       456.41
 1194.38        2954.75           1294         118.00       482.57
 1194.41        2955.00           1297         118.00       482.57
 1194.44        2955.25           1300         129.00       530.52
 1194.47        2955.50           1304         113.00       460.77
 1194.50        2955.75           1307         125.00       513.09
 1194.53        2956.00           1310         122.00       500.01
 1194.55        2956.25           1314         106.00       430.26
 1194.58        2956.50           1317         118.00       482.57
 1194.61        2956.75           1320         126.00       517.44
 1194.64        2957.00           1324         132.00       543.60
 1194.67        2957.25           1327         115.00       469.49
 1194.70        2957.50           1330         108.00       438.98
 1194.73        2957.75           1334         102.00       412.82
 1194.76        2958.00           1337         132.00       543.60
 1194.79        2958.25           1340         121.00       495.65
 1194.82        2958.50           1344         120.00       491.29
 1194.85        2958.75           1347         110.00       447.70
 1194.88        2959.00           1350         106.00       430.26
 1194.91        2959.25           1354         117.00       478.21
 1194.94        2959.50           1357         110.00       447.70
 1194.97        2959.75           1360         126.00       517.44
 1195.00        2960.00           1364         125.00       513.09
 1195.02        2960.25           1367         136.00       561.04
 1195.05        2960.50           1370         169.00       704.90
 1195.08        2960.75           1374         431.00      1847.09
 1195.11        2961.00           1377        1057.00      4576.48
 1195.14        2961.25           1380        2515.00     10935.15
 1195.17        2961.50           1384        5492.00     23926.06
 1195.20        2961.75           1387        8685.00     37870.81
 1195.23        2962.00           1391       13692.00     59761.37
 1195.26        2962.25           1394       18058.00     78872.99
 1195.29        2962.50           1397       22646.00     98980.05
 1195.32        2962.75           1401       29246.00    127947.50
 1195.35        2963.00           1404       34254.00    149961.30
 1195.38        2963.25           1407       39022.00    170947.30
 1195.41        2963.50           1411       45789.00    200777.20
 1195.44        2963.75           1414       51187.00    224610.90
 1195.47        2964.00           1417       56357.00    247470.00
 1195.50        2964.25           1421       63494.00    279077.90
 1195.52        2964.50           1424       69056.00    303752.40
 1195.55        2964.75           1427       74265.00    326894.20
 1195.58        2965.00           1431       80132.00    352998.00
 1195.61        2965.25           1434       85314.00    376088.30
 1195.64        2965.50           1437       90061.00    397268.50
 1195.67        2965.75           1441       96207.00    424731.20
 1195.70        2966.00           1444      100467.00    443793.20
 1195.73        2966.25           1447      104617.00    462384.20
 1195.76        2966.50           1451      108552.00    480031.20
 1195.79        2966.75           1454      110337.00    488042.50
 1195.82        2967.00           1457      111648.00    493929.00
 1195.85        2967.25           1461      111970.00    495375.10
 1195.88        2967.50           1464      111699.00    494158.00
 1195.91        2967.75           1467      109757.00    485439.00
 1195.94        2968.00           1471      106795.00    472149.40
 1195.97        2968.25           1474      103329.00    456612.00
 1196.00        2968.50           1477       99355.00    438815.30
 1196.03        2968.75           1481       92728.00    409180.00
 1196.06        2969.00           1484       87986.00    388006.90
 1196.09        2969.25           1487       83005.00    365795.70
 1196.12        2969.50           1491       76922.00    338710.70
 1196.14        2969.75           1494       71619.00    315134.90
 1196.17        2970.00           1498       65102.00    286207.60
 1196.20        2970.25           1501       59709.00    262307.60
 1196.23        2970.50           1504       55206.00    242378.10
 1196.26        2970.75           1508       48632.00    213325.60
 1196.29        2971.00           1511       42985.00    188410.20
 1196.32        2971.25           1514       38036.00    166605.30
 1196.35        2971.50           1518       31373.00    137293.60
 1196.38        2971.75           1521       25637.00    112101.30
 1196.41        2972.00           1524       20043.00     87569.33
 1196.44        2972.25           1528       13710.00     59840.12
 1196.47        2972.50           1531        9629.00     41995.77
 1196.50        2972.75           1534        6295.00     27431.90
 1196.53        2973.00           1538        3101.00     13491.51
 1196.56        2973.25           1541        1562.00      6778.62
 1196.59        2973.50           1544         748.00      3229.17
 1196.62        2973.75           1548         290.00      1232.39
 1196.65        2974.00           1551         193.00       809.52
 1196.68        2974.25           1554         142.00       587.19
 1196.71        2974.50           1558         138.00       569.76
 1196.73        2974.75           1561         121.00       495.65
 1196.76        2975.00           1565         108.00       438.98
 1196.79        2975.25           1568         115.00       469.49
 1196.82        2975.50           1571         113.00       460.77
 1196.85        2975.75           1575         115.00       469.49
 1196.88        2976.00           1578         106.00       430.26
 1196.91        2976.25           1581         109.00       443.34
 1196.94        2976.50           1585         104.00       421.54
 1196.97        2976.75           1588         103.00       417.18
 1197.00        2977.00           1591         113.00       460.77
 1197.03        2977.25           1595         103.00       417.18
 1197.06        2977.50           1598         106.00       430.26
 1197.09        2977.75           1601         122.00       500.01
 1197.12        2978.00           1605         122.00       500.01
 1197.15        2978.25           1608         112.00       456.41
 1197.18        2978.50           1611         107.00       434.62
 1197.21        2978.75           1615         106.00       430.26
 1197.23        2979.00           1618         104.00       421.54
 1197.26        2979.25           1622         107.00       434.62
 1197.29        2979.50           1625         113.00       460.77
 1197.32        2979.75           1628         123.00       504.37
 1197.35        2980.00           1632          98.00       395.38
 1197.38        2980.25           1635         106.00       430.26
 1197.41        2980.50           1638         105.00       425.90
 1197.44        2980.75           1642         100.00       404.10
 1197.47        2981.00           1645         100.00       404.10
 1197.50        2981.25           1648         100.00       404.10
 1197.53        2981.50           1652         105.00       425.90
 1197.56        2981.75           1655         106.00       430.26
 1197.59        2982.00           1658          99.00       399.74
 1197.62        2982.25           1662         115.00       469.49
 1197.65        2982.50           1665         107.00       434.62
 1197.68        2982.75           1669          97.00       391.02
 1197.70        2983.00           1672         100.00       404.10
 1197.73        2983.25           1675          91.00       364.87
 1197.76        2983.50           1679         104.00       421.54
 1197.79        2983.75           1682         104.00       421.54
 1197.82        2984.00           1685         102.00       412.82
HS scan finished at 19:58:03
end
