************************************************************
  HS Scan of (1) Internal mercury lamp
************************************************************
Integration time is 0.2294 seconds per sample
dh060818arosa 46.7828-9.6754 3.149169pr812
************************************************************
Dead Time -------------------------  3E-08 
Number of Cycles Used -------------  4 
Starting Wavelength (Angstroms) ---  2950 
Final Wavelength (Angstoms) -------  2984 
Wavelength Increment (Angstroms) --  .25 
Filter Wheel #1 Position ---------- (1) Ground quartz diffuser (ND=2.32)
Filter Wheel #2 Position ---------- (1) Neutral Density 0.494



************************************************************
HS scan start time = 02:55:31
Dark Count =  4.4 


Time (GMT)  Wavelength (Ang)  Step Number  Raw Counts  Counts/Second

  175.85        2950.00           1230         133.00       560.60
  175.91        2950.25           1234         139.00       586.76
  175.94        2950.50           1237         117.00       490.85
  175.97        2950.75           1240         113.00       473.42
  176.00        2951.00           1244         126.00       530.09
  176.03        2951.25           1247         132.00       556.24
  176.06        2951.50           1250         124.00       521.37
  176.09        2951.75           1254         129.00       543.16
  176.12        2952.00           1257         129.00       543.16
  176.15        2952.25           1260         118.00       495.21
  176.18        2952.50           1264         122.00       512.65
  176.21        2952.75           1267         124.00       521.37
  176.24        2953.00           1270         124.00       521.37
  176.27        2953.25           1274         125.00       525.73
  176.30        2953.50           1277         123.00       517.01
  176.33        2953.75           1280         121.00       508.29
  176.36        2954.00           1284         134.00       564.96
  176.39        2954.25           1287         120.00       503.93
  176.42        2954.50           1290         129.00       543.16
  176.44        2954.75           1294         129.00       543.16
  176.47        2955.00           1297         139.00       586.76
  176.50        2955.25           1300         118.00       495.21
  176.53        2955.50           1304         131.00       551.88
  176.56        2955.75           1307         129.00       543.16
  176.59        2956.00           1310         113.00       473.42
  176.62        2956.25           1314         125.00       525.73
  176.65        2956.50           1317         131.00       551.88
  176.68        2956.75           1320         129.00       543.16
  176.71        2957.00           1324         120.00       503.93
  176.74        2957.25           1327         121.00       508.29
  176.77        2957.50           1330         118.00       495.21
  176.80        2957.75           1334         123.00       517.01
  176.83        2958.00           1337         122.00       512.65
  176.86        2958.25           1340         129.00       543.16
  176.89        2958.50           1344         116.00       486.49
  176.92        2958.75           1347         124.00       521.37
  176.95        2959.00           1350         113.00       473.42
  176.98        2959.25           1354         122.00       512.65
  177.01        2959.50           1357         128.00       538.81
  177.04        2959.75           1360         123.00       517.01
  177.06        2960.00           1364         122.00       512.65
  177.09        2960.25           1367         148.00       625.99
  177.12        2960.50           1370         157.00       665.23
  177.15        2960.75           1374         341.00      1467.37
  177.18        2961.00           1377         930.00      4035.36
  177.21        2961.25           1380        2086.00      9076.58
  177.24        2961.50           1384        4582.00     19966.62
  177.27        2961.75           1387        7501.00     32711.25
  177.30        2962.00           1391       12150.00     53029.37
  177.33        2962.25           1394       16412.00     71677.95
  177.36        2962.50           1397       21035.00     91929.74
  177.39        2962.75           1401       26885.00    117592.00
  177.42        2963.00           1404       31493.00    137833.80
  177.45        2963.25           1407       35994.00    157629.50
  177.48        2963.50           1411       42497.00    186271.70
  177.51        2963.75           1414       47498.00    208332.00
  177.54        2964.00           1417       52584.00    230797.40
  177.57        2964.25           1421       59163.00    259902.70
  177.60        2964.50           1424       64707.00    284468.80
  177.62        2964.75           1427       69701.00    306629.00
  177.65        2965.00           1431       76124.00    335173.80
  177.68        2965.25           1434       80998.00    356867.40
  177.71        2965.50           1437       85505.00    376952.90
  177.74        2965.75           1441       91433.00    403408.10
  177.77        2966.00           1444       95540.00    421761.50
  177.80        2966.25           1447       98965.00    437082.70
  177.83        2966.50           1451      102837.00    454420.60
  177.86        2966.75           1454      105155.00    464808.70
  177.89        2967.00           1457      106410.00    470435.80
  177.92        2967.25           1461      107184.00    473907.10
  177.95        2967.50           1464      106450.00    470615.20
  177.98        2967.75           1467      105046.00    464320.20
  178.01        2968.00           1471      102076.00    451011.60
  178.04        2968.25           1474       98909.00    436832.10
  178.07        2968.50           1477       95331.00    420827.00
  178.10        2968.75           1481       89142.00    393179.00
  178.13        2969.00           1484       84714.00    373426.00
  178.16        2969.25           1487       79988.00    352369.70
  178.19        2969.50           1491       74037.00    325893.50
  178.22        2969.75           1494       69359.00    305110.50
  178.25        2970.00           1498       63079.00    277251.20
  178.28        2970.25           1501       58005.00    254776.00
  178.31        2970.50           1504       53201.00    233524.80
  178.34        2970.75           1508       46558.00    204183.30
  178.36        2971.00           1511       41723.00    182860.00
  178.39        2971.25           1514       36928.00    161740.20
  178.42        2971.50           1518       30150.00    131931.80
  178.45        2971.75           1521       24932.00    109020.30
  178.48        2972.00           1524       20285.00     88642.56
  178.51        2972.25           1528       13558.00     59187.83
  178.54        2972.50           1531        9328.00     40693.07
  178.57        2972.75           1534        6226.00     27143.28
  178.60        2973.00           1538        3211.00     13984.07
  178.63        2973.25           1541        1652.00      7183.76
  178.66        2973.50           1544         764.00      3311.58
  178.69        2973.75           1548         311.00      1336.58
  178.72        2974.00           1551         199.00       848.32
  178.75        2974.25           1554         156.00       660.87
  178.78        2974.50           1558         139.00       586.76
  178.81        2974.75           1561         142.00       599.84
  178.84        2975.00           1565         122.00       512.65
  178.87        2975.25           1568         123.00       517.01
  178.90        2975.50           1571         107.00       447.26
  178.93        2975.75           1575         125.00       525.73
  178.96        2976.00           1578         112.00       469.06
  178.98        2976.25           1581         117.00       490.85
  179.01        2976.50           1585         109.00       455.98
  179.04        2976.75           1588         112.00       469.06
  179.07        2977.00           1591         108.00       451.62
  179.10        2977.25           1595         110.00       460.34
  179.13        2977.50           1598         114.00       477.77
  179.16        2977.75           1601         103.00       429.82
  179.19        2978.00           1605         110.00       460.34
  179.22        2978.25           1608         111.00       464.70
  179.25        2978.50           1611         111.00       464.70
  179.28        2978.75           1615         107.00       447.26
  179.31        2979.00           1618         113.00       473.42
  179.34        2979.25           1622         109.00       455.98
  179.37        2979.50           1625         123.00       517.01
  179.40        2979.75           1628         118.00       495.21
  179.43        2980.00           1632         117.00       490.85
  179.46        2980.25           1635         113.00       473.42
  179.49        2980.50           1638         105.00       438.54
  179.52        2980.75           1642         110.00       460.34
  179.55        2981.00           1645         101.00       421.10
  179.57        2981.25           1648         106.00       442.90
  179.60        2981.50           1652         107.00       447.26
  179.63        2981.75           1655         109.00       455.98
  179.66        2982.00           1658         104.00       434.18
  179.69        2982.25           1662         106.00       442.90
  179.72        2982.50           1665         108.00       451.62
  179.75        2982.75           1669         105.00       438.54
  179.78        2983.00           1672         108.00       451.62
  179.81        2983.25           1675         105.00       438.54
  179.84        2983.50           1679          99.00       412.39
  179.87        2983.75           1682         106.00       442.90
  179.90        2984.00           1685         110.00       460.34
HS scan finished at 03:00:07
end
************************************************************
  HS Scan of (1) Internal mercury lamp
************************************************************
Integration time is 0.2294 seconds per sample
dh060818arosa 46.7828-9.6754 3.11348pr812
************************************************************
Dead Time -------------------------  3E-08 
Number of Cycles Used -------------  4 
Starting Wavelength (Angstroms) ---  2950 
Final Wavelength (Angstoms) -------  2984 
Wavelength Increment (Angstroms) --  .25 
Filter Wheel #1 Position ---------- (1) Ground quartz diffuser (ND=2.32)
Filter Wheel #2 Position ---------- (1) Neutral Density 0.494



************************************************************
HS scan start time = 19:46:35
Dark Count =  6 


Time (GMT)  Wavelength (Ang)  Step Number  Raw Counts  Counts/Second

 1186.91        2950.00           1230         134.00       557.99
 1186.98        2950.25           1234         131.00       544.91
 1187.01        2950.50           1237         125.00       518.75
 1187.04        2950.75           1240         129.00       536.19
 1187.07        2951.00           1244         135.00       562.35
 1187.10        2951.25           1247         122.00       505.67
 1187.13        2951.50           1250         116.00       479.52
 1187.15        2951.75           1254         133.00       553.63
 1187.18        2952.00           1257         125.00       518.75
 1187.21        2952.25           1260         136.00       566.71
 1187.24        2952.50           1264         129.00       536.19
 1187.27        2952.75           1267         134.00       557.99
 1187.30        2953.00           1270         120.00       496.96
 1187.33        2953.25           1274         129.00       536.19
 1187.36        2953.50           1277         123.00       510.03
 1187.39        2953.75           1280         128.00       531.83
 1187.42        2954.00           1284         131.00       544.91
 1187.45        2954.25           1287         127.00       527.47
 1187.48        2954.50           1290         115.00       475.16
 1187.51        2954.75           1294         122.00       505.67
 1187.54        2955.00           1297         125.00       518.75
 1187.56        2955.25           1300         130.00       540.55
 1187.59        2955.50           1304         129.00       536.19
 1187.62        2955.75           1307         122.00       505.67
 1187.65        2956.00           1310         135.00       562.35
 1187.68        2956.25           1314         125.00       518.75
 1187.71        2956.50           1317         119.00       492.60
 1187.74        2956.75           1320         155.00       649.53
 1187.77        2957.00           1324         127.00       527.47
 1187.80        2957.25           1327         120.00       496.96
 1187.83        2957.50           1330         122.00       505.67
 1187.86        2957.75           1334         124.00       514.39
 1187.89        2958.00           1337         128.00       531.83
 1187.92        2958.25           1340         129.00       536.19
 1187.95        2958.50           1344         124.00       514.39
 1187.98        2958.75           1347         128.00       531.83
 1188.01        2959.00           1350         127.00       527.47
 1188.04        2959.25           1354         119.00       492.60
 1188.07        2959.50           1357         120.00       496.96
 1188.10        2959.75           1360         119.00       492.60
 1188.13        2960.00           1364         144.00       601.58
 1188.16        2960.25           1367         144.00       601.58
 1188.18        2960.50           1370         146.00       610.30
 1188.21        2960.75           1374         348.00      1490.91
 1188.24        2961.00           1377         893.00      3867.06
 1188.27        2961.25           1380        1986.00      8633.45
 1188.30        2961.50           1384        4413.00     19222.07
 1188.33        2961.75           1387        7341.00     32005.43
 1188.36        2962.00           1391       11738.00     51220.76
 1188.39        2962.25           1394       16173.00     70624.63
 1188.42        2962.50           1397       20662.00     90287.81
 1188.45        2962.75           1401       26756.00    117018.60
 1188.48        2963.00           1404       31260.00    136802.70
 1188.51        2963.25           1407       35461.00    155277.00
 1188.54        2963.50           1411       41951.00    183857.90
 1188.57        2963.75           1414       46943.00    205875.30
 1188.60        2964.00           1417       51501.00    226004.10
 1188.63        2964.25           1421       58391.00    256477.70
 1188.66        2964.50           1424       63615.00    279620.00
 1188.69        2964.75           1427       68464.00    301130.10
 1188.72        2965.00           1431       74812.00    329332.00
 1188.75        2965.25           1434       79554.00    350430.20
 1188.78        2965.50           1437       84354.00    371814.00
 1188.81        2965.75           1441       90131.00    397586.80
 1188.84        2966.00           1444       93975.00    414758.20
 1188.86        2966.25           1447       97327.00    429746.40
 1188.89        2966.50           1451      101067.00    446485.60
 1188.92        2966.75           1454      102836.00    454409.00
 1188.95        2967.00           1457      104102.00    460081.70
 1188.98        2967.25           1461      104789.00    463160.90
 1189.01        2967.50           1464      104336.00    461130.50
 1189.04        2967.75           1467      102788.00    454193.90
 1189.07        2968.00           1471      100161.00    442429.00
 1189.10        2968.25           1474       96785.00    427322.00
 1189.13        2968.50           1477       92596.00    408596.10
 1189.16        2968.75           1481       87407.00    385429.30
 1189.19        2969.00           1484       82764.00    364727.50
 1189.22        2969.25           1487       78563.00    346018.80
 1189.25        2969.50           1491       72264.00    318006.40
 1189.28        2969.75           1494       67806.00    298209.60
 1189.30        2970.00           1498       61258.00    269174.50
 1189.33        2970.25           1501       56886.00    249816.50
 1189.36        2970.50           1504       52236.00    229252.20
 1189.39        2970.75           1508       45969.00    201577.10
 1189.42        2971.00           1511       41100.00    180107.40
 1189.45        2971.25           1514       36182.00    158449.80
 1189.48        2971.50           1518       29648.00    129719.20
 1189.51        2971.75           1521       24420.00    106766.90
 1189.54        2972.00           1524       19407.00     84788.21
 1189.57        2972.25           1528       13583.00     59290.20
 1189.60        2972.50           1531        9457.00     41249.79
 1189.63        2972.75           1534        6538.00     28498.64
 1189.66        2973.00           1538        3304.00     14382.84
 1189.69        2973.25           1541        1755.00      7625.98
 1189.72        2973.50           1544         837.00      3622.89
 1189.75        2973.75           1548         333.00      1425.52
 1189.78        2974.00           1551         178.00       749.80
 1189.81        2974.25           1554         155.00       649.53
 1189.84        2974.50           1558         141.00       588.50
 1189.87        2974.75           1561         121.00       501.32
 1189.90        2975.00           1565         127.00       527.47
 1189.92        2975.25           1568         119.00       492.60
 1189.95        2975.50           1571         108.00       444.64
 1189.98        2975.75           1575         105.00       431.57
 1190.01        2976.00           1578         109.00       449.00
 1190.04        2976.25           1581         125.00       518.75
 1190.07        2976.50           1585         107.00       440.28
 1190.10        2976.75           1588         111.00       457.72
 1190.13        2977.00           1591         116.00       479.52
 1190.16        2977.25           1595         117.00       483.88
 1190.19        2977.50           1598         104.00       427.21
 1190.22        2977.75           1601         111.00       457.72
 1190.25        2978.00           1605         109.00       449.00
 1190.28        2978.25           1608         101.00       414.13
 1190.31        2978.50           1611         114.00       470.80
 1190.34        2978.75           1615         107.00       440.28
 1190.36        2979.00           1618         111.00       457.72
 1190.39        2979.25           1622         112.00       462.08
 1190.42        2979.50           1625         103.00       422.85
 1190.45        2979.75           1628         114.00       470.80
 1190.48        2980.00           1632         103.00       422.85
 1190.51        2980.25           1635         107.00       440.28
 1190.54        2980.50           1638         106.00       435.93
 1190.57        2980.75           1642         109.00       449.00
 1190.60        2981.00           1645         112.00       462.08
 1190.63        2981.25           1648         110.00       453.36
 1190.66        2981.50           1652         104.00       427.21
 1190.69        2981.75           1655         126.00       523.11
 1190.72        2982.00           1658         116.00       479.52
 1190.75        2982.25           1662          97.00       396.69
 1190.78        2982.50           1665         104.00       427.21
 1190.80        2982.75           1669          94.00       383.61
 1190.83        2983.00           1672         117.00       483.88
 1190.86        2983.25           1675         113.00       466.44
 1190.89        2983.50           1679         112.00       462.08
 1190.92        2983.75           1682         103.00       422.85
 1190.95        2984.00           1685         107.00       440.28
HS scan finished at 19:51:10
end
