************************************************************
  HS Scan of (1) Internal mercury lamp
************************************************************
Integration time is 0.2294 seconds per sample
dh070818arosa 46.7828-9.6754 3.077792pr812
************************************************************
Dead Time -------------------------  3E-08 
Number of Cycles Used -------------  4 
Starting Wavelength (Angstroms) ---  2950 
Final Wavelength (Angstoms) -------  2984 
Wavelength Increment (Angstroms) --  .25 
Filter Wheel #1 Position ---------- (1) Ground quartz diffuser (ND=2.32)
Filter Wheel #2 Position ---------- (1) Neutral Density 0.494



************************************************************
HS scan start time = 02:56:34
Dark Count =  5.9 


Time (GMT)  Wavelength (Ang)  Step Number  Raw Counts  Counts/Second

  176.90        2950.00           1230         126.00       523.55
  176.96        2950.25           1234         131.00       545.34
  176.99        2950.50           1237         118.00       488.67
  177.02        2950.75           1240         126.00       523.55
  177.05        2951.00           1244         121.00       501.75
  177.08        2951.25           1247         117.00       484.31
  177.11        2951.50           1250         143.00       597.66
  177.14        2951.75           1254         133.00       554.06
  177.17        2952.00           1257         132.00       549.70
  177.20        2952.25           1260         122.00       506.11
  177.23        2952.50           1264         130.00       540.99
  177.26        2952.75           1267         139.00       580.22
  177.29        2953.00           1270         125.00       519.19
  177.32        2953.25           1274         124.00       514.83
  177.35        2953.50           1277         112.00       462.52
  177.38        2953.75           1280         116.00       479.95
  177.41        2954.00           1284         116.00       479.95
  177.44        2954.25           1287         115.00       475.60
  177.47        2954.50           1290         121.00       501.75
  177.49        2954.75           1294         134.00       558.42
  177.52        2955.00           1297         124.00       514.83
  177.55        2955.25           1300         121.00       501.75
  177.58        2955.50           1304         123.00       510.47
  177.61        2955.75           1307         125.00       519.19
  177.64        2956.00           1310         124.00       514.83
  177.67        2956.25           1314         129.00       536.63
  177.70        2956.50           1317         124.00       514.83
  177.73        2956.75           1320         120.00       497.39
  177.76        2957.00           1324         114.00       471.24
  177.79        2957.25           1327         128.00       532.27
  177.82        2957.50           1330         120.00       497.39
  177.85        2957.75           1334         130.00       540.99
  177.88        2958.00           1337         129.00       536.63
  177.91        2958.25           1340         117.00       484.31
  177.94        2958.50           1344         129.00       536.63
  177.97        2958.75           1347         123.00       510.47
  178.00        2959.00           1350         117.00       484.31
  178.03        2959.25           1354         123.00       510.47
  178.06        2959.50           1357         128.00       532.27
  178.08        2959.75           1360         137.00       571.50
  178.11        2960.00           1364         139.00       580.22
  178.14        2960.25           1367         139.00       580.22
  178.17        2960.50           1370         164.00       689.20
  178.20        2960.75           1374         425.00      1827.04
  178.23        2961.00           1377        1060.00      4595.66
  178.26        2961.25           1380        2338.00     10169.19
  178.29        2961.50           1384        4935.00     21500.79
  178.32        2961.75           1387        7787.00     33953.92
  178.35        2962.00           1391       12513.00     54610.32
  178.38        2962.25           1394       16488.00     72004.10
  178.41        2962.50           1397       20454.00     89376.64
  178.44        2962.75           1401       26456.00    115702.10
  178.47        2963.00           1404       31200.00    136539.40
  178.50        2963.25           1407       35444.00    155202.70
  178.53        2963.50           1411       41754.00    182990.10
  178.56        2963.75           1414       46392.00    203444.10
  178.59        2964.00           1417       51202.00    224683.30
  178.62        2964.25           1421       57726.00    253534.40
  178.65        2964.50           1424       62715.00    275631.20
  178.67        2964.75           1427       67515.00    296918.60
  178.70        2965.00           1431       73508.00    323535.30
  178.73        2965.25           1434       78076.00    343851.80
  178.76        2965.50           1437       82268.00    362518.00
  178.79        2965.75           1441       88276.00    389307.20
  178.82        2966.00           1444       91879.00    405393.50
  178.85        2966.25           1447       95223.00    420337.40
  178.88        2966.50           1451       98820.00    436427.10
  178.91        2966.75           1454      100427.00    443620.30
  178.94        2967.00           1457      101485.00    448357.90
  178.97        2967.25           1461      101551.00    448653.50
  179.00        2967.50           1464      101054.00    446427.80
  179.03        2967.75           1467       99425.00    439134.80
  179.06        2968.00           1471       96359.00    425417.20
  179.09        2968.25           1474       93136.00    411009.30
  179.12        2968.50           1477       89322.00    393975.60
  179.15        2968.75           1481       83490.00    367963.30
  179.18        2969.00           1484       78894.00    347492.60
  179.21        2969.25           1487       74346.00    327260.50
  179.24        2969.50           1491       68736.00    302338.00
  179.27        2969.75           1494       64115.00    281837.20
  179.30        2970.00           1498       58249.00    255849.50
  179.33        2970.25           1501       53590.00    235238.00
  179.36        2970.50           1504       48894.00    214488.70
  179.39        2970.75           1508       43117.00    188998.40
  179.42        2971.00           1511       38779.00    169883.20
  179.45        2971.25           1514       33407.00    146242.20
  179.48        2971.50           1518       26755.00    117014.70
  179.51        2971.75           1521       21898.00     95706.40
  179.54        2972.00           1524       17347.00     75765.31
  179.56        2972.25           1528       11706.00     51081.27
  179.59        2972.50           1531        8183.00     35683.78
  179.62        2972.75           1534        5355.00     23334.12
  179.65        2973.00           1538        2689.00     11700.27
  179.68        2973.25           1541        1342.00      5825.34
  179.71        2973.50           1544         626.00      2703.36
  179.74        2973.75           1548         251.00      1068.47
  179.77        2974.00           1551         175.00       737.16
  179.80        2974.25           1554         165.00       693.56
  179.83        2974.50           1558         125.00       519.19
  179.86        2974.75           1561         129.00       536.63
  179.89        2975.00           1565         119.00       493.03
  179.92        2975.25           1568         118.00       488.67
  179.95        2975.50           1571         123.00       510.47
  179.98        2975.75           1575         117.00       484.31
  180.01        2976.00           1578         117.00       484.31
  180.04        2976.25           1581         112.00       462.52
  180.07        2976.50           1585         110.00       453.80
  180.10        2976.75           1588         110.00       453.80
  180.13        2977.00           1591         118.00       488.67
  180.16        2977.25           1595         107.00       440.72
  180.19        2977.50           1598         113.00       466.88
  180.22        2977.75           1601         119.00       493.03
  180.25        2978.00           1605         108.00       445.08
  180.28        2978.25           1608         113.00       466.88
  180.31        2978.50           1611         103.00       423.28
  180.33        2978.75           1615         115.00       475.60
  180.36        2979.00           1618         106.00       436.36
  180.39        2979.25           1622         106.00       436.36
  180.42        2979.50           1625         123.00       510.47
  180.45        2979.75           1628         108.00       445.08
  180.48        2980.00           1632         113.00       466.88
  180.51        2980.25           1635         122.00       506.11
  180.54        2980.50           1638         105.00       432.00
  180.57        2980.75           1642         101.00       414.56
  180.60        2981.00           1645         111.00       458.16
  180.63        2981.25           1648         107.00       440.72
  180.66        2981.50           1652         104.00       427.64
  180.69        2981.75           1655         112.00       462.52
  180.72        2982.00           1658         101.00       414.56
  180.75        2982.25           1662         123.00       510.47
  180.78        2982.50           1665         116.00       479.95
  180.81        2982.75           1669         102.00       418.92
  180.84        2983.00           1672         103.00       423.28
  180.86        2983.25           1675         107.00       440.72
  180.89        2983.50           1679         108.00       445.08
  180.92        2983.75           1682         107.00       440.72
  180.95        2984.00           1685         109.00       449.44
HS scan finished at 03:01:11
end
************************************************************
  HS Scan of (1) Internal mercury lamp
************************************************************
Integration time is 0.2294 seconds per sample
dh070818arosa 46.7828-9.6754 3.164464pr812
************************************************************
Dead Time -------------------------  3E-08 
Number of Cycles Used -------------  4 
Starting Wavelength (Angstroms) ---  2950 
Final Wavelength (Angstoms) -------  2984 
Wavelength Increment (Angstroms) --  .25 
Filter Wheel #1 Position ---------- (1) Ground quartz diffuser (ND=2.32)
Filter Wheel #2 Position ---------- (1) Neutral Density 0.494



************************************************************
HS scan start time = 19:46:35
Dark Count =  6 


Time (GMT)  Wavelength (Ang)  Step Number  Raw Counts  Counts/Second

 1186.92        2950.00           1230         131.00       544.91
 1186.98        2950.25           1234         122.00       505.67
 1187.01        2950.50           1237         123.00       510.03
 1187.04        2950.75           1240         124.00       514.39
 1187.07        2951.00           1244         129.00       536.19
 1187.10        2951.25           1247         133.00       553.63
 1187.13        2951.50           1250         124.00       514.39
 1187.16        2951.75           1254         121.00       501.32
 1187.19        2952.00           1257         123.00       510.03
 1187.22        2952.25           1260         121.00       501.32
 1187.25        2952.50           1264         117.00       483.88
 1187.28        2952.75           1267         127.00       527.47
 1187.31        2953.00           1270         124.00       514.39
 1187.34        2953.25           1274         128.00       531.83
 1187.37        2953.50           1277         118.00       488.24
 1187.40        2953.75           1280         116.00       479.52
 1187.43        2954.00           1284         118.00       488.24
 1187.45        2954.25           1287         116.00       479.52
 1187.48        2954.50           1290         117.00       483.88
 1187.51        2954.75           1294         124.00       514.39
 1187.54        2955.00           1297         124.00       514.39
 1187.57        2955.25           1300         120.00       496.96
 1187.60        2955.50           1304         133.00       553.63
 1187.63        2955.75           1307         107.00       440.28
 1187.66        2956.00           1310         127.00       527.47
 1187.69        2956.25           1314         123.00       510.03
 1187.72        2956.50           1317         120.00       496.96
 1187.75        2956.75           1320         127.00       527.47
 1187.78        2957.00           1324         123.00       510.03
 1187.81        2957.25           1327         111.00       457.72
 1187.84        2957.50           1330         127.00       527.47
 1187.87        2957.75           1334         115.00       475.16
 1187.90        2958.00           1337         125.00       518.75
 1187.92        2958.25           1340         130.00       540.55
 1187.95        2958.50           1344         116.00       479.52
 1187.98        2958.75           1347         122.00       505.67
 1188.01        2959.00           1350         124.00       514.39
 1188.04        2959.25           1354         116.00       479.52
 1188.07        2959.50           1357         121.00       501.32
 1188.10        2959.75           1360         124.00       514.39
 1188.13        2960.00           1364         118.00       488.24
 1188.16        2960.25           1367         144.00       601.58
 1188.19        2960.50           1370         153.00       640.81
 1188.22        2960.75           1374         344.00      1473.47
 1188.25        2961.00           1377         914.00      3958.62
 1188.28        2961.25           1380        2108.00      9165.55
 1188.30        2961.50           1384        4749.00     20688.51
 1188.33        2961.75           1387        7772.00     33887.97
 1188.36        2962.00           1391       12347.00     53883.90
 1188.39        2962.25           1394       16633.00     72638.50
 1188.42        2962.50           1397       21070.00     92076.14
 1188.45        2962.75           1401       27177.00    118866.90
 1188.48        2963.00           1404       31741.00    138916.90
 1188.51        2963.25           1407       36508.00    159884.50
 1188.54        2963.50           1411       43146.00    189125.80
 1188.57        2963.75           1414       48314.00    211927.30
 1188.60        2964.00           1417       53107.00    233102.20
 1188.63        2964.25           1421       59650.00    262052.10
 1188.66        2964.50           1424       64875.00    285206.70
 1188.69        2964.75           1427       69934.00    307656.50
 1188.72        2965.00           1431       76504.00    336857.00
 1188.75        2965.25           1434       81482.00    359016.10
 1188.78        2965.50           1437       85977.00    379050.60
 1188.81        2965.75           1441       92176.00    406719.80
 1188.83        2966.00           1444       96074.00    424142.20
 1188.86        2966.25           1447       99387.00    438964.30
 1188.89        2966.50           1451      103451.00    457164.50
 1188.92        2966.75           1454      105388.00    465846.10
 1188.95        2967.00           1457      106847.00    472388.40
 1188.98        2967.25           1461      107777.00    476560.00
 1189.01        2967.50           1464      106926.00    472742.70
 1189.04        2967.75           1467      105307.00    465483.00
 1189.07        2968.00           1471      102657.00    453607.00
 1189.10        2968.25           1474       99813.00    440871.10
 1189.13        2968.50           1477       95565.00    421866.10
 1189.16        2968.75           1481       89241.00    393613.60
 1189.19        2969.00           1484       84663.00    373191.50
 1189.22        2969.25           1487       80359.00    354014.50
 1189.25        2969.50           1491       74016.00    325793.00
 1189.27        2969.75           1494       69594.00    306146.80
 1189.30        2970.00           1498       62970.00    276760.90
 1189.33        2970.25           1501       58119.00    255273.50
 1189.36        2970.50           1504       53838.00    236334.00
 1189.39        2970.75           1508       47088.00    206515.30
 1189.42        2971.00           1511       42003.00    184087.10
 1189.45        2971.25           1514       37257.00    163181.40
 1189.48        2971.50           1518       30518.00    133541.80
 1189.51        2971.75           1521       25222.00    110285.80
 1189.54        2972.00           1524       20073.00     87706.49
 1189.57        2972.25           1528       13726.00     59915.80
 1189.60        2972.50           1531        9452.00     41227.95
 1189.63        2972.75           1534        6447.00     28101.27
 1189.66        2973.00           1538        3294.00     14339.21
 1189.69        2973.25           1541        1651.00      7172.42
 1189.72        2973.50           1544         789.00      3413.60
 1189.75        2973.75           1548         330.00      1412.44
 1189.78        2974.00           1551         203.00       858.78
 1189.80        2974.25           1554         159.00       666.97
 1189.83        2974.50           1558         139.00       579.78
 1189.86        2974.75           1561         132.00       549.27
 1189.89        2975.00           1565         119.00       492.60
 1189.92        2975.25           1568         115.00       475.16
 1189.95        2975.50           1571         123.00       510.03
 1189.98        2975.75           1575         110.00       453.36
 1190.01        2976.00           1578         115.00       475.16
 1190.04        2976.25           1581         120.00       496.96
 1190.07        2976.50           1585         116.00       479.52
 1190.10        2976.75           1588         113.00       466.44
 1190.13        2977.00           1591         118.00       488.24
 1190.16        2977.25           1595         112.00       462.08
 1190.19        2977.50           1598         107.00       440.28
 1190.22        2977.75           1601         120.00       496.96
 1190.25        2978.00           1605         108.00       444.64
 1190.28        2978.25           1608         111.00       457.72
 1190.31        2978.50           1611         114.00       470.80
 1190.33        2978.75           1615         122.00       505.67
 1190.36        2979.00           1618         107.00       440.28
 1190.39        2979.25           1622         107.00       440.28
 1190.42        2979.50           1625         108.00       444.64
 1190.45        2979.75           1628         115.00       475.16
 1190.48        2980.00           1632         107.00       440.28
 1190.51        2980.25           1635         107.00       440.28
 1190.54        2980.50           1638         105.00       431.57
 1190.57        2980.75           1642         111.00       457.72
 1190.60        2981.00           1645         108.00       444.64
 1190.63        2981.25           1648         110.00       453.36
 1190.66        2981.50           1652         101.00       414.13
 1190.69        2981.75           1655         107.00       440.28
 1190.72        2982.00           1658         112.00       462.08
 1190.75        2982.25           1662         111.00       457.72
 1190.78        2982.50           1665         108.00       444.64
 1190.81        2982.75           1669         103.00       422.85
 1190.84        2983.00           1672         103.00       422.85
 1190.87        2983.25           1675         109.00       449.00
 1190.90        2983.50           1679          96.00       392.33
 1190.92        2983.75           1682         104.00       427.21
 1190.95        2984.00           1685         110.00       453.36
HS scan finished at 19:51:10
end
