************************************************************
  HS Scan of (1) Internal mercury lamp
************************************************************
Integration time is 0.2294 seconds per sample
dh010818arosa 46.7828-9.6754 3.17466pr812
************************************************************
Dead Time -------------------------  3E-08 
Number of Cycles Used -------------  4 
Starting Wavelength (Angstroms) ---  2950 
Final Wavelength (Angstoms) -------  2984 
Wavelength Increment (Angstroms) --  .25 
Filter Wheel #1 Position ---------- (1) Ground quartz diffuser (ND=2.32)
Filter Wheel #2 Position ---------- (1) Neutral Density 0.494



************************************************************
HS scan start time = 02:38:08
Dark Count =  5.6 


Time (GMT)  Wavelength (Ang)  Step Number  Raw Counts  Counts/Second

  158.46        2950.00           1230         124.00       516.14
  158.53        2950.25           1234         124.00       516.14
  158.55        2950.50           1237         131.00       546.65
  158.58        2950.75           1240         131.00       546.65
  158.61        2951.00           1244         122.00       507.42
  158.64        2951.25           1247         133.00       555.37
  158.67        2951.50           1250         130.00       542.29
  158.70        2951.75           1254         128.00       533.57
  158.73        2952.00           1257         131.00       546.65
  158.76        2952.25           1260         118.00       489.98
  158.79        2952.50           1264         127.00       529.22
  158.82        2952.75           1267         127.00       529.22
  158.85        2953.00           1270         133.00       555.37
  158.88        2953.25           1274         111.00       459.47
  158.91        2953.50           1277         129.00       537.93
  158.94        2953.75           1280         119.00       494.34
  158.97        2954.00           1284         108.00       446.39
  159.00        2954.25           1287         130.00       542.29
  159.03        2954.50           1290         136.00       568.45
  159.06        2954.75           1294         120.00       498.70
  159.08        2955.00           1297         128.00       533.57
  159.11        2955.25           1300         117.00       485.62
  159.14        2955.50           1304         114.00       472.54
  159.17        2955.75           1307         124.00       516.14
  159.20        2956.00           1310         123.00       511.78
  159.23        2956.25           1314         116.00       481.26
  159.26        2956.50           1317         120.00       498.70
  159.29        2956.75           1320         114.00       472.54
  159.32        2957.00           1324         121.00       503.06
  159.35        2957.25           1327         129.00       537.93
  159.38        2957.50           1330         129.00       537.93
  159.41        2957.75           1334         117.00       485.62
  159.44        2958.00           1337         113.00       468.18
  159.47        2958.25           1340         118.00       489.98
  159.50        2958.50           1344         126.00       524.86
  159.53        2958.75           1347         117.00       485.62
  159.56        2959.00           1350         111.00       459.47
  159.59        2959.25           1354         121.00       503.06
  159.62        2959.50           1357         125.00       520.50
  159.65        2959.75           1360         124.00       516.14
  159.67        2960.00           1364         129.00       537.93
  159.70        2960.25           1367         137.00       572.81
  159.73        2960.50           1370         167.00       703.59
  159.76        2960.75           1374         379.00      1627.80
  159.79        2961.00           1377        1015.00      4400.76
  159.82        2961.25           1380        2189.00      9520.59
  159.85        2961.50           1384        4903.00     21362.43
  159.88        2961.75           1387        7715.00     33640.74
  159.91        2962.00           1391       12390.00     54073.71
  159.94        2962.25           1394       16708.00     72968.63
  159.97        2962.50           1397       21367.00     93379.81
  160.00        2962.75           1401       27567.00    120581.00
  160.03        2963.00           1404       32218.00    141015.50
  160.06        2963.25           1407       37299.00    163368.00
  160.09        2963.50           1411       43685.00    191504.20
  160.12        2963.75           1414       48768.00    213933.60
  160.15        2964.00           1417       53765.00    236013.00
  160.18        2964.25           1421       60565.00    266106.30
  160.21        2964.50           1424       65647.00    288632.30
  160.23        2964.75           1427       70644.00    310811.40
  160.26        2965.00           1431       77070.00    339376.70
  160.29        2965.25           1434       81862.00    360710.60
  160.32        2965.50           1437       87072.00    383936.50
  160.35        2965.75           1441       93224.00    411403.90
  160.38        2966.00           1444       97308.00    429663.20
  160.41        2966.25           1447      101034.00    446339.50
  160.44        2966.50           1451      104500.00    461867.30
  160.47        2966.75           1454      106467.00    470686.00
  160.50        2967.00           1457      107632.00    475911.30
  160.53        2967.25           1461      107930.00    477248.10
  160.56        2967.50           1464      107759.00    476481.00
  160.59        2967.75           1467      106212.00    469542.50
  160.62        2968.00           1471      103079.00    455499.40
  160.65        2968.25           1474       99393.00    438992.90
  160.68        2968.50           1477       95426.00    421246.40
  160.71        2968.75           1481       89401.00    394329.70
  160.74        2969.00           1484       84798.00    373795.10
  160.76        2969.25           1487       79986.00    352355.40
  160.79        2969.50           1491       73595.00    323923.30
  160.82        2969.75           1494       68886.00    303005.20
  160.85        2970.00           1498       62758.00    275823.10
  160.88        2970.25           1501       57528.00    252659.40
  160.91        2970.50           1504       52782.00    231667.30
  160.94        2970.75           1508       46314.00    203101.20
  160.97        2971.00           1511       41561.00    182140.80
  161.00        2971.25           1514       36371.00    159283.30
  161.03        2971.50           1518       29771.00    130261.30
  161.06        2971.75           1521       24274.00    106128.10
  161.09        2972.00           1524       19430.00     84890.72
  161.12        2972.25           1528       13289.00     58005.82
  161.15        2972.50           1531        9212.00     40180.93
  161.18        2972.75           1534        6182.00     26945.93
  161.21        2973.00           1538        3052.00     13285.15
  161.24        2973.25           1541        1540.00      6690.10
  161.27        2973.50           1544         776.00      3358.66
  161.30        2973.75           1548         304.00      1300.84
  161.33        2974.00           1551         170.00       716.67
  161.36        2974.25           1554         150.00       629.48
  161.39        2974.50           1558         144.00       603.32
  161.42        2974.75           1561         136.00       568.45
  161.45        2975.00           1565         131.00       546.65
  161.48        2975.25           1568         125.00       520.50
  161.51        2975.50           1571         114.00       472.54
  161.54        2975.75           1575          99.00       407.15
  161.56        2976.00           1578         118.00       489.98
  161.59        2976.25           1581         110.00       455.11
  161.62        2976.50           1585         107.00       442.03
  161.65        2976.75           1588         111.00       459.47
  161.68        2977.00           1591         116.00       481.26
  161.71        2977.25           1595         126.00       524.86
  161.74        2977.50           1598         117.00       485.62
  161.77        2977.75           1601         104.00       428.95
  161.80        2978.00           1605         110.00       455.11
  161.83        2978.25           1608         111.00       459.47
  161.86        2978.50           1611         107.00       442.03
  161.89        2978.75           1615         111.00       459.47
  161.92        2979.00           1618         106.00       437.67
  161.95        2979.25           1622         110.00       455.11
  161.98        2979.50           1625         112.00       463.83
  162.01        2979.75           1628         121.00       503.06
  162.04        2980.00           1632         116.00       481.26
  162.07        2980.25           1635         110.00       455.11
  162.10        2980.50           1638         111.00       459.47
  162.13        2980.75           1642         114.00       472.54
  162.16        2981.00           1645         102.00       420.23
  162.18        2981.25           1648         101.00       415.87
  162.21        2981.50           1652         108.00       446.39
  162.24        2981.75           1655         111.00       459.47
  162.27        2982.00           1658         100.00       411.51
  162.30        2982.25           1662         106.00       437.67
  162.33        2982.50           1665         105.00       433.31
  162.36        2982.75           1669         101.00       415.87
  162.39        2983.00           1672          97.00       398.44
  162.42        2983.25           1675         107.00       442.03
  162.45        2983.50           1679         105.00       433.31
  162.48        2983.75           1682         112.00       463.83
  162.51        2984.00           1685         114.00       472.54
HS scan finished at 02:42:44
end
************************************************************
  HS Scan of (1) Internal mercury lamp
************************************************************
Integration time is 0.2294 seconds per sample
dh010818arosa 46.7828-9.6754 3.067596pr812
************************************************************
Dead Time -------------------------  3E-08 
Number of Cycles Used -------------  4 
Starting Wavelength (Angstroms) ---  2950 
Final Wavelength (Angstoms) -------  2984 
Wavelength Increment (Angstroms) --  .25 
Filter Wheel #1 Position ---------- (1) Ground quartz diffuser (ND=2.32)
Filter Wheel #2 Position ---------- (1) Neutral Density 0.494



************************************************************
HS scan start time = 19:18:21
Dark Count =  5.6 


Time (GMT)  Wavelength (Ang)  Step Number  Raw Counts  Counts/Second

 1158.68        2950.00           1230         122.00       507.42
 1158.74        2950.25           1234         133.00       555.37
 1158.77        2950.50           1237         127.00       529.22
 1158.80        2950.75           1240         133.00       555.37
 1158.83        2951.00           1244         125.00       520.50
 1158.86        2951.25           1247         130.00       542.29
 1158.89        2951.50           1250         133.00       555.37
 1158.92        2951.75           1254         127.00       529.22
 1158.95        2952.00           1257         122.00       507.42
 1158.98        2952.25           1260         130.00       542.29
 1159.01        2952.50           1264         137.00       572.81
 1159.04        2952.75           1267         121.00       503.06
 1159.07        2953.00           1270         140.00       585.89
 1159.10        2953.25           1274         124.00       516.14
 1159.13        2953.50           1277         134.00       559.73
 1159.16        2953.75           1280         127.00       529.22
 1159.19        2954.00           1284         122.00       507.42
 1159.22        2954.25           1287         118.00       489.98
 1159.25        2954.50           1290         135.00       564.09
 1159.28        2954.75           1294         122.00       507.42
 1159.30        2955.00           1297         127.00       529.22
 1159.33        2955.25           1300         130.00       542.29
 1159.36        2955.50           1304         124.00       516.14
 1159.39        2955.75           1307         125.00       520.50
 1159.42        2956.00           1310         123.00       511.78
 1159.45        2956.25           1314         130.00       542.29
 1159.48        2956.50           1317         124.00       516.14
 1159.51        2956.75           1320         125.00       520.50
 1159.54        2957.00           1324         120.00       498.70
 1159.57        2957.25           1327         120.00       498.70
 1159.60        2957.50           1330         117.00       485.62
 1159.63        2957.75           1334         127.00       529.22
 1159.66        2958.00           1337         122.00       507.42
 1159.68        2958.25           1340         117.00       485.62
 1159.71        2958.50           1344         132.00       551.01
 1159.74        2958.75           1347         131.00       546.65
 1159.77        2959.00           1350         129.00       537.93
 1159.80        2959.25           1354         116.00       481.26
 1159.83        2959.50           1357         134.00       559.73
 1159.86        2959.75           1360         128.00       533.57
 1159.89        2960.00           1364         133.00       555.37
 1159.92        2960.25           1367         132.00       551.01
 1159.95        2960.50           1370         145.00       607.68
 1159.98        2960.75           1374         356.00      1527.53
 1160.01        2961.00           1377         946.00      4099.89
 1160.04        2961.25           1380        2112.00      9184.74
 1160.07        2961.50           1384        4613.00     20096.68
 1160.10        2961.75           1387        7478.00     32605.55
 1160.13        2962.00           1391       11756.00     51301.21
 1160.15        2962.25           1394       15865.00     69278.10
 1160.18        2962.50           1397       20379.00     89049.27
 1160.21        2962.75           1401       26152.00    114369.10
 1160.24        2963.00           1404       30454.00    133262.30
 1160.27        2963.25           1407       35108.00    153725.60
 1160.30        2963.50           1411       41119.00    180192.90
 1160.33        2963.75           1414       46124.00    202262.80
 1160.36        2964.00           1417       50448.00    221353.50
 1160.39        2964.25           1421       56565.00    248397.80
 1160.42        2964.50           1424       61745.00    271334.00
 1160.45        2964.75           1427       66524.00    292522.80
 1160.48        2965.00           1431       72975.00    321167.70
 1160.51        2965.25           1434       77539.00    341463.50
 1160.54        2965.50           1437       82136.00    361931.20
 1160.57        2965.75           1441       87703.00    386751.70
 1160.60        2966.00           1444       91570.00    404014.60
 1160.63        2966.25           1447       95104.00    419806.70
 1160.66        2966.50           1451       98307.00    434132.80
 1160.69        2966.75           1454      100079.00    442063.70
 1160.72        2967.00           1457      101540.00    448605.50
 1160.75        2967.25           1461      102144.00    451310.80
 1160.78        2967.50           1464      101489.00    448377.10
 1160.81        2967.75           1467      100046.00    441915.90
 1160.84        2968.00           1471       96989.00    428236.20
 1160.87        2968.25           1474       94427.00    416780.30
 1160.90        2968.50           1477       90473.00    399115.60
 1160.92        2968.75           1481       84637.00    373077.40
 1160.95        2969.00           1484       80167.00    353161.30
 1160.98        2969.25           1487       76198.00    335497.60
 1161.01        2969.50           1491       69938.00    307676.10
 1161.04        2969.75           1494       65642.00    288610.10
 1161.07        2970.00           1498       59506.00    261416.20
 1161.10        2970.25           1501       54970.00    241341.80
 1161.13        2970.50           1504       50761.00    222736.20
 1161.16        2970.75           1508       44417.00    194732.40
 1161.19        2971.00           1511       39643.00    173690.00
 1161.22        2971.25           1514       35074.00    153576.00
 1161.25        2971.50           1518       28482.00    124599.10
 1161.28        2971.75           1521       23749.00    103825.10
 1161.31        2972.00           1524       18661.00     81521.72
 1161.34        2972.25           1528       12910.00     56348.01
 1161.37        2972.50           1531        9074.00     39577.92
 1161.39        2972.75           1534        6036.00     26308.46
 1161.42        2973.00           1538        3001.00     13062.66
 1161.45        2973.25           1541        1566.00      6803.48
 1161.48        2973.50           1544         768.00      3323.78
 1161.51        2973.75           1548         305.00      1305.20
 1161.54        2974.00           1551         202.00       856.17
 1161.57        2974.25           1554         166.00       699.23
 1161.60        2974.50           1558         154.00       646.92
 1161.63        2974.75           1561         141.00       590.25
 1161.66        2975.00           1565         124.00       516.14
 1161.69        2975.25           1568         122.00       507.42
 1161.72        2975.50           1571         117.00       485.62
 1161.75        2975.75           1575         118.00       489.98
 1161.78        2976.00           1578         120.00       498.70
 1161.81        2976.25           1581         110.00       455.11
 1161.84        2976.50           1585         119.00       494.34
 1161.87        2976.75           1588         118.00       489.98
 1161.90        2977.00           1591         110.00       455.11
 1161.93        2977.25           1595         117.00       485.62
 1161.95        2977.50           1598         117.00       485.62
 1161.98        2977.75           1601         114.00       472.54
 1162.01        2978.00           1605         115.00       476.90
 1162.04        2978.25           1608         122.00       507.42
 1162.07        2978.50           1611         119.00       494.34
 1162.10        2978.75           1615         113.00       468.18
 1162.13        2979.00           1618         109.00       450.75
 1162.16        2979.25           1622         111.00       459.47
 1162.19        2979.50           1625         117.00       485.62
 1162.22        2979.75           1628         110.00       455.11
 1162.25        2980.00           1632         106.00       437.67
 1162.28        2980.25           1635         108.00       446.39
 1162.31        2980.50           1638         111.00       459.47
 1162.34        2980.75           1642         110.00       455.11
 1162.37        2981.00           1645         105.00       433.31
 1162.40        2981.25           1648         105.00       433.31
 1162.43        2981.50           1652         108.00       446.39
 1162.45        2981.75           1655         107.00       442.03
 1162.48        2982.00           1658         112.00       463.83
 1162.51        2982.25           1662         111.00       459.47
 1162.54        2982.50           1665         102.00       420.23
 1162.57        2982.75           1669         110.00       455.11
 1162.60        2983.00           1672         115.00       476.90
 1162.63        2983.25           1675         109.00       450.75
 1162.66        2983.50           1679         108.00       446.39
 1162.69        2983.75           1682         111.00       459.47
 1162.72        2984.00           1685         110.00       455.11
HS scan finished at 19:22:56
end
