************************************************************
  HS Scan of (1) Internal mercury lamp
************************************************************
Integration time is 0.2294 seconds per sample
dh040818arosa 46.7828-9.6754 3.169562pr812
************************************************************
Dead Time -------------------------  3E-08 
Number of Cycles Used -------------  4 
Starting Wavelength (Angstroms) ---  2950 
Final Wavelength (Angstoms) -------  2984 
Wavelength Increment (Angstroms) --  .25 
Filter Wheel #1 Position ---------- (1) Ground quartz diffuser (ND=2.32)
Filter Wheel #2 Position ---------- (1) Neutral Density 0.494



************************************************************
HS scan start time = 02:43:45
Dark Count =  5.7 


Time (GMT)  Wavelength (Ang)  Step Number  Raw Counts  Counts/Second

  164.07        2950.00           1230         133.00       554.94
  164.14        2950.25           1234         118.00       489.55
  164.17        2950.50           1237         120.00       498.26
  164.20        2950.75           1240         127.00       528.78
  164.23        2951.00           1244         116.00       480.83
  164.26        2951.25           1247         130.00       541.86
  164.29        2951.50           1250         125.00       520.06
  164.32        2951.75           1254         123.00       511.34
  164.35        2952.00           1257         118.00       489.55
  164.38        2952.25           1260         122.00       506.98
  164.41        2952.50           1264         126.00       524.42
  164.43        2952.75           1267         129.00       537.50
  164.46        2953.00           1270         130.00       541.86
  164.49        2953.25           1274         119.00       493.90
  164.52        2953.50           1277         115.00       476.47
  164.55        2953.75           1280         114.00       472.11
  164.58        2954.00           1284         121.00       502.62
  164.61        2954.25           1287         120.00       498.26
  164.64        2954.50           1290         123.00       511.34
  164.67        2954.75           1294         125.00       520.06
  164.70        2955.00           1297         125.00       520.06
  164.73        2955.25           1300         118.00       489.55
  164.76        2955.50           1304         124.00       515.70
  164.79        2955.75           1307         124.00       515.70
  164.82        2956.00           1310         124.00       515.70
  164.85        2956.25           1314         128.00       533.14
  164.88        2956.50           1317         120.00       498.26
  164.91        2956.75           1320         110.00       454.67
  164.94        2957.00           1324         115.00       476.47
  164.96        2957.25           1327         124.00       515.70
  164.99        2957.50           1330         121.00       502.62
  165.02        2957.75           1334         121.00       502.62
  165.05        2958.00           1337         126.00       524.42
  165.08        2958.25           1340         115.00       476.47
  165.11        2958.50           1344         112.00       463.39
  165.14        2958.75           1347         117.00       485.19
  165.17        2959.00           1350         121.00       502.62
  165.20        2959.25           1354         136.00       568.01
  165.23        2959.50           1357         109.00       450.31
  165.26        2959.75           1360         129.00       537.50
  165.29        2960.00           1364         135.00       563.65
  165.32        2960.25           1367         142.00       594.17
  165.35        2960.50           1370         159.00       668.28
  165.38        2960.75           1374         365.00      1566.33
  165.41        2961.00           1377         952.00      4125.62
  165.44        2961.25           1380        2317.00     10078.46
  165.47        2961.50           1384        4843.00     21100.10
  165.50        2961.75           1387        7842.00     34195.05
  165.53        2962.00           1391       12391.00     54077.64
  165.56        2962.25           1394       16524.00     72162.60
  165.58        2962.50           1397       21219.00     92730.59
  165.61        2962.75           1401       27384.00    119777.10
  165.64        2963.00           1404       31931.00    139753.40
  165.67        2963.25           1407       36705.00    160752.90
  165.70        2963.50           1411       43329.00    189934.00
  165.73        2963.75           1414       48319.00    211950.70
  165.76        2964.00           1417       53130.00    233205.20
  165.79        2964.25           1421       60057.00    263855.90
  165.82        2964.50           1424       65358.00    287350.10
  165.85        2964.75           1427       70099.00    308390.50
  165.88        2965.00           1431       76668.00    337587.80
  165.91        2965.25           1434       81847.00    360643.30
  165.94        2965.50           1437       86739.00    382450.60
  165.97        2965.75           1441       92694.00    409035.30
  166.00        2966.00           1444       96492.00    426012.90
  166.03        2966.25           1447      100464.00    443786.80
  166.06        2966.50           1451      104174.00    460405.70
  166.09        2966.75           1454      106206.00    469515.10
  166.12        2967.00           1457      107447.00    475080.90
  166.15        2967.25           1461      107667.00    476067.80
  166.18        2967.50           1464      107583.00    475691.00
  166.21        2967.75           1467      105694.00    467219.30
  166.24        2968.00           1471      102869.00    454558.10
  166.26        2968.25           1474       99483.00    439395.30
  166.29        2968.50           1477       95719.00    422556.10
  166.32        2968.75           1481       89938.00    396726.50
  166.35        2969.00           1484       85344.00    376229.10
  166.38        2969.25           1487       80879.00    356331.60
  166.41        2969.50           1491       74247.00    326821.20
  166.44        2969.75           1494       69672.00    306494.50
  166.47        2970.00           1498       63064.00    277178.90
  166.50        2970.25           1501       58050.00    254969.50
  166.53        2970.50           1504       53641.00    235464.30
  166.56        2970.75           1508       47266.00    207302.30
  166.59        2971.00           1511       42314.00    185459.30
  166.62        2971.25           1514       37603.00    164705.90
  166.65        2971.50           1518       30313.00    132642.30
  166.68        2971.75           1521       25260.00    110453.90
  166.71        2972.00           1524       20157.00     88075.92
  166.74        2972.25           1528       13931.00     60813.99
  166.77        2972.50           1531        9667.00     42168.83
  166.80        2972.75           1534        6449.00     28111.32
  166.83        2973.00           1538        3139.00     13664.28
  166.85        2973.25           1541        1624.00      7055.98
  166.88        2973.50           1544         795.00      3441.07
  166.91        2973.75           1548         312.00      1335.28
  166.94        2974.00           1551         194.00       820.86
  166.97        2974.25           1554         152.00       637.76
  167.00        2974.50           1558         139.00       581.09
  167.03        2974.75           1561         134.00       559.29
  167.06        2975.00           1565         123.00       511.34
  167.09        2975.25           1568         124.00       515.70
  167.12        2975.50           1571         109.00       450.31
  167.15        2975.75           1575         117.00       485.19
  167.18        2976.00           1578         113.00       467.75
  167.21        2976.25           1581         119.00       493.90
  167.24        2976.50           1585         108.00       445.95
  167.27        2976.75           1588         114.00       472.11
  167.30        2977.00           1591         117.00       485.19
  167.32        2977.25           1595         112.00       463.39
  167.35        2977.50           1598         108.00       445.95
  167.38        2977.75           1601         109.00       450.31
  167.41        2978.00           1605         116.00       480.83
  167.44        2978.25           1608         112.00       463.39
  167.47        2978.50           1611         111.00       459.03
  167.50        2978.75           1615         112.00       463.39
  167.53        2979.00           1618         105.00       432.87
  167.56        2979.25           1622          99.00       406.72
  167.59        2979.50           1625         105.00       432.87
  167.62        2979.75           1628         101.00       415.44
  167.65        2980.00           1632         106.00       437.23
  167.68        2980.25           1635         102.00       419.80
  167.71        2980.50           1638         100.00       411.08
  167.74        2980.75           1642         110.00       454.67
  167.77        2981.00           1645         112.00       463.39
  167.80        2981.25           1648         106.00       437.23
  167.82        2981.50           1652         111.00       459.03
  167.85        2981.75           1655         101.00       415.44
  167.88        2982.00           1658         105.00       432.87
  167.91        2982.25           1662         113.00       467.75
  167.94        2982.50           1665         100.00       411.08
  167.97        2982.75           1669         106.00       437.23
  168.00        2983.00           1672         103.00       424.16
  168.03        2983.25           1675         103.00       424.16
  168.06        2983.50           1679         115.00       476.47
  168.09        2983.75           1682         108.00       445.95
  168.12        2984.00           1685          98.00       402.36
HS scan finished at 02:48:20
end
************************************************************
  HS Scan of (1) Internal mercury lamp
************************************************************
Integration time is 0.2294 seconds per sample
dh040818arosa 46.7828-9.6754 3.20525pr812
************************************************************
Dead Time -------------------------  3E-08 
Number of Cycles Used -------------  4 
Starting Wavelength (Angstroms) ---  2950 
Final Wavelength (Angstoms) -------  2984 
Wavelength Increment (Angstroms) --  .25 
Filter Wheel #1 Position ---------- (1) Ground quartz diffuser (ND=2.32)
Filter Wheel #2 Position ---------- (1) Neutral Density 0.494



************************************************************
HS scan start time = 19:53:30
Dark Count =  7.1 


Time (GMT)  Wavelength (Ang)  Step Number  Raw Counts  Counts/Second

 1193.82        2950.00           1230         123.00       505.24
 1193.88        2950.25           1234         121.00       496.52
 1193.91        2950.50           1237         126.00       518.32
 1193.94        2950.75           1240         119.00       487.80
 1193.97        2951.00           1244         125.00       513.96
 1194.00        2951.25           1247         123.00       505.24
 1194.03        2951.50           1250         126.00       518.32
 1194.06        2951.75           1254         132.00       544.47
 1194.09        2952.00           1257         122.00       500.88
 1194.12        2952.25           1260         130.00       535.75
 1194.15        2952.50           1264         122.00       500.88
 1194.18        2952.75           1267         121.00       496.52
 1194.21        2953.00           1270         116.00       474.72
 1194.24        2953.25           1274         115.00       470.36
 1194.27        2953.50           1277         134.00       553.19
 1194.30        2953.75           1280         126.00       518.32
 1194.33        2954.00           1284         127.00       522.68
 1194.35        2954.25           1287         129.00       531.39
 1194.38        2954.50           1290         123.00       505.24
 1194.41        2954.75           1294         122.00       500.88
 1194.44        2955.00           1297         127.00       522.68
 1194.47        2955.25           1300         125.00       513.96
 1194.50        2955.50           1304         125.00       513.96
 1194.53        2955.75           1307         120.00       492.16
 1194.56        2956.00           1310         118.00       483.44
 1194.59        2956.25           1314         114.00       466.00
 1194.62        2956.50           1317         132.00       544.47
 1194.65        2956.75           1320         115.00       470.36
 1194.68        2957.00           1324         120.00       492.16
 1194.71        2957.25           1327         122.00       500.88
 1194.74        2957.50           1330         118.00       483.44
 1194.77        2957.75           1334         122.00       500.88
 1194.80        2958.00           1337         135.00       557.55
 1194.83        2958.25           1340         120.00       492.16
 1194.86        2958.50           1344         124.00       509.60
 1194.88        2958.75           1347         121.00       496.52
 1194.91        2959.00           1350         122.00       500.88
 1194.94        2959.25           1354         118.00       483.44
 1194.97        2959.50           1357         114.00       466.00
 1195.00        2959.75           1360         128.00       527.04
 1195.03        2960.00           1364         132.00       544.47
 1195.06        2960.25           1367         146.00       605.50
 1195.09        2960.50           1370         146.00       605.50
 1195.12        2960.75           1374         388.00      1660.50
 1195.15        2961.00           1377        1004.00      4346.25
 1195.18        2961.25           1380        2239.00      9732.14
 1195.21        2961.50           1384        4971.00     21652.68
 1195.24        2961.75           1387        8078.00     35219.85
 1195.27        2962.00           1391       12905.00     56319.58
 1195.30        2962.25           1394       17056.00     74485.79
 1195.33        2962.50           1397       21673.00     94714.71
 1195.36        2962.75           1401       27776.00    121492.10
 1195.39        2963.00           1404       32503.00    142261.90
 1195.42        2963.25           1407       37291.00    163326.20
 1195.45        2963.50           1411       44214.00    193830.50
 1195.48        2963.75           1414       49168.00    215693.30
 1195.51        2964.00           1417       53989.00    236996.90
 1195.53        2964.25           1421       60790.00    267096.40
 1195.56        2964.50           1424       66335.00    291677.60
 1195.59        2964.75           1427       71204.00    313292.10
 1195.62        2965.00           1431       78054.00    343748.60
 1195.65        2965.25           1434       82844.00    365079.10
 1195.68        2965.50           1437       87598.00    386276.50
 1195.71        2965.75           1441       93927.00    414538.80
 1195.74        2966.00           1444       97995.00    432730.00
 1195.77        2966.25           1447      101577.00    448764.50
 1195.80        2966.50           1451      105153.00    464787.70
 1195.83        2966.75           1454      107412.00    474917.70
 1195.86        2967.00           1457      108777.00    481041.70
 1195.89        2967.25           1461      109146.00    482697.70
 1195.92        2967.50           1464      108374.00    479233.40
 1195.95        2967.75           1467      106926.00    472737.80
 1195.98        2968.00           1471      103839.00    458898.20
 1196.00        2968.25           1474      100864.00    445571.60
 1196.03        2968.50           1477       97034.00    428430.80
 1196.06        2968.75           1481       90744.00    400319.00
 1196.09        2969.00           1484       85651.00    377591.90
 1196.12        2969.25           1487       81095.00    357287.40
 1196.15        2969.50           1491       74671.00    328700.10
 1196.18        2969.75           1494       70158.00    308646.40
 1196.21        2970.00           1498       63857.00    280688.00
 1196.24        2970.25           1501       58898.00    258717.40
 1196.27        2970.50           1504       54384.00    238743.50
 1196.30        2970.75           1508       47680.00    209123.50
 1196.33        2971.00           1511       42339.00    185563.30
 1196.36        2971.25           1514       37376.00    163700.40
 1196.39        2971.50           1518       30733.00    134481.80
 1196.42        2971.75           1521       25263.00    110460.90
 1196.45        2972.00           1524       19829.00     86632.44
 1196.48        2972.25           1528       13607.00     59390.38
 1196.51        2972.50           1531        9423.00     41096.41
 1196.54        2972.75           1534        6389.00     27843.21
 1196.57        2973.00           1538        3241.00     14103.18
 1196.60        2973.25           1541        1649.00      7158.91
 1196.63        2973.50           1544         797.00      3443.69
 1196.65        2973.75           1548         306.00      1303.02
 1196.68        2974.00           1551         196.00       823.47
 1196.71        2974.25           1554         165.00       688.33
 1196.74        2974.50           1558         138.00       570.63
 1196.77        2974.75           1561         126.00       518.32
 1196.80        2975.00           1565         117.00       479.08
 1196.83        2975.25           1568         117.00       479.08
 1196.86        2975.50           1571         119.00       487.80
 1196.89        2975.75           1575         113.00       461.65
 1196.92        2976.00           1578         106.00       431.13
 1196.95        2976.25           1581         109.00       444.21
 1196.98        2976.50           1585         114.00       466.00
 1197.01        2976.75           1588         115.00       470.36
 1197.03        2977.00           1591         119.00       487.80
 1197.06        2977.25           1595         105.00       426.77
 1197.09        2977.50           1598         102.00       413.69
 1197.12        2977.75           1601         108.00       439.85
 1197.15        2978.00           1605         115.00       470.36
 1197.18        2978.25           1608         106.00       431.13
 1197.21        2978.50           1611         111.00       452.93
 1197.24        2978.75           1615         115.00       470.36
 1197.27        2979.00           1618         115.00       470.36
 1197.30        2979.25           1622         107.00       435.49
 1197.33        2979.50           1625         104.00       422.41
 1197.36        2979.75           1628         121.00       496.52
 1197.39        2980.00           1632         114.00       466.00
 1197.42        2980.25           1635         114.00       466.00
 1197.45        2980.50           1638         111.00       452.93
 1197.48        2980.75           1642         104.00       422.41
 1197.51        2981.00           1645         115.00       470.36
 1197.54        2981.25           1648         109.00       444.21
 1197.57        2981.50           1652         106.00       431.13
 1197.60        2981.75           1655         105.00       426.77
 1197.62        2982.00           1658         105.00       426.77
 1197.65        2982.25           1662          96.00       387.54
 1197.68        2982.50           1665          96.00       387.54
 1197.71        2982.75           1669         106.00       431.13
 1197.74        2983.00           1672          93.00       374.46
 1197.77        2983.25           1675          97.00       391.90
 1197.80        2983.50           1679          94.00       378.82
 1197.83        2983.75           1682         116.00       474.72
 1197.86        2984.00           1685         107.00       435.49
HS scan finished at 19:58:05
end
