************************************************************
  HS Scan of (1) Internal mercury lamp
************************************************************
Integration time is 0.2294 seconds per sample
dh020818arosa 46.7828-9.6754 3.062497pr812
************************************************************
Dead Time -------------------------  3E-08 
Number of Cycles Used -------------  4 
Starting Wavelength (Angstroms) ---  2950 
Final Wavelength (Angstoms) -------  2984 
Wavelength Increment (Angstroms) --  .25 
Filter Wheel #1 Position ---------- (1) Ground quartz diffuser (ND=2.32)
Filter Wheel #2 Position ---------- (1) Neutral Density 0.494



************************************************************
HS scan start time = 02:40:50
Dark Count =  7 


Time (GMT)  Wavelength (Ang)  Step Number  Raw Counts  Counts/Second

  161.16        2950.00           1230         130.00       536.19
  161.23        2950.25           1234         133.00       549.27
  161.26        2950.50           1237         116.00       475.16
  161.28        2950.75           1240         129.00       531.83
  161.31        2951.00           1244         123.00       505.67
  161.34        2951.25           1247         132.00       544.91
  161.37        2951.50           1250         137.00       566.71
  161.40        2951.75           1254         115.00       470.80
  161.43        2952.00           1257         126.00       518.75
  161.46        2952.25           1260         120.00       492.60
  161.49        2952.50           1264         121.00       496.96
  161.52        2952.75           1267         123.00       505.67
  161.55        2953.00           1270         131.00       540.55
  161.58        2953.25           1274         120.00       492.60
  161.61        2953.50           1277         133.00       549.27
  161.64        2953.75           1280         129.00       531.83
  161.67        2954.00           1284         118.00       483.88
  161.70        2954.25           1287         123.00       505.67
  161.72        2954.50           1290         132.00       544.91
  161.76        2954.75           1294         125.00       514.39
  161.79        2955.00           1297         126.00       518.75
  161.81        2955.25           1300         126.00       518.75
  161.84        2955.50           1304         133.00       549.27
  161.87        2955.75           1307         119.00       488.24
  161.90        2956.00           1310         136.00       562.35
  161.93        2956.25           1314         122.00       501.32
  161.96        2956.50           1317         122.00       501.32
  161.99        2956.75           1320         121.00       496.96
  162.02        2957.00           1324         126.00       518.75
  162.05        2957.25           1327         128.00       527.47
  162.08        2957.50           1330         121.00       496.96
  162.11        2957.75           1334         124.00       510.03
  162.14        2958.00           1337         124.00       510.03
  162.17        2958.25           1340         116.00       475.16
  162.20        2958.50           1344         123.00       505.67
  162.23        2958.75           1347         118.00       483.88
  162.26        2959.00           1350         130.00       536.19
  162.29        2959.25           1354         122.00       501.32
  162.32        2959.50           1357         134.00       553.63
  162.35        2959.75           1360         136.00       562.35
  162.38        2960.00           1364         130.00       536.19
  162.41        2960.25           1367         144.00       597.22
  162.44        2960.50           1370         150.00       623.38
  162.46        2960.75           1374         312.00      1329.61
  162.49        2961.00           1377         785.00      3391.80
  162.52        2961.25           1380        1858.00      8070.83
  162.55        2961.50           1384        4266.00     18576.17
  162.58        2961.75           1387        7058.00     30765.09
  162.61        2962.00           1391       11413.00     49795.35
  162.64        2962.25           1394       15181.00     66278.13
  162.67        2962.50           1397       19461.00     85020.41
  162.70        2962.75           1401       25512.00    111554.10
  162.73        2963.00           1404       30026.00    131375.50
  162.76        2963.25           1407       34263.00    150002.20
  162.79        2963.50           1411       40393.00    176987.80
  162.82        2963.75           1414       45489.00    199455.00
  162.85        2964.00           1417       49969.00    219231.40
  162.88        2964.25           1421       56414.00    247723.50
  162.91        2964.50           1424       61713.00    271186.00
  162.94        2964.75           1427       66442.00    292152.70
  162.97        2965.00           1431       72551.00    319277.20
  163.00        2965.25           1434       77533.00    341430.60
  163.03        2965.50           1437       81816.00    360499.40
  163.06        2965.75           1441       87596.00    386268.00
  163.08        2966.00           1444       91504.00    403713.60
  163.11        2966.25           1447       95306.00    420703.60
  163.14        2966.50           1451       98995.00    437205.30
  163.17        2966.75           1454      101035.00    446337.80
  163.20        2967.00           1457      102254.00    451797.20
  163.23        2967.25           1461      102642.00    453535.30
  163.26        2967.50           1464      102053.00    450896.90
  163.29        2967.75           1467      100732.00    444981.00
  163.32        2968.00           1471       97632.00    431106.40
  163.35        2968.25           1474       94666.00    417842.40
  163.38        2968.50           1477       91000.00    401462.70
  163.41        2968.75           1481       85003.00    374702.90
  163.44        2969.00           1484       80995.00    356842.50
  163.47        2969.25           1487       76498.00    336825.80
  163.50        2969.50           1491       70589.00    310560.90
  163.53        2969.75           1494       65822.00    289402.40
  163.56        2970.00           1498       60282.00    264846.60
  163.59        2970.25           1501       55273.00    242675.80
  163.62        2970.50           1504       50815.00    222968.60
  163.65        2970.75           1508       45054.00    197535.90
  163.68        2971.00           1511       40025.00    175366.60
  163.71        2971.25           1514       35218.00    154203.40
  163.74        2971.50           1518       28913.00    126486.00
  163.76        2971.75           1521       24107.00    105389.40
  163.79        2972.00           1524       19402.00     84761.91
  163.82        2972.25           1528       13479.00     58830.86
  163.85        2972.50           1531        9347.00     40764.73
  163.88        2972.75           1534        6327.00     27572.93
  163.91        2973.00           1538        3248.00     14134.15
  163.94        2973.25           1541        1758.00      7634.70
  163.97        2973.50           1544         812.00      3509.52
  164.00        2973.75           1548         328.00      1399.36
  164.03        2974.00           1551         200.00       841.35
  164.06        2974.25           1554         151.00       627.74
  164.09        2974.50           1558         144.00       597.22
  164.12        2974.75           1561         120.00       492.60
  164.15        2975.00           1565         115.00       470.80
  164.18        2975.25           1568         109.00       444.64
  164.21        2975.50           1571         123.00       505.67
  164.24        2975.75           1575         127.00       523.11
  164.27        2976.00           1578         111.00       453.36
  164.30        2976.25           1581         120.00       492.60
  164.33        2976.50           1585         121.00       496.96
  164.35        2976.75           1588         110.00       449.00
  164.38        2977.00           1591         114.00       466.44
  164.41        2977.25           1595         111.00       453.36
  164.44        2977.50           1598         110.00       449.00
  164.47        2977.75           1601         110.00       449.00
  164.50        2978.00           1605         110.00       449.00
  164.53        2978.25           1608         115.00       470.80
  164.56        2978.50           1611         100.00       405.41
  164.59        2978.75           1615          98.00       396.69
  164.62        2979.00           1618         112.00       457.72
  164.65        2979.25           1622         117.00       479.52
  164.68        2979.50           1625         107.00       435.93
  164.71        2979.75           1628         106.00       431.57
  164.74        2980.00           1632          99.00       401.05
  164.77        2980.25           1635         110.00       449.00
  164.80        2980.50           1638         105.00       427.21
  164.83        2980.75           1642         103.00       418.49
  164.86        2981.00           1645         101.00       409.77
  164.88        2981.25           1648         110.00       449.00
  164.91        2981.50           1652         113.00       462.08
  164.94        2981.75           1655         114.00       466.44
  164.97        2982.00           1658          90.00       361.82
  165.00        2982.25           1662         106.00       431.57
  165.03        2982.50           1665         110.00       449.00
  165.06        2982.75           1669         104.00       422.85
  165.09        2983.00           1672         106.00       431.57
  165.12        2983.25           1675         106.00       431.57
  165.15        2983.50           1679         109.00       444.64
  165.18        2983.75           1682         103.00       418.49
  165.21        2984.00           1685         102.00       414.13
HS scan finished at 02:45:26
end
************************************************************
  HS Scan of (1) Internal mercury lamp
************************************************************
Integration time is 0.2294 seconds per sample
dh020818arosa 46.7828-9.6754 3.149169pr812
************************************************************
Dead Time -------------------------  3E-08 
Number of Cycles Used -------------  4 
Starting Wavelength (Angstroms) ---  2950 
Final Wavelength (Angstoms) -------  2984 
Wavelength Increment (Angstroms) --  .25 
Filter Wheel #1 Position ---------- (1) Ground quartz diffuser (ND=2.32)
Filter Wheel #2 Position ---------- (1) Neutral Density 0.494



************************************************************
HS scan start time = 19:44:35
Dark Count =  7.3 


Time (GMT)  Wavelength (Ang)  Step Number  Raw Counts  Counts/Second

 1184.92        2950.00           1230         132.00       543.60
 1184.98        2950.25           1234         130.00       534.88
 1185.01        2950.50           1237         125.00       513.09
 1185.04        2950.75           1240         125.00       513.09
 1185.07        2951.00           1244         131.00       539.24
 1185.10        2951.25           1247         132.00       543.60
 1185.13        2951.50           1250         126.00       517.44
 1185.16        2951.75           1254         124.00       508.73
 1185.19        2952.00           1257         126.00       517.44
 1185.22        2952.25           1260         124.00       508.73
 1185.25        2952.50           1264         123.00       504.37
 1185.28        2952.75           1267         120.00       491.29
 1185.30        2953.00           1270         130.00       534.88
 1185.33        2953.25           1274         125.00       513.09
 1185.36        2953.50           1277         118.00       482.57
 1185.39        2953.75           1280         130.00       534.88
 1185.42        2954.00           1284         111.00       452.05
 1185.45        2954.25           1287         114.00       465.13
 1185.48        2954.50           1290         124.00       508.73
 1185.51        2954.75           1294         117.00       478.21
 1185.54        2955.00           1297         121.00       495.65
 1185.57        2955.25           1300         117.00       478.21
 1185.60        2955.50           1304         114.00       465.13
 1185.63        2955.75           1307         114.00       465.13
 1185.66        2956.00           1310         120.00       491.29
 1185.68        2956.25           1314         116.00       473.85
 1185.71        2956.50           1317         116.00       473.85
 1185.74        2956.75           1320         117.00       478.21
 1185.77        2957.00           1324         119.00       486.93
 1185.80        2957.25           1327         127.00       521.80
 1185.83        2957.50           1330         119.00       486.93
 1185.86        2957.75           1334         120.00       491.29
 1185.89        2958.00           1337         123.00       504.37
 1185.92        2958.25           1340         116.00       473.85
 1185.95        2958.50           1344         124.00       508.73
 1185.98        2958.75           1347         121.00       495.65
 1186.01        2959.00           1350         122.00       500.01
 1186.04        2959.25           1354         121.00       495.65
 1186.07        2959.50           1357         118.00       482.57
 1186.10        2959.75           1360         118.00       482.57
 1186.12        2960.00           1364         126.00       517.44
 1186.15        2960.25           1367         129.00       530.52
 1186.18        2960.50           1370         153.00       635.15
 1186.21        2960.75           1374         323.00      1376.26
 1186.24        2961.00           1377         875.00      3782.91
 1186.27        2961.25           1380        2079.00      9033.40
 1186.30        2961.50           1384        4589.00     19984.52
 1186.33        2961.75           1387        7466.00     32545.71
 1186.36        2962.00           1391       12073.00     52679.97
 1186.39        2962.25           1394       16190.00     70693.36
 1186.42        2962.50           1397       20669.00     90312.80
 1186.45        2962.75           1401       26485.00    115823.30
 1186.48        2963.00           1404       31189.00    136484.90
 1186.51        2963.25           1407       35683.00    156248.10
 1186.54        2963.50           1411       42465.00    186117.80
 1186.57        2963.75           1414       47599.00    208765.00
 1186.60        2964.00           1417       51773.00    227200.30
 1186.63        2964.25           1421       58554.00    257193.50
 1186.65        2964.50           1424       63924.00    280984.20
 1186.68        2964.75           1427       68462.00    301115.50
 1186.71        2965.00           1431       75560.00    332652.40
 1186.74        2965.25           1434       80581.00    354997.40
 1186.77        2965.50           1437       85064.00    374973.50
 1186.80        2965.75           1441       91227.00    402475.10
 1186.83        2966.00           1444       94842.00    418627.80
 1186.86        2966.25           1447       98648.00    435651.10
 1186.89        2966.50           1451      102161.00    451379.30
 1186.92        2966.75           1454      104452.00    461644.60
 1186.95        2967.00           1457      105739.00    467414.00
 1186.98        2967.25           1461      106132.00    469176.20
 1187.01        2967.50           1464      106040.00    468763.70
 1187.04        2967.75           1467      104493.00    461828.30
 1187.07        2968.00           1471      101549.00    448638.30
 1187.10        2968.25           1474       98317.00    434169.90
 1187.13        2968.50           1477       94407.00    416683.30
 1187.16        2968.75           1481       88512.00    390354.20
 1187.19        2969.00           1484       84212.00    371175.20
 1187.22        2969.25           1487       79656.00    350878.60
 1187.25        2969.50           1491       73160.00    321982.30
 1187.28        2969.75           1494       68342.00    300582.80
 1187.30        2970.00           1498       62234.00    273493.30
 1187.33        2970.25           1501       57611.00    253019.20
 1187.36        2970.50           1504       52974.00    232508.50
 1187.39        2970.75           1508       46328.00    203155.50
 1187.42        2971.00           1511       41475.00    181754.30
 1187.45        2971.25           1514       36557.00    160094.40
 1187.48        2971.50           1518       29907.00    130851.40
 1187.51        2971.75           1521       24397.00    106660.30
 1187.54        2972.00           1524       19304.00     84331.22
 1187.57        2972.25           1528       13560.00     59183.89
 1187.60        2972.50           1531        9188.00     40068.63
 1187.63        2972.75           1534        6203.00     27030.19
 1187.66        2973.00           1538        3201.00     13927.79
 1187.69        2973.25           1541        1649.00      7158.03
 1187.72        2973.50           1544         761.00      3285.85
 1187.75        2973.75           1548         315.00      1341.38
 1187.77        2974.00           1551         195.00       818.24
 1187.80        2974.25           1554         153.00       635.15
 1187.83        2974.50           1558         135.00       556.68
 1187.86        2974.75           1561         134.00       552.32
 1187.89        2975.00           1565         112.00       456.41
 1187.92        2975.25           1568         116.00       473.85
 1187.95        2975.50           1571         109.00       443.34
 1187.98        2975.75           1575         116.00       473.85
 1188.01        2976.00           1578         115.00       469.49
 1188.04        2976.25           1581         104.00       421.54
 1188.07        2976.50           1585         110.00       447.70
 1188.10        2976.75           1588         121.00       495.65
 1188.13        2977.00           1591         112.00       456.41
 1188.16        2977.25           1595         106.00       430.26
 1188.19        2977.50           1598         123.00       504.37
 1188.22        2977.75           1601         104.00       421.54
 1188.25        2978.00           1605         108.00       438.98
 1188.28        2978.25           1608         115.00       469.49
 1188.31        2978.50           1611         112.00       456.41
 1188.34        2978.75           1615         119.00       486.93
 1188.37        2979.00           1618         113.00       460.77
 1188.40        2979.25           1622         105.00       425.90
 1188.43        2979.50           1625         110.00       447.70
 1188.45        2979.75           1628         108.00       438.98
 1188.48        2980.00           1632         105.00       425.90
 1188.51        2980.25           1635         108.00       438.98
 1188.54        2980.50           1638         106.00       430.26
 1188.57        2980.75           1642         111.00       452.05
 1188.60        2981.00           1645         100.00       404.10
 1188.63        2981.25           1648         109.00       443.34
 1188.66        2981.50           1652         109.00       443.34
 1188.69        2981.75           1655         100.00       404.10
 1188.72        2982.00           1658         116.00       473.85
 1188.75        2982.25           1662         129.00       530.52
 1188.78        2982.50           1665          99.00       399.74
 1188.81        2982.75           1669         100.00       404.10
 1188.84        2983.00           1672          91.00       364.87
 1188.87        2983.25           1675         112.00       456.41
 1188.90        2983.50           1679         115.00       469.49
 1188.93        2983.75           1682          98.00       395.38
 1188.96        2984.00           1685         106.00       430.26
HS scan finished at 19:49:11
end
