************************************************************
  HS Scan of (1) Internal mercury lamp
************************************************************
Integration time is 0.2294 seconds per sample
dh290718arosa 46.7828-9.6754 3.047202pr812
************************************************************
Dead Time -------------------------  3E-08 
Number of Cycles Used -------------  4 
Starting Wavelength (Angstroms) ---  2950 
Final Wavelength (Angstoms) -------  2984 
Wavelength Increment (Angstroms) --  .25 
Filter Wheel #1 Position ---------- (1) Ground quartz diffuser (ND=2.32)
Filter Wheel #2 Position ---------- (1) Neutral Density 0.494



************************************************************
HS scan start time = 02:45:33
Dark Count =  6.6 


Time (GMT)  Wavelength (Ang)  Step Number  Raw Counts  Counts/Second

  165.87        2950.00           1230         139.00       577.17
  165.94        2950.25           1234         134.00       555.37
  165.97        2950.50           1237         134.00       555.37
  166.00        2950.75           1240         125.00       516.14
  166.02        2951.00           1244         130.00       537.93
  166.05        2951.25           1247         122.00       503.06
  166.08        2951.50           1250         124.00       511.78
  166.11        2951.75           1254         128.00       529.21
  166.14        2952.00           1257         135.00       559.73
  166.17        2952.25           1260         136.00       564.09
  166.20        2952.50           1264         115.00       472.54
  166.23        2952.75           1267         127.00       524.86
  166.26        2953.00           1270         130.00       537.93
  166.29        2953.25           1274         119.00       489.98
  166.32        2953.50           1277         131.00       542.29
  166.35        2953.75           1280         126.00       520.50
  166.38        2954.00           1284         131.00       542.29
  166.41        2954.25           1287         118.00       485.62
  166.44        2954.50           1290         128.00       529.21
  166.47        2954.75           1294         117.00       481.26
  166.50        2955.00           1297         129.00       533.57
  166.53        2955.25           1300         133.00       551.01
  166.56        2955.50           1304         132.00       546.65
  166.59        2955.75           1307         132.00       546.65
  166.62        2956.00           1310         130.00       537.93
  166.65        2956.25           1314         122.00       503.06
  166.68        2956.50           1317         124.00       511.78
  166.70        2956.75           1320         133.00       551.01
  166.73        2957.00           1324         121.00       498.70
  166.76        2957.25           1327         120.00       494.34
  166.79        2957.50           1330         130.00       537.93
  166.82        2957.75           1334         120.00       494.34
  166.85        2958.00           1337         129.00       533.57
  166.88        2958.25           1340         128.00       529.21
  166.91        2958.50           1344         114.00       468.18
  166.94        2958.75           1347         120.00       494.34
  166.97        2959.00           1350         133.00       551.01
  167.00        2959.25           1354         122.00       503.06
  167.03        2959.50           1357         130.00       537.93
  167.06        2959.75           1360         122.00       503.06
  167.09        2960.00           1364         133.00       551.01
  167.12        2960.25           1367         141.00       585.89
  167.15        2960.50           1370         173.00       725.39
  167.18        2960.75           1374         398.00      1706.28
  167.21        2961.00           1377        1041.00      4509.76
  167.24        2961.25           1380        2243.00      9751.76
  167.27        2961.50           1384        5076.00     22113.18
  167.30        2961.75           1387        7936.00     34601.72
  167.33        2962.00           1391       12297.00     53662.62
  167.36        2962.25           1394       16497.00     72040.45
  167.39        2962.50           1397       20555.00     89816.22
  167.42        2962.75           1401       26404.00    115470.80
  167.45        2963.00           1404       30825.00    134888.30
  167.48        2963.25           1407       35456.00    155252.40
  167.51        2963.50           1411       41836.00    183348.40
  167.54        2963.75           1414       46591.00    204319.20
  167.57        2964.00           1417       51318.00    225192.80
  167.60        2964.25           1421       57665.00    253261.30
  167.63        2964.50           1424       62550.00    274896.80
  167.66        2964.75           1427       67746.00    297940.60
  167.68        2965.00           1431       73262.00    322438.80
  167.71        2965.25           1434       77997.00    343497.10
  167.74        2965.50           1437       82428.00    363227.70
  167.77        2965.75           1441       88033.00    388219.70
  167.80        2966.00           1444       92027.00    406051.50
  167.83        2966.25           1447       95157.00    420039.20
  167.86        2966.50           1451       98359.00    434361.00
  167.89        2966.75           1454      100036.00    441866.70
  167.92        2967.00           1457      100985.00    446115.70
  167.95        2967.25           1461      100997.00    446169.40
  167.98        2967.50           1464      100269.00    442909.80
  168.01        2967.75           1467       98655.00    435685.60
  168.04        2968.00           1471       95590.00    421975.20
  168.07        2968.25           1474       92277.00    407168.30
  168.10        2968.50           1477       88753.00    391432.90
  168.13        2968.75           1481       82822.00    364983.30
  168.15        2969.00           1484       78467.00    345588.90
  168.18        2969.25           1487       74375.00    327386.30
  168.21        2969.50           1491       68485.00    301220.70
  168.24        2969.75           1494       63793.00    280406.50
  168.27        2970.00           1498       58084.00    255116.00
  168.30        2970.25           1501       53763.00    235999.80
  168.33        2970.50           1504       49200.00    215836.80
  168.36        2970.75           1508       42981.00    188395.70
  168.39        2971.00           1511       38264.00    167612.30
  168.42        2971.25           1514       33264.00    145610.30
  168.45        2971.50           1518       27141.00    118706.20
  168.48        2971.75           1521       22381.00     97821.09
  168.51        2972.00           1524       17575.00     76760.70
  168.54        2972.25           1528       12013.00     52420.65
  168.57        2972.50           1531        8428.00     36751.05
  168.60        2972.75           1534        5674.00     24723.65
  168.63        2973.00           1538        2635.00     11461.66
  168.66        2973.25           1541        1370.00      5944.39
  168.69        2973.50           1544         646.00      2787.50
  168.72        2973.75           1548         277.00      1178.77
  168.75        2974.00           1551         193.00       812.57
  168.78        2974.25           1554         149.00       620.76
  168.81        2974.50           1558         140.00       581.53
  168.84        2974.75           1561         122.00       503.06
  168.87        2975.00           1565         117.00       481.26
  168.90        2975.25           1568         131.00       542.29
  168.93        2975.50           1571         115.00       472.54
  168.95        2975.75           1575         111.00       455.11
  168.98        2976.00           1578         110.00       450.75
  169.01        2976.25           1581         112.00       459.47
  169.04        2976.50           1585         111.00       455.11
  169.07        2976.75           1588         118.00       485.62
  169.10        2977.00           1591         113.00       463.83
  169.13        2977.25           1595         117.00       481.26
  169.16        2977.50           1598         103.00       420.23
  169.19        2977.75           1601         114.00       468.18
  169.22        2978.00           1605         126.00       520.50
  169.25        2978.25           1608         106.00       433.31
  169.28        2978.50           1611         115.00       472.54
  169.31        2978.75           1615         117.00       481.26
  169.34        2979.00           1618         107.00       437.67
  169.37        2979.25           1622         100.00       407.15
  169.40        2979.50           1625         108.00       442.03
  169.43        2979.75           1628         114.00       468.18
  169.46        2980.00           1632         118.00       485.62
  169.48        2980.25           1635         103.00       420.23
  169.51        2980.50           1638         108.00       442.03
  169.54        2980.75           1642         121.00       498.70
  169.57        2981.00           1645         117.00       481.26
  169.60        2981.25           1648         126.00       520.50
  169.63        2981.50           1652         103.00       420.23
  169.66        2981.75           1655         109.00       446.39
  169.69        2982.00           1658         112.00       459.47
  169.72        2982.25           1662         111.00       455.11
  169.75        2982.50           1665         108.00       442.03
  169.78        2982.75           1669         121.00       498.70
  169.81        2983.00           1672         105.00       428.95
  169.84        2983.25           1675         112.00       459.47
  169.87        2983.50           1679         113.00       463.83
  169.90        2983.75           1682          97.00       394.08
  169.93        2984.00           1685         105.00       428.95
HS scan finished at 02:50:09
end
************************************************************
  HS Scan of (1) Internal mercury lamp
************************************************************
Integration time is 0.2294 seconds per sample
dh290718arosa 46.7828-9.6754 3.195053pr812
************************************************************
Dead Time -------------------------  3E-08 
Number of Cycles Used -------------  4 
Starting Wavelength (Angstroms) ---  2950 
Final Wavelength (Angstoms) -------  2984 
Wavelength Increment (Angstroms) --  .25 
Filter Wheel #1 Position ---------- (1) Ground quartz diffuser (ND=2.32)
Filter Wheel #2 Position ---------- (1) Neutral Density 0.494



************************************************************
HS scan start time = 19:46:40
Dark Count =  6.8 


Time (GMT)  Wavelength (Ang)  Step Number  Raw Counts  Counts/Second

 1186.99        2950.00           1230         122.00       502.19
 1187.06        2950.25           1234         124.00       510.91
 1187.09        2950.50           1237         129.00       532.70
 1187.11        2950.75           1240         142.00       589.37
 1187.14        2951.00           1244         124.00       510.91
 1187.17        2951.25           1247         123.00       506.55
 1187.20        2951.50           1250         122.00       502.19
 1187.23        2951.75           1254         128.00       528.34
 1187.26        2952.00           1257         127.00       523.98
 1187.29        2952.25           1260         129.00       532.70
 1187.32        2952.50           1264         122.00       502.19
 1187.35        2952.75           1267         133.00       550.14
 1187.38        2953.00           1270         123.00       506.55
 1187.41        2953.25           1274         128.00       528.34
 1187.44        2953.50           1277         119.00       489.11
 1187.47        2953.75           1280         116.00       476.03
 1187.50        2954.00           1284         122.00       502.19
 1187.53        2954.25           1287         125.00       515.27
 1187.56        2954.50           1290         125.00       515.27
 1187.59        2954.75           1294         124.00       510.91
 1187.62        2955.00           1297         124.00       510.91
 1187.65        2955.25           1300         123.00       506.55
 1187.68        2955.50           1304         117.00       480.39
 1187.70        2955.75           1307         123.00       506.55
 1187.73        2956.00           1310         128.00       528.34
 1187.76        2956.25           1314         134.00       554.50
 1187.79        2956.50           1317         118.00       484.75
 1187.82        2956.75           1320         120.00       493.47
 1187.85        2957.00           1324         115.00       471.67
 1187.88        2957.25           1327         115.00       471.67
 1187.91        2957.50           1330         117.00       480.39
 1187.94        2957.75           1334         120.00       493.47
 1187.97        2958.00           1337         129.00       532.70
 1188.00        2958.25           1340         123.00       506.55
 1188.03        2958.50           1344         122.00       502.19
 1188.06        2958.75           1347         115.00       471.67
 1188.09        2959.00           1350         119.00       489.11
 1188.12        2959.25           1354         130.00       537.06
 1188.15        2959.50           1357         121.00       497.83
 1188.18        2959.75           1360         112.00       458.59
 1188.21        2960.00           1364         127.00       523.98
 1188.24        2960.25           1367         148.00       615.53
 1188.27        2960.50           1370         159.00       663.48
 1188.30        2960.75           1374         357.00      1526.66
 1188.33        2961.00           1377         940.00      4068.50
 1188.35        2961.25           1380        2125.00      9236.21
 1188.38        2961.50           1384        4769.00     20772.31
 1188.41        2961.75           1387        7682.00     33491.35
 1188.44        2962.00           1391       12323.00     53775.44
 1188.47        2962.25           1394       16699.00     72923.96
 1188.50        2962.50           1397       20816.00     90959.29
 1188.53        2962.75           1401       26975.00    117976.50
 1188.56        2963.00           1404       32074.00    140377.20
 1188.59        2963.25           1407       36768.00    161025.30
 1188.62        2963.50           1411       43405.00    190264.30
 1188.65        2963.75           1414       48315.00    211928.10
 1188.68        2964.00           1417       53213.00    233567.30
 1188.71        2964.25           1421       60020.00    263687.10
 1188.74        2964.50           1424       65409.00    287571.40
 1188.77        2964.75           1427       70134.00    308541.10
 1188.80        2965.00           1431       77219.00    340034.40
 1188.82        2965.25           1434       81936.00    361034.90
 1188.85        2965.50           1437       86625.00    381937.20
 1188.88        2965.75           1441       92737.00    409222.50
 1188.91        2966.00           1444       97141.00    428910.80
 1188.94        2966.25           1447      100449.00    443714.80
 1188.97        2966.50           1451      104235.00    460674.20
 1189.00        2966.75           1454      106186.00    469420.50
 1189.03        2967.00           1457      107940.00    477287.60
 1189.06        2967.25           1461      107969.00    477417.80
 1189.09        2967.50           1464      107753.00    476448.70
 1189.12        2967.75           1467      106152.00    469268.10
 1189.15        2968.00           1471      103027.00    455261.10
 1189.18        2968.25           1474       99756.00    440612.40
 1189.21        2968.50           1477       95457.00    421379.70
 1189.24        2968.75           1481       89697.00    395645.70
 1189.27        2969.00           1484       84775.00    373687.30
 1189.30        2969.25           1487       80173.00    353182.80
 1189.33        2969.50           1491       73557.00    323749.10
 1189.36        2969.75           1494       68698.00    302165.30
 1189.39        2970.00           1498       62508.00    274709.80
 1189.42        2970.25           1501       57957.00    254552.90
 1189.45        2970.50           1504       53185.00    233443.50
 1189.48        2970.75           1508       46619.00    204441.90
 1189.51        2971.00           1511       41640.00    182483.60
 1189.54        2971.25           1514       36578.00    160189.10
 1189.57        2971.50           1518       29836.00    130541.60
 1189.60        2971.75           1521       24725.00    108101.50
 1189.63        2972.00           1524       19571.00     85503.26
 1189.65        2972.25           1528       13598.00     59352.32
 1189.68        2972.50           1531        9429.00     41123.95
 1189.71        2972.75           1534        6305.00     27477.75
 1189.74        2973.00           1538        3234.00     14073.95
 1189.77        2973.25           1541        1632.00      7086.07
 1189.80        2973.50           1544         789.00      3410.11
 1189.83        2973.75           1548         308.00      1313.04
 1189.86        2974.00           1551         173.00       724.51
 1189.89        2974.25           1554         151.00       628.61
 1189.92        2974.50           1558         150.00       624.25
 1189.95        2974.75           1561         125.00       515.27
 1189.98        2975.00           1565         126.00       519.62
 1190.01        2975.25           1568         116.00       476.03
 1190.04        2975.50           1571         113.00       462.95
 1190.07        2975.75           1575         113.00       462.95
 1190.10        2976.00           1578         114.00       467.31
 1190.13        2976.25           1581         115.00       471.67
 1190.16        2976.50           1585         120.00       493.47
 1190.18        2976.75           1588         105.00       428.08
 1190.21        2977.00           1591         113.00       462.95
 1190.24        2977.25           1595         104.00       423.72
 1190.27        2977.50           1598         115.00       471.67
 1190.30        2977.75           1601         104.00       423.72
 1190.33        2978.00           1605         112.00       458.59
 1190.36        2978.25           1608         109.00       445.52
 1190.39        2978.50           1611         103.00       419.36
 1190.42        2978.75           1615          98.00       397.56
 1190.45        2979.00           1618         116.00       476.03
 1190.48        2979.25           1622          95.00       384.49
 1190.51        2979.50           1625         109.00       445.52
 1190.54        2979.75           1628         104.00       423.72
 1190.57        2980.00           1632         112.00       458.59
 1190.60        2980.25           1635         105.00       428.08
 1190.63        2980.50           1638         117.00       480.39
 1190.66        2980.75           1642         109.00       445.52
 1190.68        2981.00           1645         107.00       436.80
 1190.71        2981.25           1648         108.00       441.16
 1190.74        2981.50           1652         110.00       449.88
 1190.77        2981.75           1655         112.00       458.59
 1190.80        2982.00           1658         104.00       423.72
 1190.83        2982.25           1662         108.00       441.16
 1190.86        2982.50           1665         117.00       480.39
 1190.89        2982.75           1669         112.00       458.59
 1190.92        2983.00           1672         106.00       432.44
 1190.95        2983.25           1675          98.00       397.56
 1190.98        2983.50           1679          96.00       388.85
 1191.01        2983.75           1682          99.00       401.92
 1191.04        2984.00           1685         104.00       423.72
HS scan finished at 19:51:16
end
