************************************************************
  HS Scan of (1) Internal mercury lamp
************************************************************
Integration time is 0.2294 seconds per sample
dh030818arosa 46.7828-9.6754 3.098186pr812
************************************************************
Dead Time -------------------------  3E-08 
Number of Cycles Used -------------  4 
Starting Wavelength (Angstroms) ---  2950 
Final Wavelength (Angstoms) -------  2984 
Wavelength Increment (Angstroms) --  .25 
Filter Wheel #1 Position ---------- (1) Ground quartz diffuser (ND=2.32)
Filter Wheel #2 Position ---------- (1) Neutral Density 0.494



************************************************************
HS scan start time = 02:42:49
Dark Count =  6.9 


Time (GMT)  Wavelength (Ang)  Step Number  Raw Counts  Counts/Second

  163.14        2950.00           1230         129.00       532.27
  163.21        2950.25           1234         129.00       532.27
  163.24        2950.50           1237         120.00       493.03
  163.27        2950.75           1240         121.00       497.39
  163.30        2951.00           1244         125.00       514.83
  163.33        2951.25           1247         125.00       514.83
  163.35        2951.50           1250         132.00       545.34
  163.38        2951.75           1254         112.00       458.16
  163.41        2952.00           1257         127.00       523.55
  163.44        2952.25           1260         111.00       453.80
  163.47        2952.50           1264         126.00       519.19
  163.50        2952.75           1267         125.00       514.83
  163.53        2953.00           1270         129.00       532.27
  163.56        2953.25           1274         116.00       475.60
  163.59        2953.50           1277         128.00       527.91
  163.62        2953.75           1280         129.00       532.27
  163.65        2954.00           1284         122.00       501.75
  163.68        2954.25           1287         123.00       506.11
  163.71        2954.50           1290         136.00       562.78
  163.74        2954.75           1294         133.00       549.70
  163.77        2955.00           1297         117.00       479.95
  163.80        2955.25           1300         122.00       501.75
  163.83        2955.50           1304         127.00       523.55
  163.86        2955.75           1307         121.00       497.39
  163.89        2956.00           1310         121.00       497.39
  163.91        2956.25           1314         131.00       540.99
  163.94        2956.50           1317         123.00       506.11
  163.97        2956.75           1320         117.00       479.95
  164.00        2957.00           1324         126.00       519.19
  164.03        2957.25           1327         127.00       523.55
  164.06        2957.50           1330         119.00       488.67
  164.09        2957.75           1334         114.00       466.88
  164.12        2958.00           1337         125.00       514.83
  164.15        2958.25           1340         111.00       453.80
  164.18        2958.50           1344         131.00       540.99
  164.21        2958.75           1347         124.00       510.47
  164.24        2959.00           1350         131.00       540.99
  164.27        2959.25           1354         115.00       471.24
  164.30        2959.50           1357         127.00       523.55
  164.33        2959.75           1360         122.00       501.75
  164.35        2960.00           1364         139.00       575.86
  164.38        2960.25           1367         133.00       549.70
  164.41        2960.50           1370         158.00       658.69
  164.44        2960.75           1374         344.00      1469.55
  164.47        2961.00           1377         881.00      3810.81
  164.50        2961.25           1380        2114.00      9187.80
  164.53        2961.50           1384        4765.00     20754.42
  164.56        2961.75           1387        7534.00     32844.47
  164.59        2962.00           1391       12175.00     53127.77
  164.62        2962.25           1394       16188.00     70686.36
  164.65        2962.50           1397       20687.00     90393.44
  164.68        2962.75           1401       26875.00    117537.10
  164.71        2963.00           1404       31417.00    137488.80
  164.74        2963.25           1407       35958.00    157460.00
  164.77        2963.50           1411       42369.00    185696.40
  164.80        2963.75           1414       47480.00    208241.60
  164.83        2964.00           1417       52106.00    228673.70
  164.86        2964.25           1421       58778.00    258187.00
  164.88        2964.50           1424       63860.00    280702.20
  164.91        2964.75           1427       68911.00    303110.40
  164.94        2965.00           1431       75297.00    331484.60
  164.97        2965.25           1434       80151.00    353084.30
  165.00        2965.50           1437       84755.00    373597.60
  165.03        2965.75           1441       90763.00    400404.80
  165.06        2966.00           1444       94633.00    417695.40
  165.09        2966.25           1447       98009.00    432793.60
  165.12        2966.50           1451      102051.00    450888.40
  165.15        2966.75           1454      103620.00    457917.70
  165.18        2967.00           1457      104845.00    463407.90
  165.21        2967.25           1461      105363.00    465730.00
  165.24        2967.50           1464      105125.00    464663.10
  165.27        2967.75           1467      103335.00    456640.70
  165.30        2968.00           1471      100712.00    444891.90
  165.33        2968.25           1474       97457.00    430324.00
  165.36        2968.50           1477       93682.00    413444.80
  165.39        2968.75           1481       87512.00    385893.80
  165.42        2969.00           1484       83531.00    368141.60
  165.45        2969.25           1487       79009.00    348000.00
  165.47        2969.50           1491       72449.00    318824.40
  165.50        2969.75           1494       68218.00    300034.20
  165.53        2970.00           1498       62120.00    272989.90
  165.56        2970.25           1501       57183.00    251126.80
  165.59        2970.50           1504       52583.00    230782.00
  165.62        2970.75           1508       46001.00    201714.40
  165.65        2971.00           1511       40972.00    179539.40
  165.68        2971.25           1514       36326.00    159079.50
  165.71        2971.50           1518       29729.00    130071.10
  165.74        2971.75           1521       24561.00    107381.60
  165.77        2972.00           1524       19656.00     85875.27
  165.80        2972.25           1528       13627.00     59478.75
  165.83        2972.50           1531        9656.00     42115.51
  165.86        2972.75           1534        6426.00     28005.65
  165.89        2973.00           1538        3309.00     14400.73
  165.92        2973.25           1541        1673.00      7264.44
  165.95        2973.50           1544         780.00      3370.44
  165.98        2973.75           1548         311.00      1325.68
  166.01        2974.00           1551         205.00       863.58
  166.04        2974.25           1554         146.00       606.38
  166.07        2974.50           1558         135.00       558.42
  166.10        2974.75           1561         127.00       523.55
  166.12        2975.00           1565         125.00       514.83
  166.15        2975.25           1568         125.00       514.83
  166.18        2975.50           1571         109.00       445.08
  166.21        2975.75           1575         118.00       484.31
  166.24        2976.00           1578         109.00       445.08
  166.27        2976.25           1581         111.00       453.80
  166.30        2976.50           1585         115.00       471.24
  166.33        2976.75           1588         119.00       488.67
  166.36        2977.00           1591         125.00       514.83
  166.39        2977.25           1595         118.00       484.31
  166.42        2977.50           1598         103.00       418.92
  166.45        2977.75           1601         114.00       466.88
  166.48        2978.00           1605         127.00       523.55
  166.51        2978.25           1608         118.00       484.31
  166.54        2978.50           1611         117.00       479.95
  166.57        2978.75           1615         117.00       479.95
  166.59        2979.00           1618         115.00       471.24
  166.62        2979.25           1622         121.00       497.39
  166.65        2979.50           1625         106.00       432.00
  166.68        2979.75           1628         118.00       484.31
  166.71        2980.00           1632         116.00       475.60
  166.74        2980.25           1635         109.00       445.08
  166.77        2980.50           1638         105.00       427.64
  166.80        2980.75           1642         108.00       440.72
  166.83        2981.00           1645         108.00       440.72
  166.86        2981.25           1648         110.00       449.44
  166.89        2981.50           1652         103.00       418.92
  166.92        2981.75           1655         104.00       423.28
  166.95        2982.00           1658         101.00       410.21
  166.98        2982.25           1662         105.00       427.64
  167.01        2982.50           1665         103.00       418.92
  167.04        2982.75           1669         115.00       471.24
  167.07        2983.00           1672         108.00       440.72
  167.10        2983.25           1675         110.00       449.44
  167.13        2983.50           1679         108.00       440.72
  167.16        2983.75           1682         102.00       414.56
  167.19        2984.00           1685         113.00       462.52
HS scan finished at 02:47:24
end
************************************************************
  HS Scan of (1) Internal mercury lamp
************************************************************
Integration time is 0.2294 seconds per sample
dh030818arosa 46.7828-9.6754 3.164464pr812
************************************************************
Dead Time -------------------------  3E-08 
Number of Cycles Used -------------  4 
Starting Wavelength (Angstroms) ---  2950 
Final Wavelength (Angstoms) -------  2984 
Wavelength Increment (Angstroms) --  .25 
Filter Wheel #1 Position ---------- (1) Ground quartz diffuser (ND=2.32)
Filter Wheel #2 Position ---------- (1) Neutral Density 0.494



************************************************************
HS scan start time = 19:44:36
Dark Count =  6.4 


Time (GMT)  Wavelength (Ang)  Step Number  Raw Counts  Counts/Second

 1184.93        2950.00           1230         132.00       547.52
 1185.00        2950.25           1234         131.00       543.16
 1185.03        2950.50           1237         134.00       556.24
 1185.06        2950.75           1240         125.00       517.01
 1185.09        2951.00           1244         120.00       495.21
 1185.12        2951.25           1247         124.00       512.65
 1185.15        2951.50           1250         125.00       517.01
 1185.18        2951.75           1254         135.00       560.60
 1185.20        2952.00           1257         130.00       538.81
 1185.23        2952.25           1260         125.00       517.01
 1185.26        2952.50           1264         119.00       490.85
 1185.29        2952.75           1267         114.00       469.06
 1185.32        2953.00           1270         131.00       543.16
 1185.35        2953.25           1274         135.00       560.60
 1185.38        2953.50           1277         120.00       495.21
 1185.41        2953.75           1280         121.00       499.57
 1185.44        2954.00           1284         125.00       517.01
 1185.47        2954.25           1287         120.00       495.21
 1185.50        2954.50           1290         118.00       486.49
 1185.53        2954.75           1294         130.00       538.81
 1185.56        2955.00           1297         116.00       477.77
 1185.59        2955.25           1300         103.00       421.10
 1185.62        2955.50           1304         123.00       508.29
 1185.65        2955.75           1307         112.00       460.34
 1185.68        2956.00           1310         116.00       477.77
 1185.71        2956.25           1314         124.00       512.65
 1185.73        2956.50           1317         120.00       495.21
 1185.76        2956.75           1320         126.00       521.37
 1185.79        2957.00           1324         128.00       530.09
 1185.82        2957.25           1327         115.00       473.42
 1185.85        2957.50           1330         120.00       495.21
 1185.88        2957.75           1334         129.00       534.45
 1185.91        2958.00           1337         119.00       490.85
 1185.94        2958.25           1340         113.00       464.70
 1185.97        2958.50           1344         119.00       490.85
 1186.00        2958.75           1347         112.00       460.34
 1186.03        2959.00           1350         126.00       521.37
 1186.06        2959.25           1354         111.00       455.98
 1186.09        2959.50           1357         119.00       490.85
 1186.12        2959.75           1360         126.00       521.37
 1186.15        2960.00           1364         126.00       521.37
 1186.18        2960.25           1367         129.00       534.45
 1186.21        2960.50           1370         142.00       591.12
 1186.24        2960.75           1374         346.00      1480.45
 1186.27        2961.00           1377         894.00      3869.67
 1186.30        2961.25           1380        2095.00      9107.11
 1186.32        2961.50           1384        4657.00     20285.23
 1186.35        2961.75           1387        7473.00     32580.22
 1186.38        2962.00           1391       12074.00     52688.27
 1186.41        2962.25           1394       16456.00     71861.82
 1186.44        2962.50           1397       21098.00     92197.12
 1186.47        2962.75           1401       26955.00    117890.50
 1186.50        2963.00           1404       31790.00    139130.50
 1186.53        2963.25           1407       36591.00    160248.10
 1186.56        2963.50           1411       43237.00    189525.30
 1186.59        2963.75           1414       48380.00    212216.90
 1186.62        2964.00           1417       52951.00    232410.80
 1186.65        2964.25           1421       59736.00    262431.20
 1186.68        2964.50           1424       65011.00    285808.00
 1186.71        2964.75           1427       70102.00    308400.80
 1186.74        2965.00           1431       76454.00    336632.80
 1186.77        2965.25           1434       81385.00    358582.20
 1186.80        2965.50           1437       86092.00    379561.70
 1186.83        2965.75           1441       92164.00    406664.40
 1186.86        2966.00           1444       96528.00    426170.80
 1186.89        2966.25           1447      100074.00    442037.70
 1186.92        2966.50           1451      103835.00    458883.40
 1186.94        2966.75           1454      105729.00    467373.20
 1186.97        2967.00           1457      107244.00    474167.30
 1187.00        2967.25           1461      107405.00    474889.40
 1187.03        2967.50           1464      106996.00    473054.90
 1187.06        2967.75           1467      105584.00    466723.10
 1187.09        2968.00           1471      102383.00    452377.80
 1187.12        2968.25           1474       98878.00    436684.40
 1187.15        2968.50           1477       94892.00    418855.40
 1187.18        2968.75           1481       89186.00    393366.40
 1187.21        2969.00           1484       84563.00    372743.90
 1187.24        2969.25           1487       80132.00    353002.00
 1187.27        2969.50           1491       73662.00    324217.60
 1187.30        2969.75           1494       69039.00    303680.90
 1187.33        2970.00           1498       62755.00    275806.30
 1187.36        2970.25           1501       57785.00    253793.40
 1187.39        2970.50           1504       52818.00    231822.90
 1187.41        2970.75           1508       46370.00    203344.80
 1187.44        2971.00           1511       41584.00    182238.60
 1187.47        2971.25           1514       36599.00    160283.30
 1187.50        2971.50           1518       30144.00    131896.60
 1187.53        2971.75           1521       24617.00    107629.50
 1187.56        2972.00           1524       19446.00     84957.31
 1187.59        2972.25           1528       13598.00     59354.07
 1187.62        2972.50           1531        9543.00     41623.87
 1187.65        2972.75           1534        6395.00     27872.47
 1187.68        2973.00           1538        3153.00     13722.30
 1187.71        2973.25           1541        1672.00      7262.26
 1187.74        2973.50           1544         820.00      3547.02
 1187.77        2973.75           1548         311.00      1327.86
 1187.80        2974.00           1551         195.00       822.17
 1187.83        2974.25           1554         159.00       665.23
 1187.85        2974.50           1558         128.00       530.09
 1187.88        2974.75           1561         122.00       503.93
 1187.91        2975.00           1565         117.00       482.13
 1187.94        2975.25           1568         120.00       495.21
 1187.97        2975.50           1571         116.00       477.77
 1188.00        2975.75           1575         122.00       503.93
 1188.03        2976.00           1578         113.00       464.70
 1188.06        2976.25           1581         113.00       464.70
 1188.09        2976.50           1585         102.00       416.74
 1188.12        2976.75           1588         109.00       447.26
 1188.15        2977.00           1591         115.00       473.42
 1188.18        2977.25           1595         110.00       451.62
 1188.20        2977.50           1598         111.00       455.98
 1188.23        2977.75           1601         102.00       416.74
 1188.26        2978.00           1605         124.00       512.65
 1188.29        2978.25           1608         118.00       486.49
 1188.32        2978.50           1611         114.00       469.06
 1188.35        2978.75           1615         118.00       486.49
 1188.38        2979.00           1618         115.00       473.42
 1188.41        2979.25           1622         108.00       442.90
 1188.44        2979.50           1625         109.00       447.26
 1188.47        2979.75           1628         112.00       460.34
 1188.50        2980.00           1632         115.00       473.42
 1188.53        2980.25           1635         112.00       460.34
 1188.56        2980.50           1638         103.00       421.10
 1188.59        2980.75           1642         103.00       421.10
 1188.61        2981.00           1645         119.00       490.85
 1188.64        2981.25           1648         110.00       451.62
 1188.67        2981.50           1652         104.00       425.46
 1188.70        2981.75           1655         103.00       421.10
 1188.73        2982.00           1658         102.00       416.74
 1188.76        2982.25           1662          99.00       403.67
 1188.79        2982.50           1665         102.00       416.74
 1188.82        2982.75           1669         102.00       416.74
 1188.85        2983.00           1672         112.00       460.34
 1188.88        2983.25           1675         101.00       412.39
 1188.91        2983.50           1679         100.00       408.03
 1188.94        2983.75           1682         106.00       434.18
 1188.97        2984.00           1685         109.00       447.26
HS scan finished at 19:49:11
end
