************************************************************
  HS Scan of (1) Internal mercury lamp
************************************************************
Integration time is 0.2294 seconds per sample
dh050818arosa 46.7828-9.6754 3.14407pr812
************************************************************
Dead Time -------------------------  3E-08 
Number of Cycles Used -------------  4 
Starting Wavelength (Angstroms) ---  2950 
Final Wavelength (Angstoms) -------  2984 
Wavelength Increment (Angstroms) --  .25 
Filter Wheel #1 Position ---------- (1) Ground quartz diffuser (ND=2.32)
Filter Wheel #2 Position ---------- (1) Neutral Density 0.494



************************************************************
HS scan start time = 02:53:33
Dark Count =  7.5 


Time (GMT)  Wavelength (Ang)  Step Number  Raw Counts  Counts/Second

  173.88        2950.00           1230         132.00       542.73
  173.95        2950.25           1234         122.00       499.14
  173.98        2950.50           1237         134.00       551.45
  174.01        2950.75           1240         118.00       481.70
  174.04        2951.00           1244         121.00       494.78
  174.06        2951.25           1247         119.00       486.06
  174.09        2951.50           1250         124.00       507.85
  174.12        2951.75           1254         127.00       520.93
  174.15        2952.00           1257         120.00       490.42
  174.18        2952.25           1260         127.00       520.93
  174.21        2952.50           1264         120.00       490.42
  174.24        2952.75           1267         132.00       542.73
  174.27        2953.00           1270         124.00       507.85
  174.30        2953.25           1274         120.00       490.42
  174.33        2953.50           1277         119.00       486.06
  174.36        2953.75           1280         122.00       499.14
  174.39        2954.00           1284         121.00       494.78
  174.42        2954.25           1287         116.00       472.98
  174.45        2954.50           1290         130.00       534.01
  174.48        2954.75           1294         118.00       481.70
  174.51        2955.00           1297         133.00       547.09
  174.53        2955.25           1300         108.00       438.11
  174.56        2955.50           1304         127.00       520.93
  174.59        2955.75           1307         120.00       490.42
  174.62        2956.00           1310         125.00       512.21
  174.65        2956.25           1314         121.00       494.78
  174.68        2956.50           1317         127.00       520.93
  174.71        2956.75           1320         115.00       468.62
  174.74        2957.00           1324         128.00       525.29
  174.77        2957.25           1327         123.00       503.50
  174.80        2957.50           1330         120.00       490.42
  174.83        2957.75           1334         118.00       481.70
  174.86        2958.00           1337         119.00       486.06
  174.89        2958.25           1340         114.00       464.26
  174.92        2958.50           1344         123.00       503.50
  174.95        2958.75           1347         115.00       468.62
  174.98        2959.00           1350         120.00       490.42
  175.00        2959.25           1354         120.00       490.42
  175.03        2959.50           1357         122.00       499.14
  175.06        2959.75           1360         122.00       499.14
  175.09        2960.00           1364         138.00       568.89
  175.12        2960.25           1367         142.00       586.32
  175.15        2960.50           1370         161.00       669.15
  175.18        2960.75           1374         322.00      1371.02
  175.21        2961.00           1377         943.00      4078.53
  175.24        2961.25           1380        2070.00      8993.27
  175.27        2961.50           1384        4714.00     20529.21
  175.30        2961.75           1387        7506.00     32719.55
  175.33        2962.00           1391       12193.00     53203.86
  175.36        2962.25           1394       16472.00     71927.06
  175.39        2962.50           1397       20832.00     91026.35
  175.42        2962.75           1401       26938.00    117811.00
  175.45        2963.00           1404       31609.00    138330.10
  175.48        2963.25           1407       36174.00    158408.00
  175.51        2963.50           1411       42672.00    187029.50
  175.54        2963.75           1414       47825.00    209761.80
  175.57        2964.00           1417       52384.00    229899.70
  175.60        2964.25           1421       59295.00    260473.40
  175.63        2964.50           1424       64558.00    283794.30
  175.65        2964.75           1427       69798.00    307046.00
  175.68        2965.00           1431       76284.00    335871.70
  175.71        2965.25           1434       81077.00    357205.50
  175.74        2965.50           1437       85642.00    377550.00
  175.77        2965.75           1441       92032.00    406069.80
  175.80        2966.00           1444       95734.00    422615.10
  175.83        2966.25           1447       99217.00    438196.70
  175.86        2966.50           1451      103114.00    455647.80
  175.89        2966.75           1454      105219.00    465081.70
  175.92        2967.00           1457      106145.00    469233.60
  175.95        2967.25           1461      106916.00    472691.20
  175.98        2967.50           1464      106439.00    470551.90
  176.01        2967.75           1467      104504.00    461876.70
  176.04        2968.00           1471      101831.00    449900.40
  176.07        2968.25           1474       98648.00    435650.20
  176.10        2968.50           1477       94221.00    415851.10
  176.13        2968.75           1481       88532.00    390442.50
  176.16        2969.00           1484       83873.00    369663.20
  176.18        2969.25           1487       79533.00    350330.00
  176.21        2969.50           1491       72804.00    320399.30
  176.24        2969.75           1494       68453.00    301074.60
  176.27        2970.00           1498       61957.00    272264.90
  176.30        2970.25           1501       57554.00    252766.10
  176.33        2970.50           1504       52889.00    232131.90
  176.36        2970.75           1508       46477.00    203812.10
  176.39        2971.00           1511       41294.00    180955.70
  176.42        2971.25           1514       36642.00    160467.70
  176.45        2971.50           1518       29875.00    130709.90
  176.48        2971.75           1521       24779.00    108335.40
  176.51        2972.00           1524       19755.00     86306.44
  176.54        2972.25           1528       13469.00     58784.92
  176.57        2972.50           1531        9424.00     41099.03
  176.60        2972.75           1534        6256.00     27260.74
  176.63        2973.00           1538        3201.00     13926.92
  176.66        2973.25           1541        1674.00      7266.19
  176.69        2973.50           1544         760.00      3280.62
  176.72        2973.75           1548         322.00      1371.02
  176.75        2974.00           1551         199.00       834.81
  176.77        2974.25           1554         157.00       651.71
  176.80        2974.50           1558         147.00       608.12
  176.83        2974.75           1561         138.00       568.89
  176.86        2975.00           1565         121.00       494.78
  176.89        2975.25           1568         121.00       494.78
  176.92        2975.50           1571         116.00       472.98
  176.95        2975.75           1575         105.00       425.03
  176.98        2976.00           1578         108.00       438.11
  177.01        2976.25           1581         111.00       451.18
  177.04        2976.50           1585         111.00       451.18
  177.07        2976.75           1588         113.00       459.90
  177.10        2977.00           1591         122.00       499.14
  177.13        2977.25           1595         121.00       494.78
  177.16        2977.50           1598         114.00       464.26
  177.19        2977.75           1601         107.00       433.75
  177.22        2978.00           1605         119.00       486.06
  177.25        2978.25           1608         108.00       438.11
  177.28        2978.50           1611         112.00       455.54
  177.31        2978.75           1615         102.00       411.95
  177.34        2979.00           1618         112.00       455.54
  177.37        2979.25           1622          99.00       398.87
  177.40        2979.50           1625         109.00       442.46
  177.42        2979.75           1628         115.00       468.62
  177.45        2980.00           1632         107.00       433.75
  177.48        2980.25           1635         105.00       425.03
  177.51        2980.50           1638         109.00       442.46
  177.54        2980.75           1642         107.00       433.75
  177.57        2981.00           1645         113.00       459.90
  177.60        2981.25           1648         105.00       425.03
  177.63        2981.50           1652         116.00       472.98
  177.66        2981.75           1655         106.00       429.39
  177.69        2982.00           1658         110.00       446.82
  177.72        2982.25           1662         112.00       455.54
  177.75        2982.50           1665         106.00       429.39
  177.78        2982.75           1669         101.00       407.59
  177.81        2983.00           1672         108.00       438.11
  177.84        2983.25           1675         103.00       416.31
  177.87        2983.50           1679         110.00       446.82
  177.89        2983.75           1682         107.00       433.75
  177.92        2984.00           1685         108.00       438.11
HS scan finished at 02:58:09
end
************************************************************
  HS Scan of (1) Internal mercury lamp
************************************************************
Integration time is 0.2294 seconds per sample
dh050818arosa 46.7828-9.6754 3.246037pr812
************************************************************
Dead Time -------------------------  3E-08 
Number of Cycles Used -------------  4 
Starting Wavelength (Angstroms) ---  2950 
Final Wavelength (Angstoms) -------  2984 
Wavelength Increment (Angstroms) --  .25 
Filter Wheel #1 Position ---------- (1) Ground quartz diffuser (ND=2.32)
Filter Wheel #2 Position ---------- (1) Neutral Density 0.494



************************************************************
HS scan start time = 19:53:28
Dark Count =  5.6 


Time (GMT)  Wavelength (Ang)  Step Number  Raw Counts  Counts/Second

 1193.80        2950.00           1230         123.00       511.78
 1193.87        2950.25           1234         122.00       507.42
 1193.90        2950.50           1237         125.00       520.50
 1193.93        2950.75           1240         122.00       507.42
 1193.96        2951.00           1244         111.00       459.47
 1193.99        2951.25           1247         116.00       481.26
 1194.02        2951.50           1250         132.00       551.01
 1194.04        2951.75           1254         119.00       494.34
 1194.07        2952.00           1257         131.00       546.65
 1194.10        2952.25           1260         138.00       577.17
 1194.13        2952.50           1264         124.00       516.14
 1194.16        2952.75           1267         114.00       472.54
 1194.19        2953.00           1270         131.00       546.65
 1194.22        2953.25           1274         126.00       524.86
 1194.25        2953.50           1277         144.00       603.32
 1194.28        2953.75           1280         124.00       516.14
 1194.31        2954.00           1284         132.00       551.01
 1194.34        2954.25           1287         116.00       481.26
 1194.37        2954.50           1290         113.00       468.18
 1194.40        2954.75           1294         136.00       568.45
 1194.43        2955.00           1297         116.00       481.26
 1194.46        2955.25           1300         122.00       507.42
 1194.49        2955.50           1304         117.00       485.62
 1194.52        2955.75           1307         127.00       529.22
 1194.55        2956.00           1310         128.00       533.57
 1194.58        2956.25           1314         118.00       489.98
 1194.61        2956.50           1317         123.00       511.78
 1194.63        2956.75           1320         121.00       503.06
 1194.67        2957.00           1324         116.00       481.26
 1194.69        2957.25           1327         118.00       489.98
 1194.72        2957.50           1330         121.00       503.06
 1194.75        2957.75           1334         131.00       546.65
 1194.78        2958.00           1337         117.00       485.62
 1194.81        2958.25           1340         119.00       494.34
 1194.84        2958.50           1344         113.00       468.18
 1194.87        2958.75           1347         111.00       459.47
 1194.90        2959.00           1350         117.00       485.62
 1194.93        2959.25           1354         116.00       481.26
 1194.96        2959.50           1357         121.00       503.06
 1194.99        2959.75           1360         126.00       524.86
 1195.02        2960.00           1364         131.00       546.65
 1195.05        2960.25           1367         131.00       546.65
 1195.08        2960.50           1370         170.00       716.67
 1195.11        2960.75           1374         367.00      1575.49
 1195.14        2961.00           1377         968.00      4195.82
 1195.17        2961.25           1380        2244.00      9760.49
 1195.20        2961.50           1384        4910.00     21392.98
 1195.23        2961.75           1387        7891.00     34409.52
 1195.25        2962.00           1391       12736.00     55586.96
 1195.28        2962.25           1394       17113.00     74741.96
 1195.31        2962.50           1397       21914.00     95777.86
 1195.34        2962.75           1401       27948.00    122254.00
 1195.37        2963.00           1404       32953.00    144247.10
 1195.40        2963.25           1407       37984.00    166383.80
 1195.43        2963.50           1411       44682.00    195901.20
 1195.46        2963.75           1414       49612.00    217660.80
 1195.49        2964.00           1417       54732.00    240289.10
 1195.52        2964.25           1421       61624.00    270797.90
 1195.55        2964.50           1424       67082.00    294998.50
 1195.58        2964.75           1427       72167.00    317577.10
 1195.61        2965.00           1431       78855.00    347320.30
 1195.64        2965.25           1434       84094.00    370656.70
 1195.67        2965.50           1437       88695.00    391178.50
 1195.70        2965.75           1441       95188.00    420182.30
 1195.73        2966.00           1444       99457.00    439279.40
 1195.76        2966.25           1447      103361.00    456763.00
 1195.78        2966.50           1451      107168.00    473830.00
 1195.81        2966.75           1454      109355.00    483642.30
 1195.84        2967.00           1457      110487.00    488723.50
 1195.87        2967.25           1461      110641.00    489415.00
 1195.90        2967.50           1464      110183.00    487358.80
 1195.93        2967.75           1467      108668.00    480559.40
 1195.96        2968.00           1471      105180.00    464915.50
 1195.99        2968.25           1474      101827.00    449890.90
 1196.02        2968.50           1477       97442.00    430262.70
 1196.05        2968.75           1481       91472.00    403577.00
 1196.08        2969.00           1484       87006.00    383642.10
 1196.11        2969.25           1487       82333.00    362809.00
 1196.14        2969.50           1491       75607.00    332869.00
 1196.17        2969.75           1494       70932.00    312090.60
 1196.20        2970.00           1498       63959.00    281146.90
 1196.23        2970.25           1501       59062.00    259450.20
 1196.26        2970.50           1504       54220.00    238024.90
 1196.29        2970.75           1508       47726.00    209333.20
 1196.32        2971.00           1511       42692.00    187126.00
 1196.35        2971.25           1514       37701.00    165137.80
 1196.38        2971.50           1518       30772.00    134659.70
 1196.40        2971.75           1521       25512.00    111560.20
 1196.43        2972.00           1524       19988.00     87335.78
 1196.46        2972.25           1528       13875.00     60569.42
 1196.49        2972.50           1531        9579.00     41784.70
 1196.52        2972.75           1534        6419.00     27980.76
 1196.55        2973.00           1538        3196.00     13913.39
 1196.58        2973.25           1541        1638.00      7117.47
 1196.61        2973.50           1544         808.00      3498.19
 1196.64        2973.75           1548         306.00      1309.55
 1196.67        2974.00           1551         199.00       843.09
 1196.70        2974.25           1554         150.00       629.48
 1196.73        2974.50           1558         153.00       642.56
 1196.76        2974.75           1561         145.00       607.68
 1196.79        2975.00           1565         117.00       485.62
 1196.82        2975.25           1568         105.00       433.31
 1196.85        2975.50           1571         118.00       489.98
 1196.88        2975.75           1575         115.00       476.90
 1196.90        2976.00           1578         110.00       455.11
 1196.93        2976.25           1581         111.00       459.47
 1196.96        2976.50           1585         135.00       564.09
 1196.99        2976.75           1588         118.00       489.98
 1197.02        2977.00           1591         122.00       507.42
 1197.05        2977.25           1595         115.00       476.90
 1197.08        2977.50           1598         119.00       494.34
 1197.11        2977.75           1601         109.00       450.75
 1197.14        2978.00           1605         116.00       481.26
 1197.17        2978.25           1608         106.00       437.67
 1197.20        2978.50           1611         116.00       481.26
 1197.23        2978.75           1615         103.00       424.59
 1197.26        2979.00           1618         107.00       442.03
 1197.29        2979.25           1622         111.00       459.47
 1197.32        2979.50           1625         105.00       433.31
 1197.35        2979.75           1628         118.00       489.98
 1197.38        2980.00           1632         105.00       433.31
 1197.40        2980.25           1635          92.00       376.64
 1197.43        2980.50           1638         110.00       455.11
 1197.46        2980.75           1642         107.00       442.03
 1197.49        2981.00           1645         111.00       459.47
 1197.52        2981.25           1648         106.00       437.67
 1197.55        2981.50           1652         100.00       411.51
 1197.58        2981.75           1655         104.00       428.95
 1197.61        2982.00           1658         101.00       415.87
 1197.64        2982.25           1662         104.00       428.95
 1197.67        2982.50           1665          98.00       402.79
 1197.70        2982.75           1669         106.00       437.67
 1197.73        2983.00           1672         102.00       420.23
 1197.76        2983.25           1675          94.00       385.36
 1197.79        2983.50           1679         101.00       415.87
 1197.82        2983.75           1682          94.00       385.36
 1197.85        2984.00           1685         114.00       472.54
HS scan finished at 19:58:04
end
