************************************************************
  HS Scan of (1) Internal mercury lamp
************************************************************
Integration time is 0.2294 seconds per sample
dh080818arosa 46.7828-9.6754 3.14407pr812
************************************************************
Dead Time -------------------------  3E-08 
Number of Cycles Used -------------  4 
Starting Wavelength (Angstroms) ---  2950 
Final Wavelength (Angstoms) -------  2984 
Wavelength Increment (Angstroms) --  .25 
Filter Wheel #1 Position ---------- (1) Ground quartz diffuser (ND=2.32)
Filter Wheel #2 Position ---------- (1) Neutral Density 0.494



************************************************************
HS scan start time = 02:57:34
Dark Count =  5.3 


Time (GMT)  Wavelength (Ang)  Step Number  Raw Counts  Counts/Second

  177.90        2950.00           1230         131.00       547.96
  177.96        2950.25           1234         124.00       517.44
  177.99        2950.50           1237         129.00       539.24
  178.02        2950.75           1240         119.00       495.65
  178.05        2951.00           1244         122.00       508.73
  178.08        2951.25           1247         128.00       534.88
  178.11        2951.50           1250         117.00       486.93
  178.14        2951.75           1254         122.00       508.73
  178.17        2952.00           1257         127.00       530.52
  178.20        2952.25           1260         125.00       521.80
  178.23        2952.50           1264         137.00       574.12
  178.26        2952.75           1267         121.00       504.37
  178.29        2953.00           1270         129.00       539.24
  178.32        2953.25           1274         123.00       513.09
  178.35        2953.50           1277         145.00       608.99
  178.37        2953.75           1280         122.00       508.73
  178.40        2954.00           1284         122.00       508.73
  178.43        2954.25           1287         130.00       543.60
  178.46        2954.50           1290         130.00       543.60
  178.49        2954.75           1294         112.00       465.13
  178.52        2955.00           1297         128.00       534.88
  178.55        2955.25           1300         118.00       491.29
  178.58        2955.50           1304         120.00       500.01
  178.61        2955.75           1307         121.00       504.37
  178.64        2956.00           1310         131.00       547.96
  178.67        2956.25           1314         121.00       504.37
  178.70        2956.50           1317         122.00       508.73
  178.73        2956.75           1320         116.00       482.57
  178.76        2957.00           1324         117.00       486.93
  178.79        2957.25           1327         132.00       552.32
  178.82        2957.50           1330         125.00       521.80
  178.85        2957.75           1334         128.00       534.88
  178.88        2958.00           1337         131.00       547.96
  178.91        2958.25           1340         114.00       473.85
  178.94        2958.50           1344         118.00       491.29
  178.97        2958.75           1347         115.00       478.21
  179.00        2959.00           1350         129.00       539.24
  179.03        2959.25           1354         116.00       482.57
  179.05        2959.50           1357         129.00       539.24
  179.08        2959.75           1360         123.00       513.09
  179.11        2960.00           1364         142.00       595.91
  179.14        2960.25           1367         145.00       608.99
  179.17        2960.50           1370         161.00       678.74
  179.20        2960.75           1374         440.00      1895.05
  179.23        2961.00           1377        1118.00      4851.19
  179.26        2961.25           1380        2431.00     10577.46
  179.29        2961.50           1384        5279.00     23004.97
  179.32        2961.75           1387        8141.00     35502.92
  179.35        2962.00           1391       13110.00     57224.14
  179.38        2962.25           1394       17295.00     75540.22
  179.41        2962.50           1397       21670.00     94709.42
  179.44        2962.75           1401       27822.00    121702.00
  179.47        2963.00           1404       32240.00    141113.60
  179.50        2963.25           1407       36946.00    161815.50
  179.53        2963.50           1411       43112.00    188979.00
  179.56        2963.75           1414       48040.00    210720.70
  179.59        2964.00           1417       52883.00    232115.10
  179.62        2964.25           1421       59516.00    261461.80
  179.65        2964.50           1424       64653.00    284225.30
  179.67        2964.75           1427       69817.00    307140.10
  179.70        2965.00           1431       76334.00    336103.90
  179.73        2965.25           1434       81013.00    356930.20
  179.76        2965.50           1437       85730.00    377952.20
  179.79        2965.75           1441       91714.00    404659.20
  179.82        2966.00           1444       95277.00    420581.60
  179.85        2966.25           1447       98761.00    436165.70
  179.88        2966.50           1451      102423.00    452562.00
  179.91        2966.75           1454      104456.00    461671.50
  179.94        2967.00           1457      105087.00    464499.80
  179.97        2967.25           1461      105326.00    465571.30
  180.00        2967.50           1464      104395.00    461398.10
  180.03        2967.75           1467      102505.00    452929.20
  180.06        2968.00           1471       99290.00    438533.30
  180.09        2968.25           1474       95994.00    423787.50
  180.12        2968.50           1477       91940.00    405668.70
  180.15        2968.75           1481       86331.00    380632.50
  180.17        2969.00           1484       81343.00    358400.00
  180.20        2969.25           1487       76617.00    337362.80
  180.23        2969.50           1491       70853.00    311741.00
  180.26        2969.75           1494       66101.00    290647.50
  180.29        2970.00           1498       59699.00    262272.20
  180.32        2970.25           1501       55335.00    242957.50
  180.35        2970.50           1504       50522.00    221681.70
  180.38        2970.75           1508       44149.00    193551.80
  180.41        2971.00           1511       39464.00    172902.80
  180.44        2971.25           1514       34521.00    151144.60
  180.47        2971.50           1518       27930.00    122176.30
  180.50        2971.75           1521       23125.00    101089.50
  180.53        2972.00           1524       17918.00     78268.56
  180.56        2972.25           1528       12207.00     53274.71
  180.59        2972.50           1531        8478.00     36975.17
  180.62        2972.75           1534        5594.00     24380.08
  180.65        2973.00           1538        2617.00     11388.81
  180.68        2973.25           1541        1376.00      5976.22
  180.71        2973.50           1544         655.00      2832.41
  180.74        2973.75           1548         287.00      1228.03
  180.76        2974.00           1551         188.00       796.44
  180.79        2974.25           1554         154.00       648.23
  180.82        2974.50           1558         133.00       556.68
  180.85        2974.75           1561         119.00       495.65
  180.88        2975.00           1565         115.00       478.21
  180.91        2975.25           1568         115.00       478.21
  180.94        2975.50           1571         109.00       452.05
  180.97        2975.75           1575         112.00       465.13
  181.00        2976.00           1578         112.00       465.13
  181.03        2976.25           1581         123.00       513.09
  181.06        2976.50           1585         112.00       465.13
  181.09        2976.75           1588         116.00       482.57
  181.12        2977.00           1591         110.00       456.41
  181.15        2977.25           1595         114.00       473.85
  181.18        2977.50           1598         117.00       486.93
  181.21        2977.75           1601         116.00       482.57
  181.24        2978.00           1605         110.00       456.41
  181.27        2978.25           1608         116.00       482.57
  181.30        2978.50           1611         109.00       452.05
  181.33        2978.75           1615         111.00       460.77
  181.36        2979.00           1618         109.00       452.05
  181.38        2979.25           1622         108.00       447.70
  181.41        2979.50           1625         111.00       460.77
  181.44        2979.75           1628         109.00       452.05
  181.47        2980.00           1632         104.00       430.26
  181.50        2980.25           1635         112.00       465.13
  181.53        2980.50           1638         107.00       443.34
  181.56        2980.75           1642         111.00       460.77
  181.59        2981.00           1645          99.00       408.46
  181.62        2981.25           1648         104.00       430.26
  181.65        2981.50           1652         104.00       430.26
  181.68        2981.75           1655          98.00       404.10
  181.71        2982.00           1658         116.00       482.57
  181.74        2982.25           1662         110.00       456.41
  181.77        2982.50           1665         111.00       460.77
  181.80        2982.75           1669         104.00       430.26
  181.83        2983.00           1672         106.00       438.98
  181.86        2983.25           1675          96.00       395.38
  181.89        2983.50           1679         112.00       465.13
  181.91        2983.75           1682          98.00       404.10
  181.94        2984.00           1685         108.00       447.70
HS scan finished at 03:02:10
end
