************************************************************
  HL Scan of (1) Internal mercury lamp
************************************************************
Integration time is 0.2294 seconds per sample
dh250619El Arenosillo 37.1 6.73 3.018777pr1000
************************************************************
Dead Time -------------------------  2.65E-08 
Number of Cycles Used -------------  4 
Starting Wavelength (Angstroms) ---  3331 
Final Wavelength (Angstoms) -------  3351 
Wavelength Increment (Angstroms) --  .25 
Filter Wheel #1 Position ---------- (1) Ground quartz diffuser (ND=2.32)
Filter Wheel #2 Position ---------- 



************************************************************
HL scan start time = 03:09:24
Dark Count =  .2 


Time (GMT)  Wavelength (Ang)  Step Number  Raw Counts  Counts/Second

  190.19        3331.00           6625         189.00       823.03
  190.62        3331.25           6629         179.00       779.44
  190.66        3331.50           6632         193.00       840.47
  190.69        3331.75           6636         191.00       831.75
  190.73        3332.00           6640         199.00       866.63
  190.77        3332.25           6644         195.00       849.19
  190.82        3332.50           6647         181.00       788.16
  190.86        3332.75           6651         222.00       966.89
  190.89        3333.00           6655         222.00       966.89
  190.93        3333.25           6659         248.00      1080.24
  190.99        3333.50           6662         254.00      1106.40
  191.02        3333.75           6666         271.00      1180.51
  191.06        3334.00           6670         507.00      2209.37
  191.10        3334.25           6674        1798.00      7838.59
  191.13        3334.50           6677        4030.00     17574.88
  191.19        3334.75           6681        8477.00     36988.29
  191.23        3335.00           6685       15540.00     67863.00
  191.27        3335.25           6689       24150.00    105568.70
  191.30        3335.50           6692       31374.00    137263.00
  191.34        3335.75           6696       40502.00    177387.30
  191.40        3336.00           6700       49895.00    218765.90
  191.43        3336.25           6704       59516.00    261243.50
  191.47        3336.50           6707       66453.00    291930.60
  191.50        3336.75           6711       75966.00    334094.80
  191.54        3337.00           6715       85157.00    374921.90
  191.60        3337.25           6719       94250.00    415401.30
  191.64        3337.50           6723      103407.00    456254.00
  191.67        3337.75           6726      110338.00    487235.00
  191.71        3338.00           6730      120915.00    534612.10
  191.75        3338.25           6734      130355.00    576997.80
  191.81        3338.50           6738      138501.00    613650.80
  191.84        3338.75           6741      143902.00    637992.10
  191.88        3339.00           6745      149983.00    665436.10
  191.92        3339.25           6749      154279.00    684848.60
  191.95        3339.50           6753      156227.00    693657.90
  192.01        3339.75           6756      156030.00    692766.80
  192.05        3340.00           6760      154011.00    683637.10
  192.08        3340.25           6764      149846.00    664817.50
  192.12        3340.50           6768      143502.00    636188.30
  192.16        3340.75           6771      138203.00    612308.60
  192.21        3341.00           6775      129302.00    572265.10
  192.25        3341.25           6779      120633.00    533347.40
  192.29        3341.50           6783      110565.00    488250.50
  192.32        3341.75           6786      103789.00    457960.10
  192.36        3342.00           6790       93161.00    410548.70
  192.42        3342.25           6794       83687.00    368386.10
  192.45        3342.50           6798       74006.00    325399.90
  192.49        3342.75           6801       67153.00    295030.00
  192.53        3343.00           6805       58006.00    254570.40
  192.56        3343.25           6809       49034.00    214969.20
  192.62        3343.50           6813       39741.00    174038.90
  192.66        3343.75           6817       30590.00    133820.70
  192.69        3344.00           6820       24207.00    105818.60
  192.73        3344.25           6824       16202.00     70759.41
  192.77        3344.50           6828        9902.00     43213.37
  192.83        3344.75           6832        5269.00     22981.73
  192.86        3345.00           6835        3077.00     13417.15
  192.90        3345.25           6839        1360.00      5928.57
  192.93        3345.50           6843         581.00      2531.99
  192.97        3345.75           6847         275.00      1197.95
  193.03        3346.00           6850         233.00      1014.85
  193.06        3346.25           6854         212.00       923.30
  193.10        3346.50           6858         191.00       831.75
  193.14        3346.75           6862         201.00       875.35
  193.17        3347.00           6866         201.00       875.35
  193.23        3347.25           6869         192.00       836.11
  193.26        3347.50           6873         204.00       888.43
  193.30        3347.75           6877         201.00       875.35
  193.34        3348.00           6881         201.00       875.35
  193.37        3348.25           6884         212.00       923.30
  193.43        3348.50           6888         204.00       888.43
  193.47        3348.75           6892         207.00       901.50
  193.50        3349.00           6896         201.00       875.35
  193.54        3349.25           6899         209.00       910.22
  193.58        3349.50           6903         209.00       910.22
  193.63        3349.75           6907         207.00       901.50
  193.67        3350.00           6911         197.00       857.91
  193.71        3350.25           6915         193.00       840.47
  193.74        3350.50           6918         190.00       827.39
  193.78        3350.75           6922         193.00       840.47
  193.84        3351.00           6926         210.00       914.58
HL scan finished at 03:15:24
end
