************************************************************
  HL Scan of (1) Internal mercury lamp
************************************************************
Integration time is 0.2294 seconds per sample
dh220619El Arenosillo 37.1 6.73 2.911481pr1000
************************************************************
Dead Time -------------------------  2.65E-08 
Number of Cycles Used -------------  4 
Starting Wavelength (Angstroms) ---  3331 
Final Wavelength (Angstoms) -------  3351 
Wavelength Increment (Angstroms) --  .25 
Filter Wheel #1 Position ---------- (1) Ground quartz diffuser (ND=2.32)
Filter Wheel #2 Position ---------- 



************************************************************
HL scan start time = 22:05:37
Dark Count =  .2 


Time (GMT)  Wavelength (Ang)  Step Number  Raw Counts  Counts/Second

 1326.42        3331.00           6625         199.00       866.63
 1326.84        3331.25           6629         179.00       779.44
 1326.87        3331.50           6632         201.00       875.35
 1326.91        3331.75           6636         186.00       809.96
 1326.96        3332.00           6640         182.00       792.52
 1327.00        3332.25           6644         201.00       875.35
 1327.04        3332.50           6647         209.00       910.22
 1327.07        3332.75           6651         189.00       823.03
 1327.13        3333.00           6655         227.00       988.69
 1327.16        3333.25           6659         226.00       984.33
 1327.20        3333.50           6662         247.00      1075.88
 1327.24        3333.75           6666         281.00      1224.10
 1327.29        3334.00           6670         560.00      2440.44
 1327.33        3334.25           6674        2026.00      8832.93
 1327.36        3334.50           6677        4375.00     19080.27
 1327.40        3334.75           6681        8982.00     39194.13
 1327.44        3335.00           6685       15827.00     69118.65
 1327.47        3335.25           6689       24150.00    105568.70
 1327.51        3335.50           6692       31156.00    136305.80
 1327.54        3335.75           6696       39914.00    174800.00
 1327.58        3336.00           6700       49006.00    214845.70
 1327.63        3336.25           6704       57800.00    253660.20
 1327.67        3336.50           6707       64602.00    283737.50
 1327.71        3336.75           6711       73165.00    321670.20
 1327.74        3337.00           6715       82351.00    362448.10
 1327.80        3337.25           6719       91391.00    402664.50
 1327.84        3337.50           6723      100518.00    443355.40
 1327.87        3337.75           6726      106400.00    469626.10
 1327.91        3338.00           6730      116304.00    513943.50
 1327.97        3338.25           6734      125176.00    553732.10
 1328.00        3338.50           6738      133528.00    591266.20
 1328.04        3338.75           6741      139069.00    616209.10
 1328.08        3339.00           6745      144187.00    639277.50
 1328.13        3339.25           6749      147532.00    654369.80
 1328.17        3339.50           6753      150182.00    666335.00
 1328.21        3339.75           6756      149950.00    665287.10
 1328.24        3340.00           6760      147638.00    654848.30
 1328.28        3340.25           6764      143110.00    634420.80
 1328.32        3340.50           6768      137359.00    608508.00
 1328.35        3340.75           6771      131753.00    583283.10
 1328.39        3341.00           6775      123705.00    547129.30
 1328.42        3341.25           6779      115001.00    508107.00
 1328.48        3341.50           6783      105364.00    464996.40
 1328.52        3341.75           6786       98438.00    434074.40
 1328.55        3342.00           6790       88936.00    391734.30
 1328.59        3342.25           6794       80106.00    352474.00
 1328.64        3342.50           6798       70921.00    311722.20
 1328.68        3342.75           6801       64059.00    281334.70
 1328.72        3343.00           6805       55281.00    242533.70
 1328.75        3343.25           6809       46863.00    205399.20
 1328.81        3343.50           6813       38131.00    166956.80
 1328.84        3343.75           6817       29095.00    127258.40
 1328.88        3344.00           6820       22805.00     99673.57
 1328.92        3344.25           6824       14820.00     64713.33
 1328.98        3344.50           6828        8883.00     38761.68
 1329.01        3344.75           6832        4839.00     21105.09
 1329.05        3345.00           6835        2764.00     12051.80
 1329.08        3345.25           6839        1175.00      5121.88
 1329.12        3345.50           6843         505.00      2200.65
 1329.16        3345.75           6847         284.00      1237.18
 1329.19        3346.00           6850         225.00       979.97
 1329.23        3346.25           6854         210.00       914.58
 1329.27        3346.50           6858         216.00       940.74
 1329.32        3346.75           6862         204.00       888.43
 1329.36        3347.00           6866         184.00       801.24
 1329.39        3347.25           6869         196.00       853.55
 1329.43        3347.50           6873         189.00       823.03
 1329.49        3347.75           6877         200.00       870.99
 1329.52        3348.00           6881         192.00       836.11
 1329.56        3348.25           6884         202.00       879.71
 1329.59        3348.50           6888         194.00       844.83
 1329.65        3348.75           6892         207.00       901.50
 1329.68        3349.00           6896         206.00       897.14
 1329.72        3349.25           6899         199.00       866.63
 1329.76        3349.50           6903         197.00       857.91
 1329.81        3349.75           6907         186.00       809.96
 1329.85        3350.00           6911         186.00       809.96
 1329.88        3350.25           6915         191.00       831.75
 1329.92        3350.50           6918         201.00       875.35
 1329.96        3350.75           6922         204.00       888.43
 1329.99        3351.00           6926         195.00       849.19
HL scan finished at 22:11:33
end
