************************************************************
  HL Scan of (1) Internal mercury lamp
************************************************************
Integration time is 0.2294 seconds per sample
dh240619El Arenosillo 37.1 6.73 2.965129pr1000
************************************************************
Dead Time -------------------------  2.65E-08 
Number of Cycles Used -------------  4 
Starting Wavelength (Angstroms) ---  3331 
Final Wavelength (Angstoms) -------  3351 
Wavelength Increment (Angstroms) --  .25 
Filter Wheel #1 Position ---------- (1) Ground quartz diffuser (ND=2.32)
Filter Wheel #2 Position ---------- 



************************************************************
HL scan start time = 02:53:32
Dark Count =  .2 


Time (GMT)  Wavelength (Ang)  Step Number  Raw Counts  Counts/Second

  174.32        3331.00           6625         188.00       818.68
  174.75        3331.25           6629         181.00       788.16
  174.79        3331.50           6632         191.00       831.75
  174.82        3331.75           6636         201.00       875.35
  174.86        3332.00           6640         197.00       857.91
  174.91        3332.25           6644         205.00       892.78
  174.95        3332.50           6647         188.00       818.68
  174.99        3332.75           6651         218.00       949.46
  175.03        3333.00           6655         229.00       997.41
  175.06        3333.25           6659         244.00      1062.80
  175.12        3333.50           6662         258.00      1123.83
  175.16        3333.75           6666         284.00      1237.18
  175.19        3334.00           6670         515.00      2244.25
  175.23        3334.25           6674        1964.00      8562.54
  175.26        3334.50           6677        3885.00     16942.22
  175.32        3334.75           6681        8761.00     38228.77
  175.36        3335.00           6685       15496.00     67670.50
  175.39        3335.25           6689       24376.00    106559.40
  175.43        3335.50           6692       30404.00    133004.20
  175.47        3335.75           6696       39740.00    174034.40
  175.52        3336.00           6700       49078.00    215163.20
  175.56        3336.25           6704       58703.00    257650.30
  175.60        3336.50           6707       65171.00    286255.70
  175.63        3336.75           6711       74488.00    327537.70
  175.67        3337.00           6715       83708.00    368479.50
  175.73        3337.25           6719       92960.00    409653.20
  175.76        3337.50           6723      101776.00    448970.90
  175.80        3337.75           6726      108711.00    479957.80
  175.83        3338.00           6730      119024.00    526133.10
  175.87        3338.25           6734      128021.00    566509.20
  175.93        3338.50           6738      136438.00    604361.50
  175.97        3338.75           6741      141390.00    626667.10
  176.00        3339.00           6745      147102.00    652429.00
  176.04        3339.25           6749      151220.00    671023.80
  176.08        3339.50           6753      153185.00    679903.30
  176.14        3339.75           6756      153454.00    681119.10
  176.17        3340.00           6760      150991.00    669989.30
  176.21        3340.25           6764      147013.00    652027.30
  176.24        3340.50           6768      140653.00    623345.60
  176.28        3340.75           6771      135373.00    599567.80
  176.34        3341.00           6775      126621.00    560220.60
  176.37        3341.25           6779      117687.00    520140.40
  176.41        3341.50           6783      108662.00    479738.70
  176.45        3341.75           6786      100732.00    444310.60
  176.48        3342.00           6790       91349.00    402477.40
  176.54        3342.25           6794       82332.00    362363.60
  176.57        3342.50           6798       72592.00    319129.50
  176.61        3342.75           6801       65612.00    288207.60
  176.65        3343.00           6805       56891.00    249644.40
  176.68        3343.25           6809       47710.00    209132.30
  176.74        3343.50           6813       38692.00    169424.20
  176.78        3343.75           6817       29428.00    128719.90
  176.81        3344.00           6820       23135.00    101119.80
  176.85        3344.25           6824       15730.00     68694.25
  176.89        3344.50           6828        9424.00     41125.01
  176.94        3344.75           6832        5068.00     22104.49
  176.98        3345.00           6835        2960.00     12906.77
  177.02        3345.25           6839        1321.00      5758.51
  177.06        3345.50           6843         545.00      2375.04
  177.09        3345.75           6847         297.00      1293.85
  177.15        3346.00           6850         233.00      1014.85
  177.19        3346.25           6854         206.00       897.14
  177.22        3346.50           6858         208.00       905.86
  177.26        3346.75           6862         208.00       905.86
  177.29        3347.00           6866         200.00       870.99
  177.35        3347.25           6869         200.00       870.99
  177.39        3347.50           6873         195.00       849.19
  177.42        3347.75           6877         209.00       910.22
  177.46        3348.00           6881         192.00       836.11
  177.49        3348.25           6884         201.00       875.35
  177.55        3348.50           6888         192.00       836.11
  177.59        3348.75           6892         209.00       910.22
  177.62        3349.00           6896         191.00       831.75
  177.66        3349.25           6899         196.00       853.55
  177.70        3349.50           6903         201.00       875.35
  177.75        3349.75           6907         189.00       823.03
  177.79        3350.00           6911         205.00       892.78
  177.83        3350.25           6915         188.00       818.68
  177.86        3350.50           6918         190.00       827.39
  177.90        3350.75           6922         200.00       870.99
  177.96        3351.00           6926         190.00       827.39
HL scan finished at 02:59:31
end
