************************************************************
  HL Scan of (1) Internal mercury lamp
************************************************************
Integration time is 0.2294 seconds per sample
dh270619El Arenosillo 37.1 6.73 2.965129pr1000
************************************************************
Dead Time -------------------------  2.65E-08 
Number of Cycles Used -------------  4 
Starting Wavelength (Angstroms) ---  3331 
Final Wavelength (Angstoms) -------  3351 
Wavelength Increment (Angstroms) --  .25 
Filter Wheel #1 Position ---------- (1) Ground quartz diffuser (ND=2.32)
Filter Wheel #2 Position ---------- 



************************************************************
HL scan start time = 04:20:12
Dark Count =  .2 


Time (GMT)  Wavelength (Ang)  Step Number  Raw Counts  Counts/Second

  260.98        3331.00           6625         191.00       831.75
  261.42        3331.25           6629         191.00       831.75
  261.45        3331.50           6632         194.00       844.83
  261.49        3331.75           6636         194.00       844.83
  261.53        3332.00           6640         187.00       814.32
  261.56        3332.25           6644         195.00       849.19
  261.62        3332.50           6647         209.00       910.22
  261.65        3332.75           6651         218.00       949.46
  261.69        3333.00           6655         242.00      1054.08
  261.73        3333.25           6659         256.00      1115.12
  261.76        3333.50           6662         256.00      1115.12
  261.82        3333.75           6666         291.00      1267.70
  261.86        3334.00           6670         621.00      2706.38
  261.89        3334.25           6674        2271.00      9901.47
  261.93        3334.50           6677        4947.00     21576.42
  261.96        3334.75           6681       10029.00     43768.26
  262.02        3335.00           6685       17601.00     76881.85
  262.06        3335.25           6689       26378.00    115338.10
  262.09        3335.50           6692       33572.00    146917.00
  262.13        3335.75           6696       43485.00    190518.30
  262.16        3336.00           6700       53277.00    233686.80
  262.22        3336.25           6704       62870.00    276074.30
  262.26        3336.50           6707       69855.00    306998.40
  262.29        3336.75           6711       79689.00    350622.00
  262.33        3337.00           6715       88962.00    391850.00
  262.37        3337.25           6719       98382.00    433824.60
  262.42        3337.50           6723      108102.00    477234.60
  262.46        3337.75           6726      114861.00    507480.00
  262.50        3338.00           6730      125653.00    555873.80
  262.53        3338.25           6734      135247.00    599000.80
  262.57        3338.50           6738      143608.00    636666.30
  262.63        3338.75           6741      148143.00    657128.00
  262.67        3339.00           6745      152936.00    678777.90
  262.70        3339.25           6749      156580.00    695254.60
  262.74        3339.50           6753      157681.00    700235.80
  262.78        3339.75           6756      157477.00    699312.70
  262.83        3340.00           6760      155198.00    689004.00
  262.87        3340.25           6764      149780.00    664519.50
  262.91        3340.50           6768      143345.00    635480.40
  262.94        3340.75           6771      137470.00    609007.80
  262.98        3341.00           6775      128138.00    567034.80
  263.03        3341.25           6779      119217.00    526998.30
  263.07        3341.50           6783      109661.00    484206.60
  263.11        3341.75           6786      101954.00    449765.70
  263.14        3342.00           6790       92572.00    407924.70
  263.18        3342.25           6794       83271.00    366536.90
  263.24        3342.50           6798       74211.00    326309.00
  263.27        3342.75           6801       67591.00    296969.50
  263.31        3343.00           6805       57703.00    253231.60
  263.34        3343.25           6809       48311.00    211781.60
  263.38        3343.50           6813       38887.00    170281.90
  263.44        3343.75           6817       29626.00    129589.00
  263.47        3344.00           6820       23257.00    101654.50
  263.51        3344.25           6824       15460.00     67513.00
  263.55        3344.50           6828        9347.00     40788.61
  263.58        3344.75           6832        5051.00     22030.29
  263.64        3345.00           6835        2983.00     13007.10
  263.68        3345.25           6839        1310.00      5710.54
  263.71        3345.50           6843         574.00      2501.47
  263.75        3345.75           6847         274.00      1193.59
  263.79        3346.00           6850         224.00       975.61
  263.84        3346.25           6854         207.00       901.50
  263.88        3346.50           6858         215.00       936.38
  263.92        3346.75           6862         197.00       857.91
  263.95        3347.00           6866         193.00       840.47
  263.99        3347.25           6869         196.00       853.55
  264.05        3347.50           6873         202.00       879.71
  264.08        3347.75           6877         200.00       870.99
  264.12        3348.00           6881         205.00       892.78
  264.15        3348.25           6884         190.00       827.39
  264.19        3348.50           6888         213.00       927.66
  264.25        3348.75           6892         193.00       840.47
  264.28        3349.00           6896         210.00       914.58
  264.32        3349.25           6899         198.00       862.27
  264.35        3349.50           6903         191.00       831.75
  264.39        3349.75           6907         216.00       940.74
  264.45        3350.00           6911         192.00       836.11
  264.48        3350.25           6915         213.00       927.66
  264.52        3350.50           6918         191.00       831.75
  264.56        3350.75           6922         196.00       853.55
  264.59        3351.00           6926         186.00       809.96
HL scan finished at 04:26:10
end
