************************************************************
  HL Scan of (1) Internal mercury lamp
************************************************************
Integration time is 0.2294 seconds per sample
dh260619El Arenosillo 37.1 6.73 3.018777pr1000
************************************************************
Dead Time -------------------------  2.65E-08 
Number of Cycles Used -------------  4 
Starting Wavelength (Angstroms) ---  3331 
Final Wavelength (Angstoms) -------  3351 
Wavelength Increment (Angstroms) --  .25 
Filter Wheel #1 Position ---------- (1) Ground quartz diffuser (ND=2.32)
Filter Wheel #2 Position ---------- 



************************************************************
HL scan start time = 02:56:59
Dark Count =  .1 


Time (GMT)  Wavelength (Ang)  Step Number  Raw Counts  Counts/Second

  177.75        3331.00           6625         181.00       788.60
  178.19        3331.25           6629         206.00       897.58
  178.23        3331.50           6632         200.00       871.42
  178.27        3331.75           6636         188.00       819.11
  178.30        3332.00           6640         188.00       819.11
  178.34        3332.25           6644         217.00       945.53
  178.40        3332.50           6647         207.00       901.94
  178.43        3332.75           6651         228.00       993.49
  178.47        3333.00           6655         242.00      1054.52
  178.51        3333.25           6659         259.00      1128.63
  178.54        3333.50           6662         251.00      1093.75
  178.60        3333.75           6666         292.00      1272.49
  178.64        3334.00           6670         623.00      2715.54
  178.67        3334.25           6674        2398.00     10455.82
  178.71        3334.50           6677        5045.00     22004.55
  178.74        3334.75           6681       10184.00     44445.96
  178.80        3335.00           6685       18289.00     79893.91
  178.84        3335.25           6689       27747.00    121343.80
  178.87        3335.50           6692       35112.00    153684.40
  178.91        3335.75           6696       45186.00    198010.60
  178.95        3336.00           6700       55229.00    242304.60
  179.00        3336.25           6704       64920.00    285145.20
  179.04        3336.50           6707       72204.00    317409.80
  179.08        3336.75           6711       82988.00    365279.50
  179.11        3337.00           6715       92646.00    408254.80
  179.15        3337.25           6719      102291.00    451270.80
  179.21        3337.50           6723      112369.00    496323.50
  179.25        3337.75           6726      119443.00    528011.90
  179.28        3338.00           6730      130226.00    576418.40
  179.32        3338.25           6734      139896.00    619935.30
  179.36        3338.50           6738      148622.00    659290.90
  179.40        3338.75           6741      154017.00    683664.60
  179.45        3339.00           6745      159051.00    706436.30
  179.49        3339.25           6749      163240.00    725406.50
  179.52        3339.50           6753      164413.00    730722.10
  179.56        3339.75           6756      164555.00    731365.70
  179.60        3340.00           6760      161260.00    716437.60
  179.65        3340.25           6764      156936.00    696865.60
  179.69        3340.50           6768      149784.00    664538.00
  179.73        3340.75           6771      144234.00    639490.00
  179.76        3341.00           6775      134861.00    597264.10
  179.80        3341.25           6779      125371.00    554608.10
  179.86        3341.50           6783      114805.00    507229.70
  179.89        3341.75           6786      107456.00    474346.90
  179.93        3342.00           6790       97252.00    428784.90
  179.97        3342.25           6794       87303.00    384467.90
  180.00        3342.50           6798       77473.00    340783.40
  180.06        3342.75           6801       69756.00    306560.10
  180.10        3343.00           6805       60455.00    265394.90
  180.13        3343.25           6809       51287.00    224906.20
  180.17        3343.50           6813       41767.00    182955.10
  180.20        3343.75           6817       32157.00    140701.90
  180.26        3344.00           6820       25204.00    110190.10
  180.30        3344.25           6824       16658.00     72755.23
  180.34        3344.50           6828       10083.00     44004.65
  180.37        3344.75           6832        5758.00     25116.54
  180.41        3345.00           6835        3361.00     14656.52
  180.47        3345.25           6839        1465.00      6386.87
  180.50        3345.50           6843         597.00      2602.18
  180.54        3345.75           6847         296.00      1289.93
  180.58        3346.00           6850         240.00      1045.80
  180.61        3346.25           6854         220.00       958.61
  180.67        3346.50           6858         196.00       853.99
  180.70        3346.75           6862         210.00       915.02
  180.74        3347.00           6866         187.00       814.75
  180.78        3347.25           6869         195.00       849.63
  180.81        3347.50           6873         200.00       871.42
  180.86        3347.75           6877         198.00       862.70
  180.91        3348.00           6881         202.00       880.14
  180.94        3348.25           6884         210.00       915.02
  180.98        3348.50           6888         210.00       915.02
  181.01        3348.75           6892         204.00       888.86
  181.05        3349.00           6896         204.00       888.86
  181.11        3349.25           6899         212.00       923.74
  181.14        3349.50           6903         207.00       901.94
  181.18        3349.75           6907         198.00       862.70
  181.21        3350.00           6911         203.00       884.50
  181.25        3350.25           6915         211.00       919.38
  181.31        3350.50           6918         189.00       823.47
  181.34        3350.75           6922         198.00       862.70
  181.38        3351.00           6926         194.00       845.27
HL scan finished at 03:02:56
end
