************************************************************
  HL Scan of (1) Internal mercury lamp
************************************************************
Integration time is 0.2294 seconds per sample
dh260619El Arenosillo 37.1 6.73 3.018777pr1000
************************************************************
Dead Time -------------------------  2.65E-08 
Number of Cycles Used -------------  4 
Starting Wavelength (Angstroms) ---  3331 
Final Wavelength (Angstoms) -------  3351 
Wavelength Increment (Angstroms) --  .25 
Filter Wheel #1 Position ---------- (1) Ground quartz diffuser (ND=2.32)
Filter Wheel #2 Position ---------- 



************************************************************
HL scan start time = 02:56:59
Dark Count =  .1 


Time (GMT)  Wavelength (Ang)  Step Number  Raw Counts  Counts/Second

  177.75        3331.00           6625         181.00       788.60
  178.19        3331.25           6629         206.00       897.58
  178.23        3331.50           6632         200.00       871.42
  178.27        3331.75           6636         188.00       819.11
  178.30        3332.00           6640         188.00       819.11
  178.34        3332.25           6644         217.00       945.53
  178.40        3332.50           6647         207.00       901.94
  178.43        3332.75           6651         228.00       993.49
  178.47        3333.00           6655         242.00      1054.52
  178.51        3333.25           6659         259.00      1128.63
  178.54        3333.50           6662         251.00      1093.75
  178.60        3333.75           6666         292.00      1272.49
  178.64        3334.00           6670         623.00      2715.54
  178.67        3334.25           6674        2398.00     10455.82
  178.71        3334.50           6677        5045.00     22004.55
  178.74        3334.75           6681       10184.00     44445.96
  178.80        3335.00           6685       18289.00     79893.91
  178.84        3335.25           6689       27747.00    121343.80
  178.87        3335.50           6692       35112.00    153684.40
  178.91        3335.75           6696       45186.00    198010.60
  178.95        3336.00           6700       55229.00    242304.60
  179.00        3336.25           6704       64920.00    285145.20
  179.04        3336.50           6707       72204.00    317409.80
  179.08        3336.75           6711       82988.00    365279.50
  179.11        3337.00           6715       92646.00    408254.80
  179.15        3337.25           6719      102291.00    451270.80
  179.21        3337.50           6723      112369.00    496323.50
  179.25        3337.75           6726      119443.00    528011.90
  179.28        3338.00           6730      130226.00    576418.40
  179.32        3338.25           6734      139896.00    619935.30
  179.36        3338.50           6738      148622.00    659290.90
  179.40        3338.75           6741      154017.00    683664.60
  179.45        3339.00           6745      159051.00    706436.30
  179.49        3339.25           6749      163240.00    725406.50
  179.52        3339.50           6753      164413.00    730722.10
  179.56        3339.75           6756      164555.00    731365.70
  179.60        3340.00           6760      161260.00    716437.60
  179.65        3340.25           6764      156936.00    696865.60
  179.69        3340.50           6768      149784.00    664538.00
  179.73        3340.75           6771      144234.00    639490.00
  179.76        3341.00           6775      134861.00    597264.10
  179.80        3341.25           6779      125371.00    554608.10
  179.86        3341.50           6783      114805.00    507229.70
  179.89        3341.75           6786      107456.00    474346.90
  179.93        3342.00           6790       97252.00    428784.90
  179.97        3342.25           6794       87303.00    384467.90
  180.00        3342.50           6798       77473.00    340783.40
  180.06        3342.75           6801       69756.00    306560.10
  180.10        3343.00           6805       60455.00    265394.90
  180.13        3343.25           6809       51287.00    224906.20
  180.17        3343.50           6813       41767.00    182955.10
  180.20        3343.75           6817       32157.00    140701.90
  180.26        3344.00           6820       25204.00    110190.10
  180.30        3344.25           6824       16658.00     72755.23
  180.34        3344.50           6828       10083.00     44004.65
  180.37        3344.75           6832        5758.00     25116.54
  180.41        3345.00           6835        3361.00     14656.52
  180.47        3345.25           6839        1465.00      6386.87
  180.50        3345.50           6843         597.00      2602.18
  180.54        3345.75           6847         296.00      1289.93
  180.58        3346.00           6850         240.00      1045.80
  180.61        3346.25           6854         220.00       958.61
  180.67        3346.50           6858         196.00       853.99
  180.70        3346.75           6862         210.00       915.02
  180.74        3347.00           6866         187.00       814.75
  180.78        3347.25           6869         195.00       849.63
  180.81        3347.50           6873         200.00       871.42
  180.86        3347.75           6877         198.00       862.70
  180.91        3348.00           6881         202.00       880.14
  180.94        3348.25           6884         210.00       915.02
  180.98        3348.50           6888         210.00       915.02
  181.01        3348.75           6892         204.00       888.86
  181.05        3349.00           6896         204.00       888.86
  181.11        3349.25           6899         212.00       923.74
  181.14        3349.50           6903         207.00       901.94
  181.18        3349.75           6907         198.00       862.70
  181.21        3350.00           6911         203.00       884.50
  181.25        3350.25           6915         211.00       919.38
  181.31        3350.50           6918         189.00       823.47
  181.34        3350.75           6922         198.00       862.70
  181.38        3351.00           6926         194.00       845.27
HL scan finished at 03:02:56
end
************************************************************
  HL Scan of (1) Internal mercury lamp
************************************************************
Integration time is 0.2294 seconds per sample
dh260619El Arenosillo 37.1 6.73 3.072425pr1000
************************************************************
Dead Time -------------------------  2.65E-08 
Number of Cycles Used -------------  4 
Starting Wavelength (Angstroms) ---  3331 
Final Wavelength (Angstoms) -------  3351 
Wavelength Increment (Angstroms) --  .25 
Filter Wheel #1 Position ---------- (1) Ground quartz diffuser (ND=2.32)
Filter Wheel #2 Position ---------- 



************************************************************
HL scan start time = 20:58:09
Dark Count =  .2 


Time (GMT)  Wavelength (Ang)  Step Number  Raw Counts  Counts/Second

 1258.92        3331.00           6625         197.00       857.91
 1259.37        3331.25           6629         184.00       801.24
 1259.40        3331.50           6632         192.00       836.11
 1259.44        3331.75           6636         182.00       792.52
 1259.50        3332.00           6640         186.00       809.96
 1259.54        3332.25           6644         186.00       809.96
 1259.58        3332.50           6647         203.00       884.07
 1259.63        3332.75           6651         213.00       927.66
 1259.67        3333.00           6655         235.00      1023.57
 1259.73        3333.25           6659         234.00      1019.21
 1259.76        3333.50           6662         260.00      1132.55
 1259.80        3333.75           6666         279.00      1215.38
 1259.86        3334.00           6670         545.00      2375.04
 1259.89        3334.25           6674        1975.00      8610.51
 1259.93        3334.50           6677        4265.00     18600.27
 1259.99        3334.75           6681        9246.00     40347.39
 1260.02        3335.00           6685       16822.00     73472.48
 1260.08        3335.25           6689       26122.00    114215.30
 1260.12        3335.50           6692       33438.00    146328.30
 1260.16        3335.75           6696       43284.00    189633.20
 1260.22        3336.00           6700       53262.00    233620.60
 1260.25        3336.25           6704       63379.00    278326.00
 1260.29        3336.50           6707       70973.00    311952.70
 1260.35        3336.75           6711       80469.00    354086.40
 1260.38        3337.00           6715       90449.00    398469.70
 1260.42        3337.25           6719      100297.00    442369.10
 1260.48        3337.50           6723      109858.00    485087.70
 1260.52        3337.75           6726      117016.00    517133.50
 1260.58        3338.00           6730      126698.00    560566.50
 1260.62        3338.25           6734      136909.00    606481.90
 1260.65        3338.50           6738      146104.00    647925.30
 1260.71        3338.75           6741      151456.00    672090.10
 1260.75        3339.00           6745      157532.00    699561.60
 1260.79        3339.25           6749      161207.00    716197.10
 1260.85        3339.50           6753      163247.00    725437.80
 1260.88        3339.75           6756      162744.00    723158.90
 1260.92        3340.00           6760      160967.00    715110.10
 1260.98        3340.25           6764      156106.00    693110.50
 1261.02        3340.50           6768      149984.00    665440.70
 1261.08        3340.75           6771      143891.00    637942.60
 1261.11        3341.00           6775      135389.00    599639.80
 1261.15        3341.25           6779      125667.00    555936.60
 1261.21        3341.50           6783      115382.00    509813.40
 1261.24        3341.75           6786      108191.00    477632.60
 1261.28        3342.00           6790       98252.00    433244.70
 1261.34        3342.25           6794       88110.00    388058.30
 1261.38        3342.50           6798       78242.00    344196.70
 1261.41        3342.75           6801       70859.00    311447.50
 1261.47        3343.00           6805       61359.00    269391.50
 1261.51        3343.25           6809       52465.00    230103.30
 1261.57        3343.50           6813       43206.00    189289.80
 1261.60        3343.75           6817       33425.00    146271.20
 1261.64        3344.00           6820       26406.00    115460.90
 1261.70        3344.25           6824       18028.00     78750.93
 1261.74        3344.50           6828       11076.00     48343.50
 1261.78        3344.75           6832        6110.00     26652.65
 1261.83        3345.00           6835        3651.00     15921.28
 1261.87        3345.25           6839        1686.00      7350.17
 1261.91        3345.50           6843         713.00      3107.49
 1261.97        3345.75           6847         339.00      1476.95
 1262.00        3346.00           6850         247.00      1075.88
 1262.06        3346.25           6854         229.00       997.41
 1262.10        3346.50           6858         217.00       945.10
 1262.13        3346.75           6862         205.00       892.78
 1262.19        3347.00           6866         209.00       910.22
 1262.23        3347.25           6869         194.00       844.83
 1262.26        3347.50           6873         195.00       849.19
 1262.32        3347.75           6877         201.00       875.35
 1262.36        3348.00           6881         198.00       862.27
 1262.40        3348.25           6884         209.00       910.22
 1262.46        3348.50           6888         198.00       862.27
 1262.49        3348.75           6892         200.00       870.99
 1262.55        3349.00           6896         195.00       849.19
 1262.59        3349.25           6899         212.00       923.30
 1262.62        3349.50           6903         213.00       927.66
 1262.68        3349.75           6907         210.00       914.58
 1262.72        3350.00           6911         197.00       857.91
 1262.75        3350.25           6915         186.00       809.96
 1262.81        3350.50           6918         196.00       853.55
 1262.85        3350.75           6922         188.00       818.68
 1262.89        3351.00           6926         197.00       857.91
HL scan finished at 21:04:28
end
