************************************************************
  HL Scan of (1) Internal mercury lamp
************************************************************
Integration time is 0.2294 seconds per sample
dh190619El Arenosillo 37.1 6.73 2.965129pr1000
************************************************************
Dead Time -------------------------  2.65E-08 
Number of Cycles Used -------------  4 
Starting Wavelength (Angstroms) ---  3331 
Final Wavelength (Angstoms) -------  3351 
Wavelength Increment (Angstroms) --  .25 
Filter Wheel #1 Position ---------- (1) Ground quartz diffuser (ND=2.32)
Filter Wheel #2 Position ---------- 



************************************************************
HL scan start time = 22:17:13
Dark Count =  .1 


Time (GMT)  Wavelength (Ang)  Step Number  Raw Counts  Counts/Second

 1338.00        3331.00           6625         185.00       806.03
 1338.42        3331.25           6629         188.00       819.11
 1338.46        3331.50           6632         197.00       858.35
 1338.52        3331.75           6636         178.00       775.52
 1338.55        3332.00           6640         197.00       858.35
 1338.59        3332.25           6644         197.00       858.35
 1338.62        3332.50           6647         210.00       915.02
 1338.68        3332.75           6651         208.00       906.30
 1338.72        3333.00           6655         226.00       984.77
 1338.75        3333.25           6659         251.00      1093.75
 1338.79        3333.50           6662         250.00      1089.39
 1338.84        3333.75           6666         294.00      1281.21
 1338.88        3334.00           6670         721.00      3142.81
 1338.92        3334.25           6674        2575.00     11227.84
 1338.95        3334.50           6677        5140.00     22419.16
 1339.01        3334.75           6681       10206.00     44542.08
 1339.04        3335.00           6685       16509.00     72103.21
 1339.08        3335.25           6689       24742.00    108164.40
 1339.13        3335.50           6692       31266.00    136789.20
 1339.18        3335.75           6696       40326.00    176613.30
 1339.21        3336.00           6700       49593.00    217434.50
 1339.25        3336.25           6704       58540.00    256930.40
 1339.31        3336.50           6707       64952.00    285286.90
 1339.34        3336.75           6711       73469.00    323018.70
 1339.38        3337.00           6715       81809.00    360040.00
 1339.41        3337.25           6719       90446.00    398456.80
 1339.47        3337.50           6723       99346.00    438125.80
 1339.51        3337.75           6726      105643.00    466243.60
 1339.54        3338.00           6730      114460.00    505684.70
 1339.58        3338.25           6734      122629.00    542301.30
 1339.64        3338.50           6738      131134.00    580500.40
 1339.67        3338.75           6741      136132.00    602984.50
 1339.71        3339.00           6745      141070.00    625225.30
 1339.75        3339.25           6749      144528.00    640816.00
 1339.80        3339.50           6753      145713.00    646161.60
 1339.84        3339.75           6756      145029.00    643076.00
 1339.88        3340.00           6760      142452.00    631454.60
 1339.92        3340.25           6764      137753.00    610282.60
 1339.97        3340.50           6768      132143.00    585037.30
 1340.01        3340.75           6771      126872.00    561348.40
 1340.04        3341.00           6775      119191.00    526882.10
 1340.10        3341.25           6779      111066.00    490492.50
 1340.14        3341.50           6783      102284.00    451239.50
 1340.17        3341.75           6786       94900.00    418298.60
 1340.21        3342.00           6790       85162.00    374944.60
 1340.27        3342.25           6794       76208.00    335169.10
 1340.30        3342.50           6798       66924.00    294016.50
 1340.34        3342.75           6801       60278.00    264612.30
 1340.38        3343.00           6805       51464.00    225687.10
 1340.43        3343.25           6809       42871.00    187815.20
 1340.47        3343.50           6813       34480.00    150907.00
 1340.50        3343.75           6817       26286.00    114935.00
 1340.54        3344.00           6820       20377.00     89036.78
 1340.60        3344.25           6824       13631.00     59513.58
 1340.63        3344.50           6828        8153.00     35573.63
 1340.67        3344.75           6832        4310.00     18797.07
 1340.72        3345.00           6835        2407.00     10495.07
 1340.76        3345.25           6839        1034.00      4507.51
 1340.80        3345.50           6843         437.00      1904.63
 1340.84        3345.75           6847         243.00      1058.88
 1340.89        3346.00           6850         245.00      1067.60
 1340.93        3346.25           6854         221.00       962.97
 1340.97        3346.50           6858         195.00       849.63
 1341.00        3346.75           6862         193.00       840.91
 1341.06        3347.00           6866         198.00       862.70
 1341.10        3347.25           6869         201.00       875.78
 1341.13        3347.50           6873         193.00       840.91
 1341.17        3347.75           6877         192.00       836.55
 1341.22        3348.00           6881         194.00       845.27
 1341.26        3348.25           6884         195.00       849.63
 1341.30        3348.50           6888         206.00       897.58
 1341.33        3348.75           6892         193.00       840.91
 1341.39        3349.00           6896         193.00       840.91
 1341.43        3349.25           6899         200.00       871.42
 1341.46        3349.50           6903         192.00       836.55
 1341.51        3349.75           6907         191.00       832.19
 1341.55        3350.00           6911         213.00       928.10
 1341.59        3350.25           6915         191.00       832.19
 1341.63        3350.50           6918         195.00       849.63
 1341.68        3350.75           6922         201.00       875.78
 1341.72        3351.00           6926         182.00       792.95
HL scan finished at 22:23:17
end
