************************************************************
  HL Scan of (1) Internal mercury lamp
************************************************************
Integration time is 0.2294 seconds per sample
dh210619El Arenosillo 37.1 6.73 3.072425pr1000
************************************************************
Dead Time -------------------------  2.65E-08 
Number of Cycles Used -------------  4 
Starting Wavelength (Angstroms) ---  3331 
Final Wavelength (Angstoms) -------  3351 
Wavelength Increment (Angstroms) --  .25 
Filter Wheel #1 Position ---------- (1) Ground quartz diffuser (ND=2.32)
Filter Wheel #2 Position ---------- 



************************************************************
HL scan start time = 22:06:32
Dark Count =  .1 


Time (GMT)  Wavelength (Ang)  Step Number  Raw Counts  Counts/Second

 1327.31        3331.00           6625         194.00       845.27
 1327.73        3331.25           6629         196.00       853.99
 1327.79        3331.50           6632         198.00       862.70
 1327.83        3331.75           6636         197.00       858.35
 1327.87        3332.00           6640         203.00       884.50
 1327.92        3332.25           6644         199.00       867.06
 1327.96        3332.50           6647         203.00       884.50
 1327.99        3332.75           6651         208.00       906.30
 1328.03        3333.00           6655         222.00       967.33
 1328.09        3333.25           6659         244.00      1063.24
 1328.12        3333.50           6662         255.00      1111.19
 1328.16        3333.75           6666         297.00      1294.29
 1328.22        3334.00           6670         700.00      3051.25
 1328.26        3334.25           6674        2723.00     11873.40
 1328.29        3334.50           6677        5616.00     24496.72
 1328.35        3334.75           6681       10680.00     46613.35
 1328.39        3335.00           6685       17708.00     77350.65
 1328.42        3335.25           6689       27034.00    118215.90
 1328.46        3335.50           6692       34383.00    150480.70
 1328.52        3335.75           6696       44467.00    194843.50
 1328.55        3336.00           6700       55073.00    241615.80
 1328.59        3336.25           6704       65342.00    287013.00
 1328.65        3336.50           6707       72532.00    318863.90
 1328.68        3336.75           6711       82340.00    362399.60
 1328.72        3337.00           6715       92148.00    406036.50
 1328.78        3337.25           6719      101709.00    448672.30
 1328.81        3337.50           6723      111953.00    494461.70
 1328.85        3337.75           6726      119046.00    526232.10
 1328.89        3338.00           6730      129167.00    571658.80
 1328.94        3338.25           6734      138618.00    614178.20
 1328.98        3338.50           6738      148134.00    657087.70
 1329.02        3338.75           6741      154270.00    684808.50
 1329.08        3339.00           6745      160113.00    711243.90
 1329.12        3339.25           6749      163830.00    728080.00
 1329.15        3339.50           6753      165512.00    735703.60
 1329.21        3339.75           6756      165415.00    735264.00
 1329.25        3340.00           6760      162825.00    723526.30
 1329.28        3340.25           6764      157788.00    700720.50
 1329.32        3340.50           6768      151305.00    671408.30
 1329.38        3340.75           6771      145203.00    643860.80
 1329.41        3341.00           6775      136122.00    602939.50
 1329.45        3341.25           6779      126524.00    559785.50
 1329.51        3341.50           6783      116437.00    514539.80
 1329.54        3341.75           6786      109465.00    483330.30
 1329.58        3342.00           6790       98559.00    434614.70
 1329.64        3342.25           6794       88080.00    387925.20
 1329.67        3342.50           6798       77514.00    340965.40
 1329.71        3342.75           6801       69514.00    305487.90
 1329.74        3343.00           6805       59751.00    262282.70
 1329.80        3343.25           6809       49982.00    219150.00
 1329.84        3343.50           6813       40743.00    178448.20
 1329.87        3343.75           6817       30842.00    134927.50
 1329.93        3344.00           6820       23898.00    104464.50
 1329.97        3344.25           6824       15945.00     69635.36
 1330.01        3344.50           6828        9671.00     42204.55
 1330.07        3344.75           6832        5137.00     22406.06
 1330.10        3345.00           6835        3017.00     13155.85
 1330.14        3345.25           6839        1306.00      5693.54
 1330.18        3345.50           6843         551.00      2401.64
 1330.23        3345.75           6847         302.00      1316.09
 1330.27        3346.00           6850         246.00      1071.96
 1330.31        3346.25           6854         232.00      1010.93
 1330.36        3346.50           6858         207.00       901.94
 1330.40        3346.75           6862         211.00       919.38
 1330.43        3347.00           6866         198.00       862.70
 1330.49        3347.25           6869         207.00       901.94
 1330.53        3347.50           6873         195.00       849.63
 1330.57        3347.75           6877         200.00       871.42
 1330.60        3348.00           6881         210.00       915.02
 1330.66        3348.25           6884         208.00       906.30
 1330.69        3348.50           6888         194.00       845.27
 1330.73        3348.75           6892         206.00       897.58
 1330.79        3349.00           6896         197.00       858.35
 1330.82        3349.25           6899         188.00       819.11
 1330.86        3349.50           6903         213.00       928.10
 1330.92        3349.75           6907         214.00       932.46
 1330.95        3350.00           6911         194.00       845.27
 1330.99        3350.25           6915         200.00       871.42
 1331.03        3350.50           6918         207.00       901.94
 1331.08        3350.75           6922         205.00       893.22
 1331.12        3351.00           6926         199.00       867.06
HL scan finished at 22:12:41
end
