************************************************************
  HL Scan of (1) Internal mercury lamp
************************************************************
Integration time is 0.2294 seconds per sample
dh250619El Arenosillo 37.1 6.73 3.018777pr1000
************************************************************
Dead Time -------------------------  2.65E-08 
Number of Cycles Used -------------  4 
Starting Wavelength (Angstroms) ---  3331 
Final Wavelength (Angstoms) -------  3351 
Wavelength Increment (Angstroms) --  .25 
Filter Wheel #1 Position ---------- (1) Ground quartz diffuser (ND=2.32)
Filter Wheel #2 Position ---------- 



************************************************************
HL scan start time = 03:09:24
Dark Count =  .2 


Time (GMT)  Wavelength (Ang)  Step Number  Raw Counts  Counts/Second

  190.19        3331.00           6625         189.00       823.03
  190.62        3331.25           6629         179.00       779.44
  190.66        3331.50           6632         193.00       840.47
  190.69        3331.75           6636         191.00       831.75
  190.73        3332.00           6640         199.00       866.63
  190.77        3332.25           6644         195.00       849.19
  190.82        3332.50           6647         181.00       788.16
  190.86        3332.75           6651         222.00       966.89
  190.89        3333.00           6655         222.00       966.89
  190.93        3333.25           6659         248.00      1080.24
  190.99        3333.50           6662         254.00      1106.40
  191.02        3333.75           6666         271.00      1180.51
  191.06        3334.00           6670         507.00      2209.37
  191.10        3334.25           6674        1798.00      7838.59
  191.13        3334.50           6677        4030.00     17574.88
  191.19        3334.75           6681        8477.00     36988.29
  191.23        3335.00           6685       15540.00     67863.00
  191.27        3335.25           6689       24150.00    105568.70
  191.30        3335.50           6692       31374.00    137263.00
  191.34        3335.75           6696       40502.00    177387.30
  191.40        3336.00           6700       49895.00    218765.90
  191.43        3336.25           6704       59516.00    261243.50
  191.47        3336.50           6707       66453.00    291930.60
  191.50        3336.75           6711       75966.00    334094.80
  191.54        3337.00           6715       85157.00    374921.90
  191.60        3337.25           6719       94250.00    415401.30
  191.64        3337.50           6723      103407.00    456254.00
  191.67        3337.75           6726      110338.00    487235.00
  191.71        3338.00           6730      120915.00    534612.10
  191.75        3338.25           6734      130355.00    576997.80
  191.81        3338.50           6738      138501.00    613650.80
  191.84        3338.75           6741      143902.00    637992.10
  191.88        3339.00           6745      149983.00    665436.10
  191.92        3339.25           6749      154279.00    684848.60
  191.95        3339.50           6753      156227.00    693657.90
  192.01        3339.75           6756      156030.00    692766.80
  192.05        3340.00           6760      154011.00    683637.10
  192.08        3340.25           6764      149846.00    664817.50
  192.12        3340.50           6768      143502.00    636188.30
  192.16        3340.75           6771      138203.00    612308.60
  192.21        3341.00           6775      129302.00    572265.10
  192.25        3341.25           6779      120633.00    533347.40
  192.29        3341.50           6783      110565.00    488250.50
  192.32        3341.75           6786      103789.00    457960.10
  192.36        3342.00           6790       93161.00    410548.70
  192.42        3342.25           6794       83687.00    368386.10
  192.45        3342.50           6798       74006.00    325399.90
  192.49        3342.75           6801       67153.00    295030.00
  192.53        3343.00           6805       58006.00    254570.40
  192.56        3343.25           6809       49034.00    214969.20
  192.62        3343.50           6813       39741.00    174038.90
  192.66        3343.75           6817       30590.00    133820.70
  192.69        3344.00           6820       24207.00    105818.60
  192.73        3344.25           6824       16202.00     70759.41
  192.77        3344.50           6828        9902.00     43213.37
  192.83        3344.75           6832        5269.00     22981.73
  192.86        3345.00           6835        3077.00     13417.15
  192.90        3345.25           6839        1360.00      5928.57
  192.93        3345.50           6843         581.00      2531.99
  192.97        3345.75           6847         275.00      1197.95
  193.03        3346.00           6850         233.00      1014.85
  193.06        3346.25           6854         212.00       923.30
  193.10        3346.50           6858         191.00       831.75
  193.14        3346.75           6862         201.00       875.35
  193.17        3347.00           6866         201.00       875.35
  193.23        3347.25           6869         192.00       836.11
  193.26        3347.50           6873         204.00       888.43
  193.30        3347.75           6877         201.00       875.35
  193.34        3348.00           6881         201.00       875.35
  193.37        3348.25           6884         212.00       923.30
  193.43        3348.50           6888         204.00       888.43
  193.47        3348.75           6892         207.00       901.50
  193.50        3349.00           6896         201.00       875.35
  193.54        3349.25           6899         209.00       910.22
  193.58        3349.50           6903         209.00       910.22
  193.63        3349.75           6907         207.00       901.50
  193.67        3350.00           6911         197.00       857.91
  193.71        3350.25           6915         193.00       840.47
  193.74        3350.50           6918         190.00       827.39
  193.78        3350.75           6922         193.00       840.47
  193.84        3351.00           6926         210.00       914.58
HL scan finished at 03:15:24
end
************************************************************
  HL Scan of (1) Internal mercury lamp
************************************************************
Integration time is 0.2294 seconds per sample
dh250619El Arenosillo 37.1 6.73 3.126073pr1000
************************************************************
Dead Time -------------------------  2.65E-08 
Number of Cycles Used -------------  4 
Starting Wavelength (Angstroms) ---  3331 
Final Wavelength (Angstoms) -------  3351 
Wavelength Increment (Angstroms) --  .25 
Filter Wheel #1 Position ---------- (1) Ground quartz diffuser (ND=2.32)
Filter Wheel #2 Position ---------- 



************************************************************
HL scan start time = 20:58:07
Dark Count =  .3 


Time (GMT)  Wavelength (Ang)  Step Number  Raw Counts  Counts/Second

 1258.89        3331.00           6625         182.00       792.08
 1259.34        3331.25           6629         194.00       844.40
 1259.37        3331.50           6632         184.00       800.80
 1259.41        3331.75           6636         197.00       857.47
 1259.47        3332.00           6640         207.00       901.07
 1259.51        3332.25           6644         201.00       874.91
 1259.55        3332.50           6647         215.00       935.94
 1259.60        3332.75           6651         217.00       944.66
 1259.64        3333.00           6655         237.00      1031.85
 1259.70        3333.25           6659         245.00      1066.73
 1259.73        3333.50           6662         264.00      1149.56
 1259.77        3333.75           6666         307.00      1337.01
 1259.83        3334.00           6670         630.00      2745.19
 1259.87        3334.25           6674        2524.00     11004.52
 1259.90        3334.50           6677        5024.00     21912.02
 1259.96        3334.75           6681       10493.00     45795.30
 1260.00        3335.00           6685       18529.00     80943.71
 1260.06        3335.25           6689       28015.00    122518.80
 1260.09        3335.50           6692       35956.00    157393.10
 1260.13        3335.75           6696       46235.00    202631.40
 1260.19        3336.00           6700       56675.00    248689.80
 1260.23        3336.25           6704       66872.00    293785.40
 1260.26        3336.50           6707       73922.00    325026.90
 1260.32        3336.75           6711       84778.00    373236.20
 1260.36        3337.00           6715       94623.00    417063.20
 1260.39        3337.25           6719      104764.00    462315.20
 1260.45        3337.50           6723      114633.00    506458.60
 1260.49        3337.75           6726      122194.00    540348.80
 1260.55        3338.00           6730      131886.00    583880.60
 1260.59        3338.25           6734      142592.00    632085.00
 1260.62        3338.50           6738      151463.00    672121.30
 1260.68        3338.75           6741      157051.00    697385.00
 1260.72        3339.00           6745      162395.00    721577.50
 1260.76        3339.25           6749      166163.00    738654.20
 1260.82        3339.50           6753      167692.00    745588.10
 1260.85        3339.75           6756      167153.00    743143.60
 1260.89        3340.00           6760      164318.00    730290.60
 1260.95        3340.25           6764      159537.00    708635.30
 1260.99        3340.50           6768      152298.00    675894.20
 1261.04        3340.75           6771      145922.00    647103.70
 1261.08        3341.00           6775      137098.00    607332.40
 1261.12        3341.25           6779      127890.00    565920.30
 1261.18        3341.50           6783      116947.00    516823.90
 1261.21        3341.75           6786      109138.00    481867.00
 1261.25        3342.00           6790       98760.00    435510.50
 1261.31        3342.25           6794       88600.00    390238.50
 1261.35        3342.50           6798       78802.00    346682.60
 1261.38        3342.75           6801       70773.00    311065.90
 1261.44        3343.00           6805       61150.00    268466.90
 1261.48        3343.25           6809       51827.00    227287.70
 1261.54        3343.50           6813       42255.00    185102.40
 1261.57        3343.75           6817       32334.00    141478.40
 1261.61        3344.00           6820       25444.00    111241.60
 1261.67        3344.25           6824       17010.00     74294.78
 1261.71        3344.50           6828       10277.00     44851.45
 1261.74        3344.75           6832        5768.00     25159.32
 1261.80        3345.00           6835        3377.00     14725.45
 1261.84        3345.25           6839        1531.00      6673.80
 1261.88        3345.50           6843         644.00      2806.22
 1261.94        3345.75           6847         305.00      1328.29
 1261.97        3346.00           6850         229.00       996.97
 1262.03        3346.25           6854         232.00      1010.05
 1262.07        3346.50           6858         219.00       953.38
 1262.11        3346.75           6862         191.00       831.32
 1262.16        3347.00           6866         193.00       840.04
 1262.20        3347.25           6869         219.00       953.38
 1262.24        3347.50           6873         203.00       883.63
 1262.30        3347.75           6877         191.00       831.32
 1262.33        3348.00           6881         214.00       931.58
 1262.37        3348.25           6884         201.00       874.91
 1262.43        3348.50           6888         191.00       831.32
 1262.46        3348.75           6892         204.00       887.99
 1262.52        3349.00           6896         202.00       879.27
 1262.56        3349.25           6899         213.00       927.22
 1262.59        3349.50           6903         197.00       857.47
 1262.65        3349.75           6907         200.00       870.55
 1262.69        3350.00           6911         209.00       909.79
 1262.72        3350.25           6915         202.00       879.27
 1262.78        3350.50           6918         201.00       874.91
 1262.82        3350.75           6922         213.00       927.22
 1262.85        3351.00           6926         209.00       909.79
HL scan finished at 21:04:26
end
