************************************************************
  HL Scan of (1) Internal mercury lamp
************************************************************
Integration time is 0.2294 seconds per sample
dh230619El Arenosillo 37.1 6.73 2.965129pr1000
************************************************************
Dead Time -------------------------  2.65E-08 
Number of Cycles Used -------------  4 
Starting Wavelength (Angstroms) ---  3331 
Final Wavelength (Angstoms) -------  3351 
Wavelength Increment (Angstroms) --  .25 
Filter Wheel #1 Position ---------- (1) Ground quartz diffuser (ND=2.32)
Filter Wheel #2 Position ---------- 



************************************************************
HL scan start time = 22:16:56
Dark Count =  .2 


Time (GMT)  Wavelength (Ang)  Step Number  Raw Counts  Counts/Second

 1337.73        3331.00           6625         206.00       897.14
 1338.15        3331.25           6629         185.00       805.60
 1338.19        3331.50           6632         185.00       805.60
 1338.22        3331.75           6636         188.00       818.68
 1338.28        3332.00           6640         187.00       814.32
 1338.31        3332.25           6644         206.00       897.14
 1338.35        3332.50           6647         193.00       840.47
 1338.39        3332.75           6651         209.00       910.22
 1338.44        3333.00           6655         219.00       953.82
 1338.48        3333.25           6659         239.00      1041.01
 1338.52        3333.50           6662         244.00      1062.80
 1338.55        3333.75           6666         284.00      1237.18
 1338.61        3334.00           6670         506.00      2205.01
 1338.64        3334.25           6674        1994.00      8693.37
 1338.68        3334.50           6677        4043.00     17631.60
 1338.72        3334.75           6681        9031.00     39408.18
 1338.77        3335.00           6685       15658.00     68379.25
 1338.81        3335.25           6689       24452.00    106892.60
 1338.85        3335.50           6692       31155.00    136301.40
 1338.88        3335.75           6696       40281.00    176414.80
 1338.94        3336.00           6700       49628.00    217588.40
 1338.98        3336.25           6704       58587.00    257137.70
 1339.01        3336.50           6707       64902.00    285065.10
 1339.05        3336.75           6711       74093.00    325785.70
 1339.10        3337.00           6715       83303.00    366679.10
 1339.14        3337.25           6719       92575.00    407938.10
 1339.18        3337.50           6723      101808.00    449113.80
 1339.21        3337.75           6726      108003.00    476792.00
 1339.27        3338.00           6730      118806.00    525155.80
 1339.31        3338.25           6734      127817.00    565592.80
 1339.34        3338.50           6738      135899.00    601935.20
 1339.38        3338.75           6741      140812.00    624062.10
 1339.44        3339.00           6745      146040.00    647636.50
 1339.47        3339.25           6749      149704.00    664176.10
 1339.51        3339.50           6753      151934.00    674249.70
 1339.55        3339.75           6756      151970.00    674412.40
 1339.60        3340.00           6760      149367.00    662654.30
 1339.64        3340.25           6764      144913.00    642552.10
 1339.68        3340.50           6768      138494.00    613619.10
 1339.71        3340.75           6771      133268.00    590096.60
 1339.77        3341.00           6775      124140.00    549081.60
 1339.81        3341.25           6779      115207.00    509029.60
 1339.84        3341.50           6783      105987.00    467780.40
 1339.88        3341.75           6786       98848.00    435903.50
 1339.93        3342.00           6790       89918.00    396105.60
 1339.97        3342.25           6794       80410.00    353824.30
 1340.01        3342.50           6798       71137.00    312679.50
 1340.04        3342.75           6801       64322.00    282498.50
 1340.10        3343.00           6805       55615.00    244008.70
 1340.14        3343.25           6809       46818.00    205200.90
 1340.17        3343.50           6813       37995.00    166358.60
 1340.21        3343.75           6817       29012.00    126894.20
 1340.27        3344.00           6820       22642.00     98959.27
 1340.30        3344.25           6824       15000.00     65500.69
 1340.34        3344.50           6828        8896.00     38818.47
 1340.37        3344.75           6832        4887.00     21314.57
 1340.43        3345.00           6835        2915.00     12710.47
 1340.47        3345.25           6839        1255.00      5470.72
 1340.50        3345.50           6843         555.00      2418.64
 1340.54        3345.75           6847         285.00      1241.54
 1340.60        3346.00           6850         230.00      1001.77
 1340.63        3346.25           6854         210.00       914.58
 1340.67        3346.50           6858         201.00       875.35
 1340.70        3346.75           6862         199.00       866.63
 1340.76        3347.00           6866         194.00       844.83
 1340.80        3347.25           6869         190.00       827.39
 1340.83        3347.50           6873         191.00       831.75
 1340.87        3347.75           6877         200.00       870.99
 1340.92        3348.00           6881         201.00       875.35
 1340.96        3348.25           6884         198.00       862.27
 1341.00        3348.50           6888         210.00       914.58
 1341.03        3348.75           6892         197.00       857.91
 1341.09        3349.00           6896         199.00       866.63
 1341.12        3349.25           6899         197.00       857.91
 1341.16        3349.50           6903         193.00       840.47
 1341.20        3349.75           6907         192.00       836.11
 1341.25        3350.00           6911         192.00       836.11
 1341.29        3350.25           6915         201.00       875.35
 1341.32        3350.50           6918         193.00       840.47
 1341.36        3350.75           6922         196.00       853.55
 1341.42        3351.00           6926         188.00       818.68
HL scan finished at 22:22:58
end
