************************************************************
  HL Scan of (1) Internal mercury lamp
************************************************************
Integration time is 0.2294 seconds per sample
dh200619El Arenosillo 37.1 6.73 3.018777pr1000
************************************************************
Dead Time -------------------------  2.65E-08 
Number of Cycles Used -------------  4 
Starting Wavelength (Angstroms) ---  3331 
Final Wavelength (Angstoms) -------  3351 
Wavelength Increment (Angstroms) --  .25 
Filter Wheel #1 Position ---------- (1) Ground quartz diffuser (ND=2.32)
Filter Wheel #2 Position ---------- 



************************************************************
HL scan start time = 22:16:50
Dark Count =  .2 


Time (GMT)  Wavelength (Ang)  Step Number  Raw Counts  Counts/Second

 1337.63        3331.00           6625         185.00       805.60
 1338.05        3331.25           6629         201.00       875.35
 1338.08        3331.50           6632         181.00       788.16
 1338.12        3331.75           6636         199.00       866.63
 1338.16        3332.00           6640         199.00       866.63
 1338.19        3332.25           6644         195.00       849.19
 1338.23        3332.50           6647         194.00       844.83
 1338.26        3332.75           6651         204.00       888.43
 1338.30        3333.00           6655         217.00       945.10
 1338.34        3333.25           6659         240.00      1045.36
 1338.37        3333.50           6662         244.00      1062.80
 1338.41        3333.75           6666         272.00      1184.87
 1338.44        3334.00           6670         731.00      3185.97
 1338.48        3334.25           6674        2674.00     11659.23
 1338.51        3334.50           6677        5481.00     23907.03
 1338.55        3334.75           6681       10663.00     46538.62
 1338.59        3335.00           6685       17665.00     77162.00
 1338.62        3335.25           6689       26780.00    117101.30
 1338.66        3335.50           6692       33758.00    147734.20
 1338.69        3335.75           6696       43733.00    191610.40
 1338.73        3336.00           6700       53884.00    236366.10
 1338.77        3336.25           6704       63666.00    279595.80
 1338.80        3336.50           6707       71056.00    312320.50
 1338.84        3336.75           6711       80395.00    353757.70
 1338.88        3337.00           6715       89590.00    394645.40
 1338.91        3337.25           6719       99234.00    437625.70
 1338.95        3337.50           6723      108832.00    480498.90
 1338.99        3337.75           6726      116001.00    512586.10
 1339.02        3338.00           6730      125034.00    553094.60
 1339.06        3338.25           6734      134326.00    594856.40
 1339.10        3338.50           6738      143440.00    635908.80
 1339.13        3338.75           6741      148980.00    660906.80
 1339.17        3339.00           6745      154171.00    684360.50
 1339.20        3339.25           6749      158422.00    703589.00
 1339.24        3339.50           6753      159688.00    709319.30
 1339.28        3339.75           6756      159342.00    707753.00
 1339.31        3340.00           6760      156258.00    693798.10
 1339.35        3340.25           6764      151750.00    673418.40
 1339.39        3340.50           6768      144620.00    641230.40
 1339.42        3340.75           6771      139291.00    617209.20
 1339.46        3341.00           6775      130348.00    576966.40
 1339.49        3341.25           6779      121373.00    536666.30
 1339.53        3341.50           6783      111807.00    493807.80
 1339.57        3341.75           6786      104283.00    460166.80
 1339.60        3342.00           6790       93799.00    413391.50
 1339.64        3342.25           6794       83424.00    367217.00
 1339.68        3342.50           6798       73237.00    321989.50
 1339.71        3342.75           6801       65495.00    287689.80
 1339.75        3343.00           6805       56119.00    246234.50
 1339.78        3343.25           6809       47152.00    206672.90
 1339.82        3343.50           6813       37756.00    165307.60
 1339.86        3343.75           6817       28396.00    124191.00
 1339.89        3344.00           6820       22200.00     97022.47
 1339.93        3344.25           6824       14680.00     64100.95
 1339.97        3344.50           6828        8964.00     39115.50
 1340.00        3344.75           6832        4761.00     20764.69
 1340.04        3345.00           6835        2842.00     12392.04
 1340.08        3345.25           6839        1222.00      5326.82
 1340.11        3345.50           6843         504.00      2196.29
 1340.15        3345.75           6847         284.00      1237.18
 1340.18        3346.00           6850         242.00      1054.08
 1340.22        3346.25           6854         231.00      1006.13
 1340.26        3346.50           6858         218.00       949.46
 1340.29        3346.75           6862         203.00       884.07
 1340.33        3347.00           6866         214.00       932.02
 1340.36        3347.25           6869         208.00       905.86
 1340.40        3347.50           6873         204.00       888.43
 1340.43        3347.75           6877         210.00       914.58
 1340.47        3348.00           6881         209.00       910.22
 1340.51        3348.25           6884         204.00       888.43
 1340.54        3348.50           6888         216.00       940.74
 1340.58        3348.75           6892         209.00       910.22
 1340.61        3349.00           6896         184.00       801.24
 1340.65        3349.25           6899         203.00       884.07
 1340.68        3349.50           6903         197.00       857.91
 1340.72        3349.75           6907         199.00       866.63
 1340.76        3350.00           6911         194.00       844.83
 1340.79        3350.25           6915         216.00       940.74
 1340.83        3350.50           6918         218.00       949.46
 1340.86        3350.75           6922         190.00       827.39
 1340.90        3351.00           6926         203.00       884.07
HL scan finished at 22:22:27
end
