************************************************************
  HS Scan of (1) Internal mercury lamp
************************************************************
Integration time is 0.2294 seconds per sample
dh240619El Arenosillo 37.1 6.73 2.965129pr1000
************************************************************
Dead Time -------------------------  2.65E-08 
Number of Cycles Used -------------  4 
Starting Wavelength (Angstroms) ---  2950 
Final Wavelength (Angstoms) -------  2984 
Wavelength Increment (Angstroms) --  .25 
Filter Wheel #1 Position ---------- (1) Ground quartz diffuser (ND=2.32)
Filter Wheel #2 Position ---------- (1) Neutral Density 0.494



************************************************************
HS scan start time = 02:41:05
Dark Count =  .2 


Time (GMT)  Wavelength (Ang)  Step Number  Raw Counts  Counts/Second

  161.55        2950.00           1200         190.00       827.39
  161.68        2950.25           1203         179.00       779.44
  161.71        2950.50           1207         187.00       814.32
  161.75        2950.75           1210         175.00       762.00
  161.79        2951.00           1214         185.00       805.60
  161.82        2951.25           1217         182.00       792.52
  161.88        2951.50           1220         198.00       862.27
  161.91        2951.75           1224         180.00       783.80
  161.95        2952.00           1227         184.00       801.24
  161.99        2952.25           1231         191.00       831.75
  162.02        2952.50           1234         185.00       805.60
  162.06        2952.75           1237         175.00       762.00
  162.11        2953.00           1241         197.00       857.91
  162.15        2953.25           1244         176.00       766.36
  162.19        2953.50           1248         185.00       805.60
  162.22        2953.75           1251         189.00       823.03
  162.26        2954.00           1254         192.00       836.11
  162.31        2954.25           1258         180.00       783.80
  162.35        2954.50           1261         188.00       818.68
  162.39        2954.75           1264         184.00       801.24
  162.42        2955.00           1268         185.00       805.60
  162.46        2955.25           1271         168.00       731.49
  162.49        2955.50           1275         196.00       853.55
  162.55        2955.75           1278         182.00       792.52
  162.59        2956.00           1281         184.00       801.24
  162.62        2956.25           1285         192.00       836.11
  162.66        2956.50           1288         180.00       783.80
  162.69        2956.75           1292         181.00       788.16
  162.75        2957.00           1295         181.00       788.16
  162.79        2957.25           1298         188.00       818.68
  162.82        2957.50           1302         175.00       762.00
  162.86        2957.75           1305         172.00       748.93
  162.89        2958.00           1309         180.00       783.80
  162.93        2958.25           1312         179.00       779.44
  162.99        2958.50           1315         184.00       801.24
  163.02        2958.75           1319         182.00       792.52
  163.06        2959.00           1322         172.00       748.93
  163.10        2959.25           1326         176.00       766.36
  163.13        2959.50           1329         183.00       796.88
  163.19        2959.75           1332         188.00       818.68
  163.23        2960.00           1336         185.00       805.60
  163.26        2960.25           1339         179.00       779.44
  163.30        2960.50           1343         186.00       809.96
  163.33        2960.75           1346         199.00       866.63
  163.38        2961.00           1349         197.00       857.91
  163.43        2961.25           1353         247.00      1075.88
  163.46        2961.50           1356         291.00      1267.70
  163.50        2961.75           1360         436.00      1899.83
  163.54        2962.00           1363        1292.00      5632.05
  163.57        2962.25           1366        3737.00     16296.49
  163.63        2962.50           1370        9696.00     42313.33
  163.66        2962.75           1373       15974.00     69761.80
  163.70        2963.00           1377       26167.00    114412.60
  163.74        2963.25           1380       34004.00    148815.00
  163.77        2963.50           1383       42752.00    187290.80
  163.81        2963.75           1387       54914.00    240913.30
  163.87        2964.00           1390       64225.00    282069.20
  163.90        2964.25           1394       76808.00    337831.40
  163.94        2964.50           1397       85606.00    376918.70
  163.98        2964.75           1400       95946.00    422961.00
  164.01        2965.00           1404      108689.00    479859.40
  164.07        2965.25           1407      117981.00    521458.00
  164.11        2965.50           1411      131196.00    580778.60
  164.15        2965.75           1414      140507.00    622687.80
  164.18        2966.00           1417      149656.00    663959.40
  164.22        2966.25           1421      161672.00    718303.00
  164.25        2966.50           1424      170242.00    757158.50
  164.31        2966.75           1428      178394.00    794194.00
  164.35        2967.00           1431      183181.00    815976.10
  164.38        2967.25           1434      186229.00    829858.60
  164.42        2967.50           1438      188869.00    841891.20
  164.46        2967.75           1441      188944.00    842233.20
  164.51        2968.00           1445      189286.00    843792.40
  164.55        2968.25           1448      188063.00    838216.80
  164.59        2968.50           1451      185144.00    824915.70
  164.62        2968.75           1455      178567.00    794980.60
  164.66        2969.00           1458      171794.00    764203.80
  164.69        2969.25           1462      161269.00    716477.80
  164.75        2969.50           1465      153064.00    679356.30
  164.79        2969.75           1468      144095.00    638862.60
  164.83        2970.00           1472      132169.00    585153.60
  164.86        2970.25           1475      123287.00    545253.50
  164.90        2970.50           1479      111490.00    492389.20
  164.96        2970.75           1482      102809.00    453583.30
  164.99        2971.00           1485       92825.00    409051.80
  165.03        2971.25           1489       80320.00    353424.60
  165.07        2971.50           1492       70936.00    311788.70
  165.10        2971.75           1496       58553.00    256987.50
  165.14        2972.00           1499       49392.00    216547.80
  165.20        2972.25           1502       39530.00    173110.60
  165.23        2972.50           1506       27083.00    118430.40
  165.27        2972.75           1509       19037.00     83168.29
  165.31        2973.00           1513       10750.00     46918.81
  165.34        2973.25           1516        6474.00     28241.70
  165.40        2973.50           1519        3679.00     16043.44
  165.43        2973.75           1523        1428.00      6225.09
  165.47        2974.00           1526         682.00      2972.34
  165.51        2974.25           1530         307.00      1337.45
  165.54        2974.50           1533         249.00      1084.60
  165.58        2974.75           1536         249.00      1084.60
  165.64        2975.00           1540         215.00       936.38
  165.67        2975.25           1543         194.00       844.83
  165.71        2975.50           1547         181.00       788.16
  165.75        2975.75           1550         173.00       753.28
  165.78        2976.00           1553         180.00       783.80
  165.84        2976.25           1557         168.00       731.49
  165.87        2976.50           1560         184.00       801.24
  165.91        2976.75           1564         164.00       714.05
  165.95        2977.00           1567         175.00       762.00
  165.98        2977.25           1571         181.00       788.16
  166.02        2977.50           1574         185.00       805.60
  166.08        2977.75           1577         181.00       788.16
  166.11        2978.00           1581         157.00       683.53
  166.15        2978.25           1584         166.00       722.77
  166.18        2978.50           1588         182.00       792.52
  166.22        2978.75           1591         170.00       740.21
  166.28        2979.00           1594         177.00       770.72
  166.31        2979.25           1598         162.00       705.33
  166.35        2979.50           1601         178.00       775.08
  166.38        2979.75           1605         184.00       801.24
  166.42        2980.00           1608         180.00       783.80
  166.46        2980.25           1611         168.00       731.49
  166.51        2980.50           1615         166.00       722.77
  166.55        2980.75           1618         177.00       770.72
  166.58        2981.00           1622         174.00       757.64
  166.62        2981.25           1625         188.00       818.68
  166.66        2981.50           1629         176.00       766.36
  166.71        2981.75           1632         175.00       762.00
  166.75        2982.00           1635         160.00       696.61
  166.78        2982.25           1639         169.00       735.85
  166.82        2982.50           1642         171.00       744.57
  166.86        2982.75           1646         185.00       805.60
  166.89        2983.00           1649         166.00       722.77
  166.95        2983.25           1652         175.00       762.00
  166.99        2983.50           1656         166.00       722.77
  167.02        2983.75           1659         163.00       709.69
  167.06        2984.00           1663         173.00       753.28
HS scan finished at 02:47:24
end
************************************************************
  HS Scan of (1) Internal mercury lamp
************************************************************
Integration time is 0.2294 seconds per sample
dh240619El Arenosillo 37.1 6.73 3.018777pr1000
************************************************************
Dead Time -------------------------  2.65E-08 
Number of Cycles Used -------------  4 
Starting Wavelength (Angstroms) ---  2950 
Final Wavelength (Angstoms) -------  2984 
Wavelength Increment (Angstroms) --  .25 
Filter Wheel #1 Position ---------- (1) Ground quartz diffuser (ND=2.32)
Filter Wheel #2 Position ---------- (1) Neutral Density 0.494



************************************************************
HS scan start time = 21:54:52
Dark Count =  .1 


Time (GMT)  Wavelength (Ang)  Step Number  Raw Counts  Counts/Second

 1315.34        2950.00           1200         183.00       797.31
 1315.47        2950.25           1203         181.00       788.60
 1315.50        2950.50           1207         192.00       836.55
 1315.54        2950.75           1210         175.00       762.44
 1315.60        2951.00           1214         176.00       766.80
 1315.64        2951.25           1217         175.00       762.44
 1315.67        2951.50           1220         186.00       810.39
 1315.73        2951.75           1224         177.00       771.16
 1315.77        2952.00           1227         183.00       797.31
 1315.80        2952.25           1231         187.00       814.75
 1315.86        2952.50           1234         181.00       788.60
 1315.90        2952.75           1237         182.00       792.95
 1315.93        2953.00           1241         180.00       784.24
 1315.99        2953.25           1244         165.00       718.85
 1316.03        2953.50           1248         173.00       753.72
 1316.07        2953.75           1251         180.00       784.24
 1316.13        2954.00           1254         186.00       810.39
 1316.16        2954.25           1258         180.00       784.24
 1316.20        2954.50           1261         181.00       788.60
 1316.26        2954.75           1264         183.00       797.31
 1316.29        2955.00           1268         173.00       753.72
 1316.33        2955.25           1271         170.00       740.64
 1316.39        2955.50           1275         174.00       758.08
 1316.42        2955.75           1278         175.00       762.44
 1316.47        2956.00           1281         188.00       819.11
 1316.52        2956.25           1285         187.00       814.75
 1316.55        2956.50           1288         183.00       797.31
 1316.59        2956.75           1292         178.00       775.52
 1316.65        2957.00           1295         173.00       753.72
 1316.69        2957.25           1298         173.00       753.72
 1316.73        2957.50           1302         188.00       819.11
 1316.78        2957.75           1305         186.00       810.39
 1316.82        2958.00           1309         169.00       736.28
 1316.85        2958.25           1312         175.00       762.44
 1316.91        2958.50           1315         175.00       762.44
 1316.95        2958.75           1319         174.00       758.08
 1316.98        2959.00           1322         190.00       827.83
 1317.04        2959.25           1326         168.00       731.92
 1317.08        2959.50           1329         171.00       745.00
 1317.12        2959.75           1332         175.00       762.44
 1317.17        2960.00           1336         178.00       775.52
 1317.21        2960.25           1339         172.00       749.36
 1317.25        2960.50           1343         186.00       810.39
 1317.31        2960.75           1346         203.00       884.50
 1317.34        2961.00           1349         210.00       915.02
 1317.38        2961.25           1353         245.00      1067.60
 1317.44        2961.50           1356         275.00      1198.38
 1317.47        2961.75           1360         393.00      1712.81
 1317.51        2962.00           1363        1152.00      5022.03
 1317.57        2962.25           1366        3599.00     15694.84
 1317.61        2962.50           1370        9454.00     41256.51
 1317.64        2962.75           1373       15465.00     67535.32
 1317.70        2963.00           1377       25936.00    113400.00
 1317.74        2963.25           1380       33551.00    146825.20
 1317.77        2963.50           1383       42692.00    187027.10
 1317.84        2963.75           1387       54646.00    239730.50
 1317.87        2964.00           1390       64285.00    282335.10
 1317.92        2964.25           1394       77334.00    340166.40
 1317.97        2964.50           1397       86848.00    382443.60
 1318.01        2964.75           1400       96525.00    425543.00
 1318.04        2965.00           1404      109787.00    484770.60
 1318.10        2965.25           1407      119807.00    529644.00
 1318.14        2965.50           1411      132314.00    585806.30
 1318.18        2965.75           1414      141835.00    628673.30
 1318.24        2966.00           1417      151601.00    672745.60
 1318.27        2966.25           1421      163144.00    724971.60
 1318.31        2966.50           1424      171656.00    763577.60
 1318.37        2966.75           1428      180675.00    804570.50
 1318.40        2967.00           1431      184923.00    823909.60
 1318.44        2967.25           1434      187791.00    836977.50
 1318.50        2967.50           1438      190432.00    849019.20
 1318.54        2967.75           1441      191173.00    852399.20
 1318.57        2968.00           1445      191180.00    852431.10
 1318.63        2968.25           1448      189797.00    846123.20
 1318.67        2968.50           1451      186530.00    831230.60
 1318.70        2968.75           1455      180125.00    802068.10
 1318.76        2969.00           1458      173425.00    771611.00
 1318.80        2969.25           1462      163270.00    725542.50
 1318.84        2969.50           1465      154539.00    686024.80
 1318.90        2969.75           1468      145525.00    645313.50
 1318.93        2970.00           1472      132960.00    588711.80
 1318.97        2970.25           1475      123928.00    548130.60
 1319.03        2970.50           1479      112514.00    496972.50
 1319.07        2970.75           1482      103657.00    457371.00
 1319.10        2971.00           1485       94327.00    415744.90
 1319.17        2971.25           1489       81184.00    357263.10
 1319.20        2971.50           1492       72257.00    317644.70
 1319.24        2971.75           1496       59424.00    260837.30
 1319.30        2972.00           1499       49238.00    215869.10
 1319.33        2972.25           1502       39863.00    174576.00
 1319.37        2972.50           1506       27746.00    121339.40
 1319.43        2972.75           1509       19494.00     85169.78
 1319.47        2973.00           1513       11239.00     49056.33
 1319.50        2973.25           1516        6697.00     29215.72
 1319.56        2973.50           1519        3785.00     16506.35
 1319.60        2973.75           1523        1481.00      6456.64
 1319.63        2974.00           1526         695.00      3029.45
 1319.69        2974.25           1530         316.00      1377.12
 1319.73        2974.50           1533         262.00      1141.71
 1319.76        2974.75           1536         227.00       989.13
 1319.82        2975.00           1540         203.00       884.50
 1319.86        2975.25           1543         199.00       867.06
 1319.90        2975.50           1547         191.00       832.19
 1319.95        2975.75           1550         180.00       784.24
 1319.99        2976.00           1553         175.00       762.44
 1320.03        2976.25           1557         177.00       771.16
 1320.09        2976.50           1560         185.00       806.03
 1320.12        2976.75           1564         169.00       736.28
 1320.16        2977.00           1567         158.00       688.33
 1320.22        2977.25           1571         179.00       779.88
 1320.25        2977.50           1574         173.00       753.72
 1320.29        2977.75           1577         176.00       766.80
 1320.35        2978.00           1581         171.00       745.00
 1320.38        2978.25           1584         167.00       727.56
 1320.42        2978.50           1588         174.00       758.08
 1320.48        2978.75           1591         184.00       801.67
 1320.52        2979.00           1594         179.00       779.88
 1320.55        2979.25           1598         165.00       718.85
 1320.61        2979.50           1601         176.00       766.80
 1320.65        2979.75           1605         174.00       758.08
 1320.68        2980.00           1608         176.00       766.80
 1320.74        2980.25           1611         169.00       736.28
 1320.78        2980.50           1615         174.00       758.08
 1320.81        2980.75           1618         175.00       762.44
 1320.87        2981.00           1622         170.00       740.64
 1320.91        2981.25           1625         158.00       688.33
 1320.95        2981.50           1629         169.00       736.28
 1321.00        2981.75           1632         156.00       679.61
 1321.04        2982.00           1635         171.00       745.00
 1321.08        2982.25           1639         174.00       758.08
 1321.14        2982.50           1642         155.00       675.25
 1321.17        2982.75           1646         148.00       644.74
 1321.21        2983.00           1649         166.00       723.20
 1321.27        2983.25           1652         164.00       714.49
 1321.30        2983.50           1656         164.00       714.49
 1321.34        2983.75           1659         154.00       670.89
 1321.40        2984.00           1663         165.00       718.85
HS scan finished at 22:01:45
end
