************************************************************
  HS Scan of (1) Internal mercury lamp
************************************************************
Integration time is 0.2294 seconds per sample
dh220619El Arenosillo 37.1 6.73 2.965129pr1000
************************************************************
Dead Time -------------------------  2.65E-08 
Number of Cycles Used -------------  4 
Starting Wavelength (Angstroms) ---  2950 
Final Wavelength (Angstoms) -------  2984 
Wavelength Increment (Angstroms) --  .25 
Filter Wheel #1 Position ---------- (1) Ground quartz diffuser (ND=2.32)
Filter Wheel #2 Position ---------- (1) Neutral Density 0.494



************************************************************
HS scan start time = 21:53:08
Dark Count =  .2 


Time (GMT)  Wavelength (Ang)  Step Number  Raw Counts  Counts/Second

 1313.62        2950.00           1200         191.00       831.75
 1313.72        2950.25           1203         179.00       779.44
 1313.76        2950.50           1207         200.00       870.99
 1313.80        2950.75           1210         202.00       879.71
 1313.83        2951.00           1214         185.00       805.60
 1313.89        2951.25           1217         186.00       809.96
 1313.92        2951.50           1220         199.00       866.63
 1313.96        2951.75           1224         201.00       875.35
 1314.00        2952.00           1227         184.00       801.24
 1314.04        2952.25           1231         194.00       844.83
 1314.09        2952.50           1234         196.00       853.55
 1314.12        2952.75           1237         192.00       836.11
 1314.16        2953.00           1241         190.00       827.39
 1314.20        2953.25           1244         184.00       801.24
 1314.25        2953.50           1248         189.00       823.03
 1314.29        2953.75           1251         192.00       836.11
 1314.32        2954.00           1254         197.00       857.91
 1314.36        2954.25           1258         193.00       840.47
 1314.40        2954.50           1261         193.00       840.47
 1314.45        2954.75           1264         200.00       870.99
 1314.49        2955.00           1268         187.00       814.32
 1314.52        2955.25           1271         195.00       849.19
 1314.56        2955.50           1275         193.00       840.47
 1314.62        2955.75           1278         194.00       844.83
 1314.65        2956.00           1281         182.00       792.52
 1314.69        2956.25           1285         191.00       831.75
 1314.72        2956.50           1288         189.00       823.03
 1314.76        2956.75           1292         190.00       827.39
 1314.81        2957.00           1295         187.00       814.32
 1314.85        2957.25           1298         183.00       796.88
 1314.89        2957.50           1302         194.00       844.83
 1314.92        2957.75           1305         194.00       844.83
 1314.97        2958.00           1309         194.00       844.83
 1315.01        2958.25           1312         187.00       814.32
 1315.05        2958.50           1315         185.00       805.60
 1315.09        2958.75           1319         187.00       814.32
 1315.12        2959.00           1322         173.00       753.28
 1315.18        2959.25           1326         191.00       831.75
 1315.21        2959.50           1329         178.00       775.08
 1315.25        2959.75           1332         190.00       827.39
 1315.29        2960.00           1336         183.00       796.88
 1315.32        2960.25           1339         182.00       792.52
 1315.38        2960.50           1343         203.00       884.07
 1315.41        2960.75           1346         215.00       936.38
 1315.45        2961.00           1349         229.00       997.41
 1315.49        2961.25           1353         259.00      1128.19
 1315.54        2961.50           1356         283.00      1232.82
 1315.58        2961.75           1360         423.00      1843.16
 1315.61        2962.00           1363        1275.00      5557.93
 1315.65        2962.25           1366        4075.00     17771.23
 1315.69        2962.50           1370       10134.00     44227.04
 1315.74        2962.75           1373       16250.00     70969.44
 1315.78        2963.00           1377       26821.00    117281.10
 1315.81        2963.25           1380       34573.00    151315.20
 1315.85        2963.50           1383       43201.00    189267.80
 1315.89        2963.75           1387       55457.00    243310.90
 1315.94        2964.00           1390       64659.00    283989.80
 1315.98        2964.25           1394       77391.00    340419.00
 1316.01        2964.50           1397       86424.00    380557.00
 1316.05        2964.75           1400       95824.00    422417.10
 1316.11        2965.00           1404      108503.00    479027.70
 1316.14        2965.25           1407      118601.00    524236.80
 1316.18        2965.50           1411      130926.00    579564.80
 1316.22        2965.75           1414      139951.00    620182.60
 1316.25        2966.00           1417      149045.00    661200.30
 1316.31        2966.25           1421      160174.00    711519.50
 1316.35        2966.50           1424      169372.00    753210.30
 1316.38        2966.75           1428      177523.00    790233.40
 1316.42        2967.00           1431      181957.00    810404.20
 1316.47        2967.25           1434      185429.00    826214.00
 1316.51        2967.50           1438      188235.00    839000.80
 1316.55        2967.75           1441      188860.00    841850.20
 1316.58        2968.00           1445      188823.00    841681.40
 1316.62        2968.25           1448      187896.00    837455.60
 1316.67        2968.50           1451      184763.00    823180.30
 1316.71        2968.75           1455      178691.00    795544.60
 1316.75        2969.00           1458      172317.00    766578.50
 1316.78        2969.25           1462      162135.00    720400.10
 1316.83        2969.50           1465      153417.00    680951.90
 1316.87        2969.75           1468      144244.00    639534.60
 1316.91        2970.00           1472      132781.00    587906.10
 1316.95        2970.25           1475      123846.00    547762.10
 1316.99        2970.50           1479      112136.00    495280.20
 1317.04        2970.75           1482      102869.00    453851.30
 1317.08        2971.00           1485       93576.00    412397.80
 1317.11        2971.25           1489       81453.00    358457.80
 1317.15        2971.50           1492       71914.00    316123.70
 1317.20        2971.75           1496       59132.00    259546.30
 1317.24        2972.00           1499       49782.00    218267.60
 1317.28        2972.25           1502       40027.00    175297.20
 1317.32        2972.50           1506       27647.00    120904.60
 1317.35        2972.75           1509       19461.00     85024.84
 1317.41        2973.00           1513       10926.00     47687.96
 1317.44        2973.25           1516        6562.00     28625.89
 1317.48        2973.50           1519        3637.00     15860.20
 1317.52        2973.75           1523        1441.00      6281.78
 1317.55        2974.00           1526         698.00      3042.09
 1317.61        2974.25           1530         333.00      1450.80
 1317.64        2974.50           1533         274.00      1193.59
 1317.68        2974.75           1536         251.00      1093.32
 1317.71        2975.00           1540         222.00       966.89
 1317.76        2975.25           1543         209.00       910.22
 1317.81        2975.50           1547         190.00       827.39
 1317.84        2975.75           1550         178.00       775.08
 1317.88        2976.00           1553         193.00       840.47
 1317.91        2976.25           1557         181.00       788.16
 1317.97        2976.50           1560         172.00       748.93
 1318.01        2976.75           1564         183.00       796.88
 1318.04        2977.00           1567         191.00       831.75
 1318.08        2977.25           1571         184.00       801.24
 1318.11        2977.50           1574         188.00       818.68
 1318.17        2977.75           1577         178.00       775.08
 1318.21        2978.00           1581         192.00       836.11
 1318.24        2978.25           1584         178.00       775.08
 1318.28        2978.50           1588         174.00       757.64
 1318.33        2978.75           1591         178.00       775.08
 1318.37        2979.00           1594         184.00       801.24
 1318.41        2979.25           1598         187.00       814.32
 1318.44        2979.50           1601         171.00       744.57
 1318.48        2979.75           1605         184.00       801.24
 1318.53        2980.00           1608         180.00       783.80
 1318.57        2980.25           1611         182.00       792.52
 1318.61        2980.50           1615         163.00       709.69
 1318.64        2980.75           1618         180.00       783.80
 1318.69        2981.00           1622         170.00       740.21
 1318.73        2981.25           1625         175.00       762.00
 1318.77        2981.50           1629         183.00       796.88
 1318.81        2981.75           1632         185.00       805.60
 1318.84        2982.00           1635         175.00       762.00
 1318.90        2982.25           1639         176.00       766.36
 1318.93        2982.50           1642         172.00       748.93
 1318.97        2982.75           1646         160.00       696.61
 1319.00        2983.00           1649         173.00       753.28
 1319.04        2983.25           1652         170.00       740.21
 1319.10        2983.50           1656         161.00       700.97
 1319.13        2983.75           1659         166.00       722.77
 1319.17        2984.00           1663         168.00       731.49
HS scan finished at 21:59:31
end
