************************************************************
  HS Scan of (1) Internal mercury lamp
************************************************************
Integration time is 0.2294 seconds per sample
dh260619El Arenosillo 37.1 6.73 3.018777pr1000
************************************************************
Dead Time -------------------------  2.65E-08 
Number of Cycles Used -------------  4 
Starting Wavelength (Angstroms) ---  2950 
Final Wavelength (Angstoms) -------  2984 
Wavelength Increment (Angstroms) --  .25 
Filter Wheel #1 Position ---------- (1) Ground quartz diffuser (ND=2.32)
Filter Wheel #2 Position ---------- (1) Neutral Density 0.494



************************************************************
HS scan start time = 03:09:04
Dark Count =  .1 


Time (GMT)  Wavelength (Ang)  Step Number  Raw Counts  Counts/Second

  189.53        2950.00           1200         187.00       814.75
  189.66        2950.25           1203         186.00       810.39
  189.69        2950.50           1207         190.00       827.83
  189.73        2950.75           1210         182.00       792.95
  189.76        2951.00           1214         182.00       792.95
  189.80        2951.25           1217         178.00       775.52
  189.86        2951.50           1220         184.00       801.67
  189.89        2951.75           1224         181.00       788.60
  189.93        2952.00           1227         175.00       762.44
  189.97        2952.25           1231         185.00       806.03
  190.00        2952.50           1234         170.00       740.64
  190.06        2952.75           1237         182.00       792.95
  190.10        2953.00           1241         184.00       801.67
  190.13        2953.25           1244         178.00       775.52
  190.17        2953.50           1248         179.00       779.88
  190.20        2953.75           1251         172.00       749.36
  190.24        2954.00           1254         176.00       766.80
  190.30        2954.25           1258         187.00       814.75
  190.33        2954.50           1261         172.00       749.36
  190.37        2954.75           1264         177.00       771.16
  190.41        2955.00           1268         186.00       810.39
  190.44        2955.25           1271         175.00       762.44
  190.50        2955.50           1275         178.00       775.52
  190.54        2955.75           1278         169.00       736.28
  190.57        2956.00           1281         170.00       740.64
  190.61        2956.25           1285         180.00       784.24
  190.64        2956.50           1288         186.00       810.39
  190.70        2956.75           1292         168.00       731.92
  190.74        2957.00           1295         183.00       797.31
  190.77        2957.25           1298         189.00       823.47
  190.81        2957.50           1302         178.00       775.52
  190.85        2957.75           1305         185.00       806.03
  190.89        2958.00           1309         179.00       779.88
  190.94        2958.25           1312         174.00       758.08
  190.98        2958.50           1315         166.00       723.20
  191.01        2958.75           1319         165.00       718.85
  191.05        2959.00           1322         177.00       771.16
  191.08        2959.25           1326         183.00       797.31
  191.14        2959.50           1329         185.00       806.03
  191.18        2959.75           1332         179.00       779.88
  191.21        2960.00           1336         169.00       736.28
  191.25        2960.25           1339         192.00       836.55
  191.28        2960.50           1343         181.00       788.60
  191.34        2960.75           1346         208.00       906.30
  191.38        2961.00           1349         221.00       962.97
  191.42        2961.25           1353         253.00      1102.47
  191.45        2961.50           1356         262.00      1141.71
  191.49        2961.75           1360         398.00      1734.60
  191.55        2962.00           1363        1020.00      4446.47
  191.58        2962.25           1366        3151.00     13740.40
  191.62        2962.50           1370        8811.00     38447.61
  191.66        2962.75           1373       14460.00     63139.12
  191.69        2963.00           1377       24710.00    108024.10
  191.74        2963.25           1380       32590.00    142603.70
  191.79        2963.50           1383       41496.00    181762.20
  191.82        2963.75           1387       53312.00    233841.70
  191.86        2964.00           1390       61477.00    269913.70
  191.90        2964.25           1394       73635.00    323754.90
  191.93        2964.50           1397       83325.00    366777.40
  191.99        2964.75           1400       92372.00    407034.30
  192.03        2965.00           1404      105101.00    463821.70
  192.06        2965.25           1407      114857.00    507462.60
  192.10        2965.50           1411      126505.00    559700.10
  192.14        2965.75           1414      136074.00    602723.50
  192.19        2966.00           1417      145078.00    643297.00
  192.23        2966.25           1421      156747.00    696010.60
  192.27        2966.50           1424      164551.00    731347.60
  192.30        2966.75           1428      172799.00    768767.80
  192.34        2967.00           1431      176791.00    786906.00
  192.40        2967.25           1434      179594.00    799652.40
  192.44        2967.50           1438      181765.00    809530.80
  192.47        2967.75           1441      182810.00    814287.60
  192.51        2968.00           1445      182698.00    813777.70
  192.55        2968.25           1448      181438.00    808042.50
  192.59        2968.50           1451      178669.00    795445.10
  192.64        2968.75           1455      172577.00    767759.70
  192.67        2969.00           1458      165932.00    737607.80
  192.71        2969.25           1462      155915.00    692247.10
  192.75        2969.50           1465      147001.00    651973.70
  192.78        2969.75           1468      138749.00    614768.20
  192.84        2970.00           1472      127606.00    564645.30
  192.88        2970.25           1475      118483.00    523708.40
  192.92        2970.50           1479      107153.00    472992.30
  192.95        2970.75           1482       99135.00    437184.40
  192.99        2971.00           1485       89989.00    396422.10
  193.05        2971.25           1489       78237.00    344175.00
  193.09        2971.50           1492       69527.00    305545.50
  193.12        2971.75           1496       56897.00    249671.30
  193.16        2972.00           1499       47317.00    207400.50
  193.19        2972.25           1502       38212.00    167313.40
  193.25        2972.50           1506       26174.00    114443.80
  193.29        2972.75           1509       18076.00     78961.48
  193.32        2973.00           1513       10480.00     45739.37
  193.36        2973.25           1516        6543.00     28543.38
  193.40        2973.50           1519        3663.00     15974.07
  193.44        2973.75           1523        1448.00      6312.74
  193.49        2974.00           1526         671.00      2924.81
  193.52        2974.25           1530         304.00      1324.81
  193.56        2974.50           1533         246.00      1071.96
  193.60        2974.75           1536         219.00       954.25
  193.63        2975.00           1540         191.00       832.19
  193.69        2975.25           1543         180.00       784.24
  193.73        2975.50           1547         168.00       731.92
  193.76        2975.75           1550         181.00       788.60
  193.80        2976.00           1553         169.00       736.28
  193.84        2976.25           1557         159.00       692.69
  193.89        2976.50           1560         169.00       736.28
  193.93        2976.75           1564         174.00       758.08
  193.96        2977.00           1567         177.00       771.16
  194.00        2977.25           1571         163.00       710.13
  194.04        2977.50           1574         172.00       749.36
  194.10        2977.75           1577         170.00       740.64
  194.13        2978.00           1581         166.00       723.20
  194.17        2978.25           1584         161.00       701.41
  194.20        2978.50           1588         163.00       710.13
  194.24        2978.75           1591         171.00       745.00
  194.29        2979.00           1594         168.00       731.92
  194.33        2979.25           1598         153.00       666.53
  194.37        2979.50           1601         170.00       740.64
  194.40        2979.75           1605         164.00       714.49
  194.44        2980.00           1608         174.00       758.08
  194.48        2980.25           1611         162.00       705.77
  194.53        2980.50           1615         156.00       679.61
  194.57        2980.75           1618         155.00       675.25
  194.61        2981.00           1622         161.00       701.41
  194.64        2981.25           1625         162.00       705.77
  194.68        2981.50           1629         165.00       718.85
  194.74        2981.75           1632         181.00       788.60
  194.77        2982.00           1635         164.00       714.49
  194.81        2982.25           1639         170.00       740.64
  194.84        2982.50           1642         158.00       688.33
  194.88        2982.75           1646         156.00       679.61
  194.94        2983.00           1649         162.00       705.77
  194.97        2983.25           1652         163.00       710.13
  195.01        2983.50           1656         155.00       675.25
  195.04        2983.75           1659         159.00       692.69
  195.08        2984.00           1663         157.00       683.97
HS scan finished at 03:15:27
end
************************************************************
  HS Scan of (1) Internal mercury lamp
************************************************************
Integration time is 0.2294 seconds per sample
dh260619El Arenosillo 37.1 6.73 3.072425pr1000
************************************************************
Dead Time -------------------------  2.65E-08 
Number of Cycles Used -------------  4 
Starting Wavelength (Angstroms) ---  2950 
Final Wavelength (Angstoms) -------  2984 
Wavelength Increment (Angstroms) --  .25 
Filter Wheel #1 Position ---------- (1) Ground quartz diffuser (ND=2.32)
Filter Wheel #2 Position ---------- (1) Neutral Density 0.494



************************************************************
HS scan start time = 21:10:38
Dark Count =  .3 


Time (GMT)  Wavelength (Ang)  Step Number  Raw Counts  Counts/Second

 1271.10        2950.00           1200         181.00       787.72
 1271.23        2950.25           1203         168.00       731.05
 1271.27        2950.50           1207         182.00       792.08
 1271.30        2950.75           1210         177.00       770.29
 1271.36        2951.00           1214         182.00       792.08
 1271.40        2951.25           1217         184.00       800.80
 1271.43        2951.50           1220         184.00       800.80
 1271.49        2951.75           1224         173.00       752.85
 1271.53        2952.00           1227         188.00       818.24
 1271.56        2952.25           1231         168.00       731.05
 1271.62        2952.50           1234         179.00       779.00
 1271.66        2952.75           1237         173.00       752.85
 1271.70        2953.00           1241         175.00       761.57
 1271.76        2953.25           1244         177.00       770.29
 1271.79        2953.50           1248         185.00       805.16
 1271.83        2953.75           1251         182.00       792.08
 1271.89        2954.00           1254         170.00       739.77
 1271.93        2954.25           1258         173.00       752.85
 1271.96        2954.50           1261         185.00       805.16
 1272.02        2954.75           1264         175.00       761.57
 1272.06        2955.00           1268         178.00       774.65
 1272.10        2955.25           1271         172.00       748.49
 1272.16        2955.50           1275         179.00       779.00
 1272.19        2955.75           1278         163.00       709.25
 1272.23        2956.00           1281         175.00       761.57
 1272.29        2956.25           1285         186.00       809.52
 1272.32        2956.50           1288         170.00       739.77
 1272.36        2956.75           1292         173.00       752.85
 1272.42        2957.00           1295         176.00       765.93
 1272.46        2957.25           1298         174.00       757.21
 1272.49        2957.50           1302         193.00       840.04
 1272.55        2957.75           1305         175.00       761.57
 1272.59        2958.00           1309         161.00       700.54
 1272.62        2958.25           1312         187.00       813.88
 1272.68        2958.50           1315         166.00       722.33
 1272.72        2958.75           1319         178.00       774.65
 1272.76        2959.00           1322         163.00       709.25
 1272.82        2959.25           1326         165.00       717.97
 1272.85        2959.50           1329         168.00       731.05
 1272.89        2959.75           1332         182.00       792.08
 1272.95        2960.00           1336         162.00       704.90
 1272.98        2960.25           1339         173.00       752.85
 1273.02        2960.50           1343         183.00       796.44
 1273.08        2960.75           1346         204.00       887.99
 1273.11        2961.00           1349         201.00       874.91
 1273.15        2961.25           1353         246.00      1071.09
 1273.21        2961.50           1356         263.00      1145.20
 1273.25        2961.75           1360         348.00      1515.75
 1273.28        2962.00           1363         919.00      4005.22
 1273.34        2962.25           1366        2992.00     13045.92
 1273.38        2962.50           1370        8373.00     36533.61
 1273.41        2962.75           1373       13934.00     60837.76
 1273.47        2963.00           1377       23487.00    102662.10
 1273.51        2963.25           1380       31226.00    136612.70
 1273.54        2963.50           1383       40108.00    175653.10
 1273.60        2963.75           1387       51805.00    227190.60
 1273.64        2964.00           1390       60182.00    264187.00
 1273.68        2964.25           1394       71935.00    316216.40
 1273.74        2964.50           1397       81101.00    356893.50
 1273.78        2964.75           1400       89952.00    396256.50
 1273.81        2965.00           1404      102420.00    451845.90
 1273.87        2965.25           1407      111930.00    494357.90
 1273.91        2965.50           1411      123777.00    547452.00
 1273.95        2965.75           1414      132787.00    587932.70
 1274.01        2966.00           1417      141980.00    629326.00
 1274.04        2966.25           1421      152998.00    679057.70
 1274.08        2966.50           1424      160741.00    714086.50
 1274.14        2966.75           1428      168537.00    749421.30
 1274.18        2967.00           1431      173246.00    770797.00
 1274.21        2967.25           1434      176364.00    784964.10
 1274.27        2967.50           1438      178594.00    795103.10
 1274.31        2967.75           1441      179257.00    798118.50
 1274.34        2968.00           1445      178999.00    796945.00
 1274.40        2968.25           1448      177976.00    792292.70
 1274.44        2968.50           1451      175624.00    781600.80
 1274.48        2968.75           1455      169462.00    753618.30
 1274.54        2969.00           1458      163682.00    727408.40
 1274.57        2969.25           1462      154128.00    684165.60
 1274.61        2969.50           1465      145111.00    643444.90
 1274.67        2969.75           1468      136898.00    606432.00
 1274.71        2970.00           1472      125826.00    556650.10
 1274.74        2970.25           1475      117445.00    519055.40
 1274.80        2970.50           1479      106190.00    468687.20
 1274.84        2970.75           1482       97634.00    430487.80
 1274.88        2971.00           1485       89070.00    392330.30
 1274.94        2971.25           1489       77278.00    339917.00
 1274.97        2971.50           1492       68841.00    302505.60
 1275.01        2971.75           1496       56637.00    248522.00
 1275.07        2972.00           1499       47212.00    206936.90
 1275.11        2972.25           1502       38528.00    168702.40
 1275.14        2972.50           1506       26822.00    117285.10
 1275.20        2972.75           1509       18841.00     82309.68
 1275.24        2973.00           1513       11244.00     49077.30
 1275.27        2973.25           1516        6933.00     30245.25
 1275.33        2973.50           1519        3902.00     17015.95
 1275.37        2973.75           1523        1636.00      7131.69
 1275.41        2974.00           1526         777.00      3386.09
 1275.47        2974.25           1530         334.00      1454.72
 1275.50        2974.50           1533         251.00      1092.88
 1275.54        2974.75           1536         222.00       966.46
 1275.60        2975.00           1540         210.00       914.15
 1275.64        2975.25           1543         190.00       826.96
 1275.67        2975.50           1547         165.00       717.97
 1275.73        2975.75           1550         167.00       726.69
 1275.77        2976.00           1553         173.00       752.85
 1275.80        2976.25           1557         165.00       717.97
 1275.86        2976.50           1560         170.00       739.77
 1275.90        2976.75           1564         160.00       696.18
 1275.94        2977.00           1567         170.00       739.77
 1276.00        2977.25           1571         175.00       761.57
 1276.03        2977.50           1574         168.00       731.05
 1276.07        2977.75           1577         169.00       735.41
 1276.13        2978.00           1581         164.00       713.61
 1276.16        2978.25           1584         164.00       713.61
 1276.20        2978.50           1588         162.00       704.90
 1276.26        2978.75           1591         157.00       683.10
 1276.30        2979.00           1594         165.00       717.97
 1276.33        2979.25           1598         166.00       722.33
 1276.39        2979.50           1601         163.00       709.25
 1276.43        2979.75           1605         171.00       744.13
 1276.46        2980.00           1608         166.00       722.33
 1276.52        2980.25           1611         167.00       726.69
 1276.56        2980.50           1615         170.00       739.77
 1276.59        2980.75           1618         166.00       722.33
 1276.65        2981.00           1622         166.00       722.33
 1276.69        2981.25           1625         166.00       722.33
 1276.73        2981.50           1629         163.00       709.25
 1276.79        2981.75           1632         166.00       722.33
 1276.82        2982.00           1635         162.00       704.90
 1276.86        2982.25           1639         149.00       648.22
 1276.92        2982.50           1642         165.00       717.97
 1276.95        2982.75           1646         161.00       700.54
 1276.99        2983.00           1649         172.00       748.49
 1277.05        2983.25           1652         158.00       687.46
 1277.08        2983.50           1656         163.00       709.25
 1277.12        2983.75           1659         160.00       696.18
 1277.18        2984.00           1663         161.00       700.54
HS scan finished at 21:17:32
end
