************************************************************
  HS Scan of (1) Internal mercury lamp
************************************************************
Integration time is 0.2294 seconds per sample
dh210619El Arenosillo 37.1 6.73 3.072425pr1000
************************************************************
Dead Time -------------------------  2.65E-08 
Number of Cycles Used -------------  4 
Starting Wavelength (Angstroms) ---  2950 
Final Wavelength (Angstoms) -------  2984 
Wavelength Increment (Angstroms) --  .25 
Filter Wheel #1 Position ---------- (1) Ground quartz diffuser (ND=2.32)
Filter Wheel #2 Position ---------- (1) Neutral Density 0.494



************************************************************
HS scan start time = 21:53:47
Dark Count =  .2 


Time (GMT)  Wavelength (Ang)  Step Number  Raw Counts  Counts/Second

 1314.28        2950.00           1200         196.00       853.55
 1314.38        2950.25           1203         200.00       870.99
 1314.42        2950.50           1207         192.00       836.11
 1314.47        2950.75           1210         197.00       857.91
 1314.51        2951.00           1214         184.00       801.24
 1314.55        2951.25           1217         187.00       814.32
 1314.59        2951.50           1220         193.00       840.47
 1314.64        2951.75           1224         186.00       809.96
 1314.68        2952.00           1227         190.00       827.39
 1314.72        2952.25           1231         196.00       853.55
 1314.75        2952.50           1234         185.00       805.60
 1314.81        2952.75           1237         196.00       853.55
 1314.84        2953.00           1241         189.00       823.03
 1314.88        2953.25           1244         177.00       770.72
 1314.92        2953.50           1248         181.00       788.16
 1314.97        2953.75           1251         178.00       775.08
 1315.01        2954.00           1254         173.00       753.28
 1315.05        2954.25           1258         183.00       796.88
 1315.11        2954.50           1261         193.00       840.47
 1315.14        2954.75           1264         196.00       853.55
 1315.18        2955.00           1268         179.00       779.44
 1315.21        2955.25           1271         187.00       814.32
 1315.27        2955.50           1275         202.00       879.71
 1315.31        2955.75           1278         184.00       801.24
 1315.34        2956.00           1281         182.00       792.52
 1315.38        2956.25           1285         187.00       814.32
 1315.44        2956.50           1288         172.00       748.93
 1315.47        2956.75           1292         182.00       792.52
 1315.51        2957.00           1295         186.00       809.96
 1315.54        2957.25           1298         177.00       770.72
 1315.60        2957.50           1302         194.00       844.83
 1315.64        2957.75           1305         179.00       779.44
 1315.68        2958.00           1309         186.00       809.96
 1315.73        2958.25           1312         184.00       801.24
 1315.77        2958.50           1315         192.00       836.11
 1315.80        2958.75           1319         197.00       857.91
 1315.84        2959.00           1322         184.00       801.24
 1315.90        2959.25           1326         186.00       809.96
 1315.93        2959.50           1329         190.00       827.39
 1315.97        2959.75           1332         184.00       801.24
 1316.01        2960.00           1336         182.00       792.52
 1316.06        2960.25           1339         180.00       783.80
 1316.10        2960.50           1343         186.00       809.96
 1316.14        2960.75           1346         224.00       975.61
 1316.17        2961.00           1349         233.00      1014.85
 1316.23        2961.25           1353         251.00      1093.32
 1316.27        2961.50           1356         286.00      1245.90
 1316.30        2961.75           1360         484.00      2109.10
 1316.36        2962.00           1363        1482.00      6460.57
 1316.40        2962.25           1366        4188.00     18264.29
 1316.43        2962.50           1370       11083.00     48374.09
 1316.47        2962.75           1373       18028.00     78750.93
 1316.53        2963.00           1377       29277.00    128057.20
 1316.56        2963.25           1380       37933.00    166086.00
 1316.60        2963.50           1383       47775.00    209418.80
 1316.64        2963.75           1387       60334.00    264859.50
 1316.70        2964.00           1390       69693.00    306280.50
 1316.73        2964.25           1394       82717.00    364074.60
 1316.77        2964.50           1397       92994.00    409804.70
 1316.81        2964.75           1400      102913.00    454047.80
 1316.86        2965.00           1404      116769.00    516026.80
 1316.90        2965.25           1407      126693.00    560544.00
 1316.94        2965.50           1411      139956.00    620205.10
 1317.00        2965.75           1414      149680.00    664067.80
 1317.03        2966.00           1417      160108.00    711220.60
 1317.07        2966.25           1421      172724.00    768426.80
 1317.10        2966.50           1424      181691.00    809193.50
 1317.16        2966.75           1428      190946.00    851363.20
 1317.20        2967.00           1431      195925.00    874089.10
 1317.24        2967.25           1434      198978.00    888037.80
 1317.27        2967.50           1438      201131.00    897880.90
 1317.33        2967.75           1441      202228.00    902898.10
 1317.37        2968.00           1445      202242.00    902962.20
 1317.40        2968.25           1448      200982.00    897199.50
 1317.45        2968.50           1451      197982.00    883486.10
 1317.50        2968.75           1455      191757.00    855063.10
 1317.53        2969.00           1458      183954.00    819495.90
 1317.57        2969.25           1462      172941.00    769412.10
 1317.63        2969.50           1465      162998.00    724309.70
 1317.67        2969.75           1468      153581.00    681693.30
 1317.70        2970.00           1472      140567.00    622958.10
 1317.74        2970.25           1475      130942.00    579636.70
 1317.80        2970.50           1479      117849.00    520866.30
 1317.84        2970.75           1482      108610.00    479506.10
 1317.87        2971.00           1485       98651.00    435024.60
 1317.91        2971.25           1489       85467.00    376300.50
 1317.97        2971.50           1492       75411.00    331632.30
 1318.00        2971.75           1496       62328.00    273676.90
 1318.04        2972.00           1499       52371.00    229688.50
 1318.08        2972.25           1502       42467.00    186036.10
 1318.13        2972.50           1506       28860.00    126227.10
 1318.17        2972.75           1509       20090.00     87779.38
 1318.21        2973.00           1513       11356.00     49567.25
 1318.26        2973.25           1516        6648.00     29001.36
 1318.30        2973.50           1519        3549.00     15476.27
 1318.34        2973.75           1523        1338.00      5832.64
 1318.37        2974.00           1526         614.00      2675.87
 1318.43        2974.25           1530         320.00      1394.12
 1318.47        2974.50           1533         274.00      1193.59
 1318.50        2974.75           1536         235.00      1023.57
 1318.54        2975.00           1540         237.00      1032.29
 1318.60        2975.25           1543         202.00       879.71
 1318.63        2975.50           1547         183.00       796.88
 1318.67        2975.75           1550         170.00       740.21
 1318.70        2976.00           1553         190.00       827.39
 1318.76        2976.25           1557         194.00       844.83
 1318.80        2976.50           1560         171.00       744.57
 1318.83        2976.75           1564         177.00       770.72
 1318.89        2977.00           1567         172.00       748.93
 1318.93        2977.25           1571         168.00       731.49
 1318.96        2977.50           1574         193.00       840.47
 1319.00        2977.75           1577         177.00       770.72
 1319.06        2978.00           1581         181.00       788.16
 1319.09        2978.25           1584         171.00       744.57
 1319.13        2978.50           1588         171.00       744.57
 1319.16        2978.75           1591         177.00       770.72
 1319.22        2979.00           1594         175.00       762.00
 1319.26        2979.25           1598         164.00       714.05
 1319.29        2979.50           1601         179.00       779.44
 1319.33        2979.75           1605         165.00       718.41
 1319.39        2980.00           1608         177.00       770.72
 1319.42        2980.25           1611         191.00       831.75
 1319.46        2980.50           1615         172.00       748.93
 1319.52        2980.75           1618         171.00       744.57
 1319.56        2981.00           1622         173.00       753.28
 1319.59        2981.25           1625         181.00       788.16
 1319.63        2981.50           1629         172.00       748.93
 1319.69        2981.75           1632         169.00       735.85
 1319.72        2982.00           1635         182.00       792.52
 1319.76        2982.25           1639         178.00       775.08
 1319.79        2982.50           1642         168.00       731.49
 1319.85        2982.75           1646         165.00       718.41
 1319.89        2983.00           1649         161.00       700.97
 1319.92        2983.25           1652         182.00       792.52
 1319.96        2983.50           1656         167.00       727.13
 1320.02        2983.75           1659         167.00       727.13
 1320.05        2984.00           1663         165.00       718.41
HS scan finished at 22:00:24
end
