************************************************************
  HS Scan of (1) Internal mercury lamp
************************************************************
Integration time is 0.2294 seconds per sample
dh260619El Arenosillo 37.1 6.73 3.018777pr1000
************************************************************
Dead Time -------------------------  2.65E-08 
Number of Cycles Used -------------  4 
Starting Wavelength (Angstroms) ---  2950 
Final Wavelength (Angstoms) -------  2984 
Wavelength Increment (Angstroms) --  .25 
Filter Wheel #1 Position ---------- (1) Ground quartz diffuser (ND=2.32)
Filter Wheel #2 Position ---------- (1) Neutral Density 0.494



************************************************************
HS scan start time = 03:09:04
Dark Count =  .1 


Time (GMT)  Wavelength (Ang)  Step Number  Raw Counts  Counts/Second

  189.53        2950.00           1200         187.00       814.75
  189.66        2950.25           1203         186.00       810.39
  189.69        2950.50           1207         190.00       827.83
  189.73        2950.75           1210         182.00       792.95
  189.76        2951.00           1214         182.00       792.95
  189.80        2951.25           1217         178.00       775.52
  189.86        2951.50           1220         184.00       801.67
  189.89        2951.75           1224         181.00       788.60
  189.93        2952.00           1227         175.00       762.44
  189.97        2952.25           1231         185.00       806.03
  190.00        2952.50           1234         170.00       740.64
  190.06        2952.75           1237         182.00       792.95
  190.10        2953.00           1241         184.00       801.67
  190.13        2953.25           1244         178.00       775.52
  190.17        2953.50           1248         179.00       779.88
  190.20        2953.75           1251         172.00       749.36
  190.24        2954.00           1254         176.00       766.80
  190.30        2954.25           1258         187.00       814.75
  190.33        2954.50           1261         172.00       749.36
  190.37        2954.75           1264         177.00       771.16
  190.41        2955.00           1268         186.00       810.39
  190.44        2955.25           1271         175.00       762.44
  190.50        2955.50           1275         178.00       775.52
  190.54        2955.75           1278         169.00       736.28
  190.57        2956.00           1281         170.00       740.64
  190.61        2956.25           1285         180.00       784.24
  190.64        2956.50           1288         186.00       810.39
  190.70        2956.75           1292         168.00       731.92
  190.74        2957.00           1295         183.00       797.31
  190.77        2957.25           1298         189.00       823.47
  190.81        2957.50           1302         178.00       775.52
  190.85        2957.75           1305         185.00       806.03
  190.89        2958.00           1309         179.00       779.88
  190.94        2958.25           1312         174.00       758.08
  190.98        2958.50           1315         166.00       723.20
  191.01        2958.75           1319         165.00       718.85
  191.05        2959.00           1322         177.00       771.16
  191.08        2959.25           1326         183.00       797.31
  191.14        2959.50           1329         185.00       806.03
  191.18        2959.75           1332         179.00       779.88
  191.21        2960.00           1336         169.00       736.28
  191.25        2960.25           1339         192.00       836.55
  191.28        2960.50           1343         181.00       788.60
  191.34        2960.75           1346         208.00       906.30
  191.38        2961.00           1349         221.00       962.97
  191.42        2961.25           1353         253.00      1102.47
  191.45        2961.50           1356         262.00      1141.71
  191.49        2961.75           1360         398.00      1734.60
  191.55        2962.00           1363        1020.00      4446.47
  191.58        2962.25           1366        3151.00     13740.40
  191.62        2962.50           1370        8811.00     38447.61
  191.66        2962.75           1373       14460.00     63139.12
  191.69        2963.00           1377       24710.00    108024.10
  191.74        2963.25           1380       32590.00    142603.70
  191.79        2963.50           1383       41496.00    181762.20
  191.82        2963.75           1387       53312.00    233841.70
  191.86        2964.00           1390       61477.00    269913.70
  191.90        2964.25           1394       73635.00    323754.90
  191.93        2964.50           1397       83325.00    366777.40
  191.99        2964.75           1400       92372.00    407034.30
  192.03        2965.00           1404      105101.00    463821.70
  192.06        2965.25           1407      114857.00    507462.60
  192.10        2965.50           1411      126505.00    559700.10
  192.14        2965.75           1414      136074.00    602723.50
  192.19        2966.00           1417      145078.00    643297.00
  192.23        2966.25           1421      156747.00    696010.60
  192.27        2966.50           1424      164551.00    731347.60
  192.30        2966.75           1428      172799.00    768767.80
  192.34        2967.00           1431      176791.00    786906.00
  192.40        2967.25           1434      179594.00    799652.40
  192.44        2967.50           1438      181765.00    809530.80
  192.47        2967.75           1441      182810.00    814287.60
  192.51        2968.00           1445      182698.00    813777.70
  192.55        2968.25           1448      181438.00    808042.50
  192.59        2968.50           1451      178669.00    795445.10
  192.64        2968.75           1455      172577.00    767759.70
  192.67        2969.00           1458      165932.00    737607.80
  192.71        2969.25           1462      155915.00    692247.10
  192.75        2969.50           1465      147001.00    651973.70
  192.78        2969.75           1468      138749.00    614768.20
  192.84        2970.00           1472      127606.00    564645.30
  192.88        2970.25           1475      118483.00    523708.40
  192.92        2970.50           1479      107153.00    472992.30
  192.95        2970.75           1482       99135.00    437184.40
  192.99        2971.00           1485       89989.00    396422.10
  193.05        2971.25           1489       78237.00    344175.00
  193.09        2971.50           1492       69527.00    305545.50
  193.12        2971.75           1496       56897.00    249671.30
  193.16        2972.00           1499       47317.00    207400.50
  193.19        2972.25           1502       38212.00    167313.40
  193.25        2972.50           1506       26174.00    114443.80
  193.29        2972.75           1509       18076.00     78961.48
  193.32        2973.00           1513       10480.00     45739.37
  193.36        2973.25           1516        6543.00     28543.38
  193.40        2973.50           1519        3663.00     15974.07
  193.44        2973.75           1523        1448.00      6312.74
  193.49        2974.00           1526         671.00      2924.81
  193.52        2974.25           1530         304.00      1324.81
  193.56        2974.50           1533         246.00      1071.96
  193.60        2974.75           1536         219.00       954.25
  193.63        2975.00           1540         191.00       832.19
  193.69        2975.25           1543         180.00       784.24
  193.73        2975.50           1547         168.00       731.92
  193.76        2975.75           1550         181.00       788.60
  193.80        2976.00           1553         169.00       736.28
  193.84        2976.25           1557         159.00       692.69
  193.89        2976.50           1560         169.00       736.28
  193.93        2976.75           1564         174.00       758.08
  193.96        2977.00           1567         177.00       771.16
  194.00        2977.25           1571         163.00       710.13
  194.04        2977.50           1574         172.00       749.36
  194.10        2977.75           1577         170.00       740.64
  194.13        2978.00           1581         166.00       723.20
  194.17        2978.25           1584         161.00       701.41
  194.20        2978.50           1588         163.00       710.13
  194.24        2978.75           1591         171.00       745.00
  194.29        2979.00           1594         168.00       731.92
  194.33        2979.25           1598         153.00       666.53
  194.37        2979.50           1601         170.00       740.64
  194.40        2979.75           1605         164.00       714.49
  194.44        2980.00           1608         174.00       758.08
  194.48        2980.25           1611         162.00       705.77
  194.53        2980.50           1615         156.00       679.61
  194.57        2980.75           1618         155.00       675.25
  194.61        2981.00           1622         161.00       701.41
  194.64        2981.25           1625         162.00       705.77
  194.68        2981.50           1629         165.00       718.85
  194.74        2981.75           1632         181.00       788.60
  194.77        2982.00           1635         164.00       714.49
  194.81        2982.25           1639         170.00       740.64
  194.84        2982.50           1642         158.00       688.33
  194.88        2982.75           1646         156.00       679.61
  194.94        2983.00           1649         162.00       705.77
  194.97        2983.25           1652         163.00       710.13
  195.01        2983.50           1656         155.00       675.25
  195.04        2983.75           1659         159.00       692.69
  195.08        2984.00           1663         157.00       683.97
HS scan finished at 03:15:27
end
