************************************************************
  HS Scan of (1) Internal mercury lamp
************************************************************
Integration time is 0.2294 seconds per sample
dh230619El Arenosillo 37.1 6.73 2.965129pr1000
************************************************************
Dead Time -------------------------  2.65E-08 
Number of Cycles Used -------------  4 
Starting Wavelength (Angstroms) ---  2950 
Final Wavelength (Angstoms) -------  2984 
Wavelength Increment (Angstroms) --  .25 
Filter Wheel #1 Position ---------- (1) Ground quartz diffuser (ND=2.32)
Filter Wheel #2 Position ---------- (1) Neutral Density 0.494



************************************************************
HS scan start time = 22:04:22
Dark Count =  .2 


Time (GMT)  Wavelength (Ang)  Step Number  Raw Counts  Counts/Second

 1324.86        2950.00           1200         202.00       879.71
 1324.96        2950.25           1203         195.00       849.19
 1325.00        2950.50           1207         180.00       783.80
 1325.04        2950.75           1210         185.00       805.60
 1325.09        2951.00           1214         181.00       788.16
 1325.13        2951.25           1217         187.00       814.32
 1325.16        2951.50           1220         193.00       840.47
 1325.20        2951.75           1224         171.00       744.57
 1325.24        2952.00           1227         192.00       836.11
 1325.29        2952.25           1231         207.00       901.50
 1325.33        2952.50           1234         192.00       836.11
 1325.36        2952.75           1237         193.00       840.47
 1325.40        2953.00           1241         187.00       814.32
 1325.46        2953.25           1244         190.00       827.39
 1325.49        2953.50           1248         184.00       801.24
 1325.53        2953.75           1251         190.00       827.39
 1325.56        2954.00           1254         182.00       792.52
 1325.62        2954.25           1258         195.00       849.19
 1325.66        2954.50           1261         198.00       862.27
 1325.69        2954.75           1264         179.00       779.44
 1325.73        2955.00           1268         184.00       801.24
 1325.76        2955.25           1271         182.00       792.52
 1325.82        2955.50           1275         180.00       783.80
 1325.85        2955.75           1278         183.00       796.88
 1325.89        2956.00           1281         176.00       766.36
 1325.93        2956.25           1285         187.00       814.32
 1325.98        2956.50           1288         192.00       836.11
 1326.02        2956.75           1292         190.00       827.39
 1326.05        2957.00           1295         178.00       775.08
 1326.09        2957.25           1298         179.00       779.44
 1326.15        2957.50           1302         189.00       823.03
 1326.18        2957.75           1305         183.00       796.88
 1326.22        2958.00           1309         194.00       844.83
 1326.25        2958.25           1312         193.00       840.47
 1326.29        2958.50           1315         190.00       827.39
 1326.35        2958.75           1319         187.00       814.32
 1326.38        2959.00           1322         193.00       840.47
 1326.42        2959.25           1326         180.00       783.80
 1326.45        2959.50           1329         185.00       805.60
 1326.51        2959.75           1332         184.00       801.24
 1326.55        2960.00           1336         187.00       814.32
 1326.58        2960.25           1339         191.00       831.75
 1326.62        2960.50           1343         192.00       836.11
 1326.67        2960.75           1346         213.00       927.66
 1326.71        2961.00           1349         229.00       997.41
 1326.75        2961.25           1353         255.00      1110.76
 1326.78        2961.50           1356         274.00      1193.59
 1326.82        2961.75           1360         408.00      1777.76
 1326.88        2962.00           1363        1194.00      5204.73
 1326.91        2962.25           1366        3603.00     15711.86
 1326.95        2962.50           1370        9305.00     40605.13
 1326.98        2962.75           1373       15394.00     67224.28
 1327.04        2963.00           1377       25560.00    111750.70
 1327.08        2963.25           1380       33473.00    146482.10
 1327.11        2963.50           1383       41792.00    183064.70
 1327.15        2963.75           1387       54042.00    237063.50
 1327.21        2964.00           1390       63798.00    280179.80
 1327.24        2964.25           1394       75909.00    333841.90
 1327.28        2964.50           1397       85857.00    378035.00
 1327.32        2964.75           1400       95748.00    422078.30
 1327.35        2965.00           1404      108633.00    479609.00
 1327.41        2965.25           1407      118174.00    522323.00
 1327.45        2965.50           1411      130779.00    578903.80
 1327.48        2965.75           1414      140531.00    622795.90
 1327.52        2966.00           1417      149968.00    665368.50
 1327.58        2966.25           1421      161027.00    715381.90
 1327.61        2966.50           1424      169353.00    753124.10
 1327.65        2966.75           1428      177878.00    791847.50
 1327.69        2967.00           1431      182599.00    813326.50
 1327.74        2967.25           1434      185834.00    828059.00
 1327.78        2967.50           1438      187948.00    837692.60
 1327.82        2967.75           1441      188673.00    840997.60
 1327.85        2968.00           1445      188503.00    840222.60
 1327.89        2968.25           1448      187011.00    833422.00
 1327.94        2968.50           1451      183931.00    819391.10
 1327.98        2968.75           1455      177347.00    789433.20
 1328.02        2969.00           1458      171124.00    761162.00
 1328.05        2969.25           1462      160901.00    714811.30
 1328.11        2969.50           1465      152297.00    675890.10
 1328.14        2969.75           1468      143222.00    634925.80
 1328.18        2970.00           1472      131145.00    580549.30
 1328.22        2970.25           1475      122508.00    541758.00
 1328.28        2970.50           1479      110985.00    490129.60
 1328.31        2970.75           1482      102138.00    450587.20
 1328.35        2971.00           1485       92650.00    408272.20
 1328.39        2971.25           1489       80247.00    353100.30
 1328.42        2971.50           1492       71252.00    313189.30
 1328.48        2971.75           1496       58386.00    256249.50
 1328.51        2972.00           1499       48760.00    213761.10
 1328.55        2972.25           1502       39245.00    171856.80
 1328.59        2972.50           1506       27180.00    118855.90
 1328.64        2972.75           1509       19249.00     84096.54
 1328.68        2973.00           1513       10934.00     47722.91
 1328.71        2973.25           1516        6657.00     29040.65
 1328.75        2973.50           1519        3758.00     16388.11
 1328.81        2973.75           1523        1458.00      6355.91
 1328.84        2974.00           1526         668.00      2911.30
 1328.88        2974.25           1530         318.00      1385.40
 1328.91        2974.50           1533         245.00      1067.16
 1328.95        2974.75           1536         237.00      1032.29
 1329.01        2975.00           1540         222.00       966.89
 1329.04        2975.25           1543         193.00       840.47
 1329.08        2975.50           1547         182.00       792.52
 1329.11        2975.75           1550         178.00       775.08
 1329.17        2976.00           1553         182.00       792.52
 1329.21        2976.25           1557         180.00       783.80
 1329.24        2976.50           1560         187.00       814.32
 1329.28        2976.75           1564         177.00       770.72
 1329.33        2977.00           1567         191.00       831.75
 1329.37        2977.25           1571         176.00       766.36
 1329.41        2977.50           1574         172.00       748.93
 1329.44        2977.75           1577         172.00       748.93
 1329.48        2978.00           1581         181.00       788.16
 1329.53        2978.25           1584         178.00       775.08
 1329.57        2978.50           1588         184.00       801.24
 1329.61        2978.75           1591         167.00       727.13
 1329.64        2979.00           1594         175.00       762.00
 1329.70        2979.25           1598         177.00       770.72
 1329.73        2979.50           1601         184.00       801.24
 1329.77        2979.75           1605         164.00       714.05
 1329.81        2980.00           1608         175.00       762.00
 1329.86        2980.25           1611         166.00       722.77
 1329.90        2980.50           1615         172.00       748.93
 1329.94        2980.75           1618         176.00       766.36
 1329.97        2981.00           1622         185.00       805.60
 1330.01        2981.25           1625         186.00       809.96
 1330.06        2981.50           1629         173.00       753.28
 1330.10        2981.75           1632         180.00       783.80
 1330.14        2982.00           1635         183.00       796.88
 1330.17        2982.25           1639         170.00       740.21
 1330.23        2982.50           1642         161.00       700.97
 1330.27        2982.75           1646         174.00       757.64
 1330.30        2983.00           1649         178.00       775.08
 1330.34        2983.25           1652         168.00       731.49
 1330.39        2983.50           1656         165.00       718.41
 1330.43        2983.75           1659         163.00       709.69
 1330.47        2984.00           1663         162.00       705.33
HS scan finished at 22:10:49
end
