************************************************************
  HS Scan of (1) Internal mercury lamp
************************************************************
Integration time is 0.2294 seconds per sample
dh250619El Arenosillo 37.1 6.73 3.018777pr1000
************************************************************
Dead Time -------------------------  2.65E-08 
Number of Cycles Used -------------  4 
Starting Wavelength (Angstroms) ---  2950 
Final Wavelength (Angstoms) -------  2984 
Wavelength Increment (Angstroms) --  .25 
Filter Wheel #1 Position ---------- (1) Ground quartz diffuser (ND=2.32)
Filter Wheel #2 Position ---------- (1) Neutral Density 0.494



************************************************************
HS scan start time = 02:56:56
Dark Count =  .2 


Time (GMT)  Wavelength (Ang)  Step Number  Raw Counts  Counts/Second

  177.41        2950.00           1200         186.00       809.96
  177.53        2950.25           1203         189.00       823.03
  177.57        2950.50           1207         176.00       766.36
  177.60        2950.75           1210         180.00       783.80
  177.64        2951.00           1214         182.00       792.52
  177.68        2951.25           1217         180.00       783.80
  177.73        2951.50           1220         169.00       735.85
  177.77        2951.75           1224         184.00       801.24
  177.80        2952.00           1227         184.00       801.24
  177.84        2952.25           1231         177.00       770.72
  177.88        2952.50           1234         172.00       748.93
  177.91        2952.75           1237         185.00       805.60
  177.97        2953.00           1241         172.00       748.93
  178.01        2953.25           1244         177.00       770.72
  178.04        2953.50           1248         177.00       770.72
  178.08        2953.75           1251         197.00       857.91
  178.11        2954.00           1254         179.00       779.44
  178.17        2954.25           1258         180.00       783.80
  178.21        2954.50           1261         172.00       748.93
  178.24        2954.75           1264         174.00       757.64
  178.28        2955.00           1268         176.00       766.36
  178.31        2955.25           1271         177.00       770.72
  178.35        2955.50           1275         174.00       757.64
  178.41        2955.75           1278         177.00       770.72
  178.44        2956.00           1281         182.00       792.52
  178.48        2956.25           1285         184.00       801.24
  178.52        2956.50           1288         171.00       744.57
  178.55        2956.75           1292         174.00       757.64
  178.61        2957.00           1295         189.00       823.03
  178.65        2957.25           1298         171.00       744.57
  178.68        2957.50           1302         177.00       770.72
  178.72        2957.75           1305         176.00       766.36
  178.75        2958.00           1309         179.00       779.44
  178.79        2958.25           1312         173.00       753.28
  178.85        2958.50           1315         170.00       740.21
  178.88        2958.75           1319         167.00       727.13
  178.92        2959.00           1322         174.00       757.64
  178.95        2959.25           1326         184.00       801.24
  178.99        2959.50           1329         172.00       748.93
  179.05        2959.75           1332         183.00       796.88
  179.08        2960.00           1336         169.00       735.85
  179.12        2960.25           1339         171.00       744.57
  179.15        2960.50           1343         179.00       779.44
  179.19        2960.75           1346         210.00       914.58
  179.22        2961.00           1349         226.00       984.33
  179.28        2961.25           1353         237.00      1032.29
  179.32        2961.50           1356         266.00      1158.71
  179.35        2961.75           1360         399.00      1738.53
  179.39        2962.00           1363        1199.00      5226.53
  179.43        2962.25           1366        3562.00     15532.99
  179.48        2962.50           1370        9552.00     41684.21
  179.52        2962.75           1373       15291.00     66773.68
  179.56        2963.00           1377       25480.00    111399.90
  179.59        2963.25           1380       33490.00    146556.80
  179.63        2963.50           1383       42254.00    185098.40
  179.66        2963.75           1387       54776.00    240304.00
  179.72        2964.00           1390       63604.00    279321.50
  179.76        2964.25           1394       76076.00    334583.00
  179.79        2964.50           1397       85736.00    377496.90
  179.83        2964.75           1400       95348.00    420295.20
  179.87        2965.00           1404      108337.00    478285.40
  179.93        2965.25           1407      118851.00    525357.50
  179.96        2965.50           1411      131453.00    581934.00
  180.00        2965.75           1414      140360.00    622025.40
  180.03        2966.00           1417      150368.00    667175.10
  180.07        2966.25           1421      161955.00    719584.80
  180.11        2966.50           1424      170531.00    758470.10
  180.16        2966.75           1428      178962.00    796777.20
  180.20        2967.00           1431      183486.00    817364.90
  180.24        2967.25           1434      186999.00    833367.40
  180.27        2967.50           1438      189416.00    844385.20
  180.31        2967.75           1441      190020.00    847139.60
  180.37        2968.00           1445      190398.00    848863.60
  180.40        2968.25           1448      188887.00    841973.20
  180.44        2968.50           1451      185714.00    827512.30
  180.48        2968.75           1455      179960.00    801316.90
  180.51        2969.00           1458      173164.00    770425.00
  180.55        2969.25           1462      162580.00    722416.00
  180.61        2969.50           1465      153447.00    681087.60
  180.64        2969.75           1468      144752.00    641825.90
  180.68        2970.00           1472      133439.00    590865.80
  180.72        2970.25           1475      123992.00    548417.30
  180.75        2970.50           1479      112135.00    495275.70
  180.81        2970.75           1482      102957.00    454244.30
  180.85        2971.00           1485       94012.00    414340.60
  180.88        2971.25           1489       81070.00    356756.20
  180.92        2971.50           1492       71945.00    316261.10
  180.96        2971.75           1496       59503.00    261186.00
  180.99        2972.00           1499       49999.00    219224.60
  181.05        2972.25           1502       40576.00    177712.90
  181.09        2972.50           1506       29656.00    129720.70
  181.12        2972.75           1509       20833.00     91033.65
  181.16        2973.00           1513       11395.00     49737.71
  181.20        2973.25           1516        6674.00     29114.87
  181.25        2973.50           1519        3778.00     16475.37
  181.29        2973.75           1523        1465.00      6386.43
  181.33        2974.00           1526         675.00      2941.82
  181.36        2974.25           1530         316.00      1376.68
  181.40        2974.50           1533         259.00      1128.19
  181.43        2974.75           1536         239.00      1041.01
  181.49        2975.00           1540         213.00       927.66
  181.53        2975.25           1543         193.00       840.47
  181.56        2975.50           1547         183.00       796.88
  181.60        2975.75           1550         176.00       766.36
  181.63        2976.00           1553         181.00       788.16
  181.69        2976.25           1557         164.00       714.05
  181.73        2976.50           1560         185.00       805.60
  181.76        2976.75           1564         182.00       792.52
  181.80        2977.00           1567         168.00       731.49
  181.84        2977.25           1571         160.00       696.61
  181.87        2977.50           1574         179.00       779.44
  181.93        2977.75           1577         166.00       722.77
  181.97        2978.00           1581         170.00       740.21
  182.00        2978.25           1584         162.00       705.33
  182.04        2978.50           1588         180.00       783.80
  182.07        2978.75           1591         180.00       783.80
  182.13        2979.00           1594         170.00       740.21
  182.17        2979.25           1598         158.00       687.89
  182.21        2979.50           1601         159.00       692.25
  182.24        2979.75           1605         156.00       679.18
  182.28        2980.00           1608         175.00       762.00
  182.32        2980.25           1611         174.00       757.64
  182.37        2980.50           1615         159.00       692.25
  182.41        2980.75           1618         166.00       722.77
  182.44        2981.00           1622         173.00       753.28
  182.48        2981.25           1625         168.00       731.49
  182.52        2981.50           1629         146.00       635.58
  182.57        2981.75           1632         169.00       735.85
  182.61        2982.00           1635         171.00       744.57
  182.65        2982.25           1639         165.00       718.41
  182.68        2982.50           1642         162.00       705.33
  182.72        2982.75           1646         158.00       687.89
  182.76        2983.00           1649         153.00       666.10
  182.81        2983.25           1652         171.00       744.57
  182.85        2983.50           1656         160.00       696.61
  182.89        2983.75           1659         167.00       727.13
  182.92        2984.00           1663         160.00       696.61
HS scan finished at 03:03:16
end
************************************************************
  HS Scan of (1) Internal mercury lamp
************************************************************
Integration time is 0.2294 seconds per sample
dh250619El Arenosillo 37.1 6.73 3.072425pr1000
************************************************************
Dead Time -------------------------  2.65E-08 
Number of Cycles Used -------------  4 
Starting Wavelength (Angstroms) ---  2950 
Final Wavelength (Angstoms) -------  2984 
Wavelength Increment (Angstroms) --  .25 
Filter Wheel #1 Position ---------- (1) Ground quartz diffuser (ND=2.32)
Filter Wheel #2 Position ---------- (1) Neutral Density 0.494



************************************************************
HS scan start time = 21:10:36
Dark Count =  .1 


Time (GMT)  Wavelength (Ang)  Step Number  Raw Counts  Counts/Second

 1271.07        2950.00           1200         174.00       758.08
 1271.18        2950.25           1203         192.00       836.55
 1271.23        2950.50           1207         179.00       779.88
 1271.27        2950.75           1210         183.00       797.31
 1271.32        2951.00           1214         171.00       745.00
 1271.36        2951.25           1217         180.00       784.24
 1271.40        2951.50           1220         178.00       775.52
 1271.45        2951.75           1224         177.00       771.16
 1271.50        2952.00           1227         171.00       745.00
 1271.53        2952.25           1231         182.00       792.95
 1271.58        2952.50           1234         179.00       779.88
 1271.63        2952.75           1237         172.00       749.36
 1271.66        2953.00           1241         184.00       801.67
 1271.71        2953.25           1244         176.00       766.80
 1271.76        2953.50           1248         193.00       840.91
 1271.79        2953.75           1251         190.00       827.83
 1271.84        2954.00           1254         174.00       758.08
 1271.89        2954.25           1258         178.00       775.52
 1271.93        2954.50           1261         172.00       749.36
 1271.97        2954.75           1264         183.00       797.31
 1272.02        2955.00           1268         180.00       784.24
 1272.06        2955.25           1271         168.00       731.92
 1272.11        2955.50           1275         184.00       801.67
 1272.15        2955.75           1278         172.00       749.36
 1272.19        2956.00           1281         175.00       762.44
 1272.24        2956.25           1285         181.00       788.60
 1272.29        2956.50           1288         171.00       745.00
 1272.32        2956.75           1292         170.00       740.64
 1272.37        2957.00           1295         182.00       792.95
 1272.42        2957.25           1298         187.00       814.75
 1272.45        2957.50           1302         169.00       736.28
 1272.50        2957.75           1305         186.00       810.39
 1272.55        2958.00           1309         170.00       740.64
 1272.58        2958.25           1312         177.00       771.16
 1272.63        2958.50           1315         169.00       736.28
 1272.68        2958.75           1319         179.00       779.88
 1272.72        2959.00           1322         171.00       745.00
 1272.76        2959.25           1326         172.00       749.36
 1272.81        2959.50           1329         175.00       762.44
 1272.85        2959.75           1332         173.00       753.72
 1272.89        2960.00           1336         174.00       758.08
 1272.94        2960.25           1339         181.00       788.60
 1272.98        2960.50           1343         186.00       810.39
 1273.03        2960.75           1346         201.00       875.78
 1273.07        2961.00           1349         232.00      1010.93
 1273.11        2961.25           1353         226.00       984.77
 1273.16        2961.50           1356         282.00      1228.90
 1273.20        2961.75           1360         447.00      1948.23
 1273.24        2962.00           1363        1371.00      5976.97
 1273.29        2962.25           1366        3775.00     16462.72
 1273.34        2962.50           1370        9953.00     43436.64
 1273.37        2962.75           1373       16303.00     71201.79
 1273.42        2963.00           1377       26621.00    116404.30
 1273.47        2963.25           1380       34451.00    150779.60
 1273.50        2963.50           1383       43458.00    190399.80
 1273.55        2963.75           1387       55882.00    245188.20
 1273.60        2964.00           1390       64142.00    281702.40
 1273.64        2964.25           1394       76851.00    338022.60
 1273.68        2964.50           1397       85750.00    377559.60
 1273.73        2964.75           1400       95189.00    419586.80
 1273.77        2965.00           1404      108376.00    478460.20
 1273.82        2965.25           1407      118640.00    524412.10
 1273.87        2965.50           1411      129730.00    574189.00
 1273.90        2965.75           1414      139368.00    617556.50
 1273.95        2966.00           1417      148348.00    658053.80
 1274.00        2966.25           1421      159959.00    710546.60
 1274.03        2966.50           1424      167494.00    744691.10
 1274.08        2966.75           1428      175316.00    780202.10
 1274.13        2967.00           1431      179581.00    799593.30
 1274.17        2967.25           1434      181673.00    809112.10
 1274.21        2967.50           1438      184184.00    820543.80
 1274.26        2967.75           1441      184479.00    821887.30
 1274.30        2968.00           1445      184195.00    820593.80
 1274.35        2968.25           1448      183164.00    815899.30
 1274.40        2968.50           1451      179811.00    800639.60
 1274.43        2968.75           1455      172587.00    767805.10
 1274.48        2969.00           1458      166290.00    739231.00
 1274.53        2969.25           1462      155952.00    692414.50
 1274.56        2969.50           1465      147064.00    652258.00
 1274.61        2969.75           1468      138535.00    613804.30
 1274.66        2970.00           1472      127033.00    562071.60
 1274.70        2970.25           1475      118349.00    523107.80
 1274.74        2970.50           1479      107085.00    472688.40
 1274.79        2970.75           1482       98347.00    433668.90
 1274.83        2971.00           1485       89166.00    392758.50
 1274.88        2971.25           1489       77097.00    339114.50
 1274.93        2971.50           1492       68177.00    299565.30
 1274.96        2971.75           1496       56383.00    247400.90
 1275.01        2972.00           1499       46691.00    204641.60
 1275.06        2972.25           1502       37542.00    164366.90
 1275.09        2972.50           1506       25643.00    112115.10
 1275.14        2972.75           1509       17183.00     75052.79
 1275.19        2973.00           1513        9726.00     42444.84
 1275.23        2973.25           1516        5990.00     26129.25
 1275.27        2973.50           1519        3339.00     14560.54
 1275.32        2973.75           1523        1349.00      5881.04
 1275.36        2974.00           1526         642.00      2798.38
 1275.40        2974.25           1530         303.00      1320.45
 1275.45        2974.50           1533         248.00      1080.68
 1275.49        2974.75           1536         215.00       936.81
 1275.54        2975.00           1540         182.00       792.95
 1275.59        2975.25           1543         187.00       814.75
 1275.62        2975.50           1547         178.00       775.52
 1275.67        2975.75           1550         171.00       745.00
 1275.72        2976.00           1553         176.00       766.80
 1275.75        2976.25           1557         175.00       762.44
 1275.80        2976.50           1560         163.00       710.13
 1275.85        2976.75           1564         169.00       736.28
 1275.88        2977.00           1567         169.00       736.28
 1275.93        2977.25           1571         175.00       762.44
 1275.98        2977.50           1574         160.00       697.05
 1276.02        2977.75           1577         160.00       697.05
 1276.06        2978.00           1581         169.00       736.28
 1276.11        2978.25           1584         166.00       723.20
 1276.15        2978.50           1588         167.00       727.56
 1276.19        2978.75           1591         169.00       736.28
 1276.24        2979.00           1594         155.00       675.25
 1276.28        2979.25           1598         166.00       723.20
 1276.32        2979.50           1601         161.00       701.41
 1276.37        2979.75           1605         175.00       762.44
 1276.41        2980.00           1608         163.00       710.13
 1276.45        2980.25           1611         167.00       727.56
 1276.50        2980.50           1615         156.00       679.61
 1276.54        2980.75           1618         159.00       692.69
 1276.59        2981.00           1622         163.00       710.13
 1276.64        2981.25           1625         173.00       753.72
 1276.67        2981.50           1629         161.00       701.41
 1276.72        2981.75           1632         172.00       749.36
 1276.77        2982.00           1635         155.00       675.25
 1276.80        2982.25           1639         158.00       688.33
 1276.85        2982.50           1642         168.00       731.92
 1276.90        2982.75           1646         164.00       714.49
 1276.94        2983.00           1649         152.00       662.17
 1276.98        2983.25           1652         158.00       688.33
 1277.03        2983.50           1656         153.00       666.53
 1277.07        2983.75           1659         166.00       723.20
 1277.12        2984.00           1663         161.00       701.41
HS scan finished at 21:17:29
end
