************************************************************
  HS Scan of (1) Internal mercury lamp
************************************************************
Integration time is 0.2294 seconds per sample
dh190619El Arenosillo 37.1 6.73 2.965129pr1000
************************************************************
Dead Time -------------------------  2.65E-08 
Number of Cycles Used -------------  4 
Starting Wavelength (Angstroms) ---  2950 
Final Wavelength (Angstoms) -------  2984 
Wavelength Increment (Angstroms) --  .25 
Filter Wheel #1 Position ---------- (1) Ground quartz diffuser (ND=2.32)
Filter Wheel #2 Position ---------- (1) Neutral Density 0.494



************************************************************
HS scan start time = 22:04:32
Dark Count =  .1 


Time (GMT)  Wavelength (Ang)  Step Number  Raw Counts  Counts/Second

 1325.01        2950.00           1200         198.00       862.70
 1325.12        2950.25           1203         204.00       888.86
 1325.15        2950.50           1207         214.00       932.46
 1325.19        2950.75           1210         201.00       875.78
 1325.25        2951.00           1214         197.00       858.35
 1325.28        2951.25           1217         213.00       928.10
 1325.32        2951.50           1220         195.00       849.63
 1325.36        2951.75           1224         207.00       901.94
 1325.41        2952.00           1227         201.00       875.78
 1325.45        2952.25           1231         197.00       858.35
 1325.48        2952.50           1234         199.00       867.06
 1325.52        2952.75           1237         203.00       884.50
 1325.58        2953.00           1241         197.00       858.35
 1325.61        2953.25           1244         201.00       875.78
 1325.65        2953.50           1248         200.00       871.42
 1325.68        2953.75           1251         198.00       862.70
 1325.73        2954.00           1254         193.00       840.91
 1325.78        2954.25           1258         203.00       884.50
 1325.81        2954.50           1261         201.00       875.78
 1325.85        2954.75           1264         207.00       901.94
 1325.88        2955.00           1268         190.00       827.83
 1325.94        2955.25           1271         209.00       910.66
 1325.98        2955.50           1275         190.00       827.83
 1326.01        2955.75           1278         198.00       862.70
 1326.05        2956.00           1281         199.00       867.06
 1326.11        2956.25           1285         188.00       819.11
 1326.14        2956.50           1288         204.00       888.86
 1326.18        2956.75           1292         199.00       867.06
 1326.21        2957.00           1295         209.00       910.66
 1326.27        2957.25           1298         202.00       880.14
 1326.31        2957.50           1302         192.00       836.55
 1326.34        2957.75           1305         202.00       880.14
 1326.38        2958.00           1309         188.00       819.11
 1326.43        2958.25           1312         199.00       867.06
 1326.47        2958.50           1315         189.00       823.47
 1326.51        2958.75           1319         188.00       819.11
 1326.54        2959.00           1322         191.00       832.19
 1326.60        2959.25           1326         191.00       832.19
 1326.63        2959.50           1329         190.00       827.83
 1326.67        2959.75           1332         180.00       784.24
 1326.71        2960.00           1336         190.00       827.83
 1326.75        2960.25           1339         197.00       858.35
 1326.80        2960.50           1343         211.00       919.38
 1326.84        2960.75           1346         205.00       893.22
 1326.87        2961.00           1349         249.00      1085.04
 1326.91        2961.25           1353         256.00      1115.55
 1326.96        2961.50           1356         295.00      1285.57
 1327.00        2961.75           1360         584.00      2545.51
 1327.04        2962.00           1363        1851.00      8070.17
 1327.07        2962.25           1366        4987.00     21751.42
 1327.13        2962.50           1370       12339.00     53864.55
 1327.17        2962.75           1373       19460.00     85020.90
 1327.20        2963.00           1377       30461.00    133254.80
 1327.24        2963.25           1380       39910.00    174782.80
 1327.30        2963.50           1383       48998.00    214810.90
 1327.33        2963.75           1387       61586.00    270395.70
 1327.37        2964.00           1390       71137.00    312680.00
 1327.41        2964.25           1394       84190.00    370622.70
 1327.46        2964.50           1397       93836.00    413556.80
 1327.50        2964.75           1400      103590.00    457071.70
 1327.54        2965.00           1404      116559.00    515086.40
 1327.57        2965.25           1407      127291.00    563230.40
 1327.63        2965.50           1411      140061.00    620678.70
 1327.67        2965.75           1414      149965.00    665355.50
 1327.70        2966.00           1417      160617.00    713525.80
 1327.74        2966.25           1421      172433.00    767105.70
 1327.78        2966.50           1424      181408.00    807906.00
 1327.83        2966.75           1428      190090.00    847459.40
 1327.87        2967.00           1431      194583.00    867961.50
 1327.90        2967.25           1434      197019.00    879086.80
 1327.95        2967.50           1438      199604.00    890899.80
 1328.00        2967.75           1441      200507.00    895028.00
 1328.03        2968.00           1445      199921.00    892348.80
 1328.07        2968.25           1448      198723.00    886872.90
 1328.11        2968.50           1451      195572.00    872477.60
 1328.16        2968.75           1455      188984.00    842415.90
 1328.20        2969.00           1458      181779.00    809594.50
 1328.24        2969.25           1462      170541.00    758516.10
 1328.27        2969.50           1465      160702.00    713910.70
 1328.33        2969.75           1468      151197.00    670920.40
 1328.37        2970.00           1472      138363.00    613029.70
 1328.40        2970.25           1475      128465.00    568504.50
 1328.44        2970.50           1479      115704.00    511256.20
 1328.50        2970.75           1482      105893.00    467360.70
 1328.53        2971.00           1485       96307.00    424571.00
 1328.57        2971.25           1489       83647.00    368208.80
 1328.61        2971.50           1492       73958.00    325187.40
 1328.67        2971.75           1496       60910.00    267406.50
 1328.70        2972.00           1499       50868.00    223057.90
 1328.74        2972.25           1502       41309.00    180939.20
 1328.77        2972.50           1506       28300.00    123770.20
 1328.82        2972.75           1509       19143.00     83632.85
 1328.87        2973.00           1513       10722.00     46796.89
 1328.90        2973.25           1516        6231.00     27181.30
 1328.94        2973.50           1519        3257.00     14202.82
 1328.97        2973.75           1523        1239.00      5401.38
 1329.03        2974.00           1526         567.00      2471.39
 1329.07        2974.25           1530         314.00      1368.40
 1329.10        2974.50           1533         277.00      1207.10
 1329.14        2974.75           1536         254.00      1106.83
 1329.20        2975.00           1540         216.00       941.17
 1329.23        2975.25           1543         219.00       954.25
 1329.27        2975.50           1547         191.00       832.19
 1329.30        2975.75           1550         195.00       849.63
 1329.36        2976.00           1553         194.00       845.27
 1329.40        2976.25           1557         202.00       880.14
 1329.43        2976.50           1560         179.00       779.88
 1329.47        2976.75           1564         182.00       792.95
 1329.53        2977.00           1567         208.00       906.30
 1329.56        2977.25           1571         193.00       840.91
 1329.60        2977.50           1574         196.00       853.99
 1329.63        2977.75           1577         193.00       840.91
 1329.69        2978.00           1581         195.00       849.63
 1329.73        2978.25           1584         180.00       784.24
 1329.76        2978.50           1588         186.00       810.39
 1329.80        2978.75           1591         180.00       784.24
 1329.84        2979.00           1594         198.00       862.70
 1329.89        2979.25           1598         187.00       814.75
 1329.93        2979.50           1601         173.00       753.72
 1329.96        2979.75           1605         175.00       762.44
 1330.00        2980.00           1608         171.00       745.00
 1330.06        2980.25           1611         178.00       775.52
 1330.09        2980.50           1615         181.00       788.60
 1330.13        2980.75           1618         187.00       814.75
 1330.16        2981.00           1622         185.00       806.03
 1330.22        2981.25           1625         186.00       810.39
 1330.26        2981.50           1629         188.00       819.11
 1330.29        2981.75           1632         178.00       775.52
 1330.33        2982.00           1635         164.00       714.49
 1330.39        2982.25           1639         180.00       784.24
 1330.42        2982.50           1642         181.00       788.60
 1330.46        2982.75           1646         167.00       727.56
 1330.49        2983.00           1649         188.00       819.11
 1330.55        2983.25           1652         181.00       788.60
 1330.59        2983.50           1656         177.00       771.16
 1330.62        2983.75           1659         176.00       766.80
 1330.66        2984.00           1663         177.00       771.16
HS scan finished at 22:11:02
end
