************************************************************
  HS Scan of (1) Internal mercury lamp
************************************************************
Integration time is 0.2294 seconds per sample
dh200619El Arenosillo 37.1 6.73 3.018777pr1000
************************************************************
Dead Time -------------------------  2.65E-08 
Number of Cycles Used -------------  4 
Starting Wavelength (Angstroms) ---  2950 
Final Wavelength (Angstoms) -------  2984 
Wavelength Increment (Angstroms) --  .25 
Filter Wheel #1 Position ---------- (1) Ground quartz diffuser (ND=2.32)
Filter Wheel #2 Position ---------- (1) Neutral Density 0.494



************************************************************
HS scan start time = 22:04:16
Dark Count =  .2 


Time (GMT)  Wavelength (Ang)  Step Number  Raw Counts  Counts/Second

 1324.75        2950.00           1200         208.00       905.86
 1324.85        2950.25           1203         204.00       888.43
 1324.89        2950.50           1207         200.00       870.99
 1324.92        2950.75           1210         202.00       879.71
 1324.98        2951.00           1214         179.00       779.44
 1325.02        2951.25           1217         184.00       801.24
 1325.05        2951.50           1220         205.00       892.78
 1325.09        2951.75           1224         189.00       823.03
 1325.13        2952.00           1227         199.00       866.63
 1325.18        2952.25           1231         194.00       844.83
 1325.21        2952.50           1234         186.00       809.96
 1325.25        2952.75           1237         193.00       840.47
 1325.29        2953.00           1241         194.00       844.83
 1325.34        2953.25           1244         183.00       796.88
 1325.38        2953.50           1248         189.00       823.03
 1325.41        2953.75           1251         203.00       884.07
 1325.45        2954.00           1254         207.00       901.50
 1325.51        2954.25           1258         195.00       849.19
 1325.54        2954.50           1261         192.00       836.11
 1325.58        2954.75           1264         192.00       836.11
 1325.62        2955.00           1268         192.00       836.11
 1325.67        2955.25           1271         200.00       870.99
 1325.71        2955.50           1275         202.00       879.71
 1325.74        2955.75           1278         190.00       827.39
 1325.78        2956.00           1281         174.00       757.64
 1325.82        2956.25           1285         178.00       775.08
 1325.87        2956.50           1288         194.00       844.83
 1325.91        2956.75           1292         189.00       823.03
 1325.94        2957.00           1295         203.00       884.07
 1325.98        2957.25           1298         206.00       897.14
 1326.04        2957.50           1302         198.00       862.27
 1326.07        2957.75           1305         188.00       818.68
 1326.11        2958.00           1309         198.00       862.27
 1326.14        2958.25           1312         189.00       823.03
 1326.20        2958.50           1315         183.00       796.88
 1326.24        2958.75           1319         187.00       814.32
 1326.27        2959.00           1322         202.00       879.71
 1326.31        2959.25           1326         190.00       827.39
 1326.35        2959.50           1329         197.00       857.91
 1326.40        2959.75           1332         173.00       753.28
 1326.44        2960.00           1336         197.00       857.91
 1326.47        2960.25           1339         197.00       857.91
 1326.51        2960.50           1343         204.00       888.43
 1326.57        2960.75           1346         222.00       966.89
 1326.60        2961.00           1349         230.00      1001.77
 1326.64        2961.25           1353         260.00      1132.55
 1326.67        2961.50           1356         302.00      1315.65
 1326.73        2961.75           1360         506.00      2205.01
 1326.77        2962.00           1363        1491.00      6499.81
 1326.80        2962.25           1366        4338.00     18918.81
 1326.84        2962.50           1370       11262.00     49156.40
 1326.88        2962.75           1373       17847.00     77958.63
 1326.93        2963.00           1377       29765.00    130199.10
 1326.97        2963.25           1380       38748.00    169670.50
 1327.00        2963.50           1383       48163.00    211129.20
 1327.04        2963.75           1387       61184.00    268617.60
 1327.10        2964.00           1390       70288.00    308917.00
 1327.13        2964.25           1394       83620.00    368088.30
 1327.17        2964.50           1397       93570.00    412371.10
 1327.21        2964.75           1400      103427.00    456343.30
 1327.26        2965.00           1404      116601.00    515274.10
 1327.30        2965.25           1407      127214.00    562884.00
 1327.34        2965.50           1411      140822.00    624107.20
 1327.37        2965.75           1414      150291.00    666827.30
 1327.41        2966.00           1417      160747.00    714114.00
 1327.47        2966.25           1421      173698.00    772850.50
 1327.50        2966.50           1424      182851.00    814473.70
 1327.54        2966.75           1428      191656.00    854602.20
 1327.57        2967.00           1431      196444.00    876459.70
 1327.63        2967.25           1434      199553.00    890666.10
 1327.67        2967.50           1438      202290.00    903181.80
 1327.70        2967.75           1441      202524.00    904252.00
 1327.74        2968.00           1445      202774.00    905395.80
 1327.80        2968.25           1448      201140.00    897922.00
 1327.84        2968.50           1451      198472.00    885725.20
 1327.87        2968.75           1455      191523.00    853995.40
 1327.91        2969.00           1458      184745.00    823098.20
 1327.95        2969.25           1462      173464.00    771787.60
 1328.00        2969.50           1465      163825.00    728056.90
 1328.04        2969.75           1468      154487.00    685789.10
 1328.08        2970.00           1472      140990.00    624864.30
 1328.11        2970.25           1475      131193.00    580765.10
 1328.17        2970.50           1479      118350.00    523111.80
 1328.21        2970.75           1482      108134.00    477377.70
 1328.24        2971.00           1485       98726.00    435359.20
 1328.28        2971.25           1489       86478.00    380797.20
 1328.34        2971.50           1492       76351.00    335803.30
 1328.37        2971.75           1496       62750.00    275543.50
 1328.41        2972.00           1499       52742.00    231325.70
 1328.45        2972.25           1502       42451.00    185965.70
 1328.48        2972.50           1506       28783.00    125889.20
 1328.54        2972.75           1509       19618.00     85712.34
 1328.57        2973.00           1513       11291.00     49283.16
 1328.61        2973.25           1516        6754.00     29464.15
 1328.65        2973.50           1519        3568.00     15559.16
 1328.70        2973.75           1523        1346.00      5867.52
 1328.74        2974.00           1526         620.00      2702.02
 1328.78        2974.25           1530         312.00      1359.25
 1328.81        2974.50           1533         299.00      1302.57
 1328.87        2974.75           1536         255.00      1110.76
 1328.90        2975.00           1540         215.00       936.38
 1328.94        2975.25           1543         207.00       901.50
 1328.98        2975.50           1547         195.00       849.19
 1329.01        2975.75           1550         196.00       853.55
 1329.07        2976.00           1553         186.00       809.96
 1329.11        2976.25           1557         191.00       831.75
 1329.14        2976.50           1560         181.00       788.16
 1329.18        2976.75           1564         188.00       818.68
 1329.23        2977.00           1567         179.00       779.44
 1329.27        2977.25           1571         174.00       757.64
 1329.31        2977.50           1574         189.00       823.03
 1329.34        2977.75           1577         188.00       818.68
 1329.40        2978.00           1581         166.00       722.77
 1329.43        2978.25           1584         185.00       805.60
 1329.47        2978.50           1588         184.00       801.24
 1329.51        2978.75           1591         191.00       831.75
 1329.54        2979.00           1594         186.00       809.96
 1329.60        2979.25           1598         188.00       818.68
 1329.63        2979.50           1601         173.00       753.28
 1329.67        2979.75           1605         173.00       753.28
 1329.71        2980.00           1608         178.00       775.08
 1329.76        2980.25           1611         181.00       788.16
 1329.80        2980.50           1615         181.00       788.16
 1329.83        2980.75           1618         166.00       722.77
 1329.87        2981.00           1622         173.00       753.28
 1329.93        2981.25           1625         168.00       731.49
 1329.96        2981.50           1629         177.00       770.72
 1330.00        2981.75           1632         177.00       770.72
 1330.04        2982.00           1635         171.00       744.57
 1330.07        2982.25           1639         187.00       814.32
 1330.13        2982.50           1642         169.00       735.85
 1330.16        2982.75           1646         169.00       735.85
 1330.20        2983.00           1649         181.00       788.16
 1330.24        2983.25           1652         176.00       766.36
 1330.29        2983.50           1656         165.00       718.41
 1330.33        2983.75           1659         174.00       757.64
 1330.36        2984.00           1663         180.00       783.80
HS scan finished at 22:10:43
end
