************************************************************
  HS Scan of (1) Internal mercury lamp
************************************************************
Integration time is 0.2294 seconds per sample
dh270619El Arenosillo 37.1 6.73 2.965129pr1000
************************************************************
Dead Time -------------------------  2.65E-08 
Number of Cycles Used -------------  4 
Starting Wavelength (Angstroms) ---  2950 
Final Wavelength (Angstoms) -------  2984 
Wavelength Increment (Angstroms) --  .25 
Filter Wheel #1 Position ---------- (1) Ground quartz diffuser (ND=2.32)
Filter Wheel #2 Position ---------- (1) Neutral Density 0.494



************************************************************
HS scan start time = 04:32:18
Dark Count =  .1 


Time (GMT)  Wavelength (Ang)  Step Number  Raw Counts  Counts/Second

  272.77        2950.00           1200         173.00       753.72
  272.89        2950.25           1203         190.00       827.83
  272.93        2950.50           1207         167.00       727.56
  272.97        2950.75           1210         188.00       819.11
  273.00        2951.00           1214         178.00       775.52
  273.04        2951.25           1217         182.00       792.95
  273.10        2951.50           1220         185.00       806.03
  273.13        2951.75           1224         173.00       753.72
  273.17        2952.00           1227         182.00       792.95
  273.20        2952.25           1231         170.00       740.64
  273.24        2952.50           1234         162.00       705.77
  273.30        2952.75           1237         163.00       710.13
  273.33        2953.00           1241         177.00       771.16
  273.37        2953.25           1244         176.00       766.80
  273.41        2953.50           1248         177.00       771.16
  273.44        2953.75           1251         174.00       758.08
  273.50        2954.00           1254         178.00       775.52
  273.54        2954.25           1258         167.00       727.56
  273.57        2954.50           1261         183.00       797.31
  273.61        2954.75           1264         162.00       705.77
  273.64        2955.00           1268         180.00       784.24
  273.70        2955.25           1271         168.00       731.92
  273.74        2955.50           1275         173.00       753.72
  273.77        2955.75           1278         182.00       792.95
  273.81        2956.00           1281         184.00       801.67
  273.85        2956.25           1285         170.00       740.64
  273.90        2956.50           1288         165.00       718.85
  273.94        2956.75           1292         181.00       788.60
  273.98        2957.00           1295         180.00       784.24
  274.01        2957.25           1298         171.00       745.00
  274.05        2957.50           1302         163.00       710.13
  274.09        2957.75           1305         170.00       740.64
  274.14        2958.00           1309         173.00       753.72
  274.18        2958.25           1312         182.00       792.95
  274.21        2958.50           1315         194.00       845.27
  274.25        2958.75           1319         176.00       766.80
  274.29        2959.00           1322         186.00       810.39
  274.34        2959.25           1326         176.00       766.80
  274.38        2959.50           1329         171.00       745.00
  274.42        2959.75           1332         171.00       745.00
  274.45        2960.00           1336         178.00       775.52
  274.49        2960.25           1339         174.00       758.08
  274.55        2960.50           1343         192.00       836.55
  274.58        2960.75           1346         214.00       932.46
  274.62        2961.00           1349         208.00       906.30
  274.65        2961.25           1353         232.00      1010.93
  274.69        2961.50           1356         270.00      1176.58
  274.75        2961.75           1360         404.00      1760.76
  274.78        2962.00           1363        1082.00      4716.81
  274.82        2962.25           1366        3397.00     14813.57
  274.86        2962.50           1370        8767.00     38255.42
  274.89        2962.75           1373       14361.00     62706.12
  274.95        2963.00           1377       24201.00    105792.70
  274.99        2963.25           1380       32019.00    140095.90
  275.02        2963.50           1383       40256.00    176305.20
  275.06        2963.75           1387       51223.00    224623.90
  275.10        2964.00           1390       59749.00    262273.80
  275.16        2964.25           1394       71016.00    312143.70
  275.19        2964.50           1397       80227.00    353011.90
  275.23        2964.75           1400       89042.00    392206.50
  275.27        2965.00           1404      101162.00    446230.40
  275.30        2965.25           1407      110579.00    488313.60
  275.36        2965.50           1411      122136.00    540089.50
  275.40        2965.75           1414      130579.00    578005.20
  275.44        2966.00           1417      139624.00    618709.80
  275.47        2966.25           1421      150166.00    666263.20
  275.51        2966.50           1424      157697.00    700308.70
  275.56        2966.75           1428      165180.00    734198.60
  275.60        2967.00           1431      169327.00    753006.60
  275.64        2967.25           1434      171723.00    763881.80
  275.68        2967.50           1438      174065.00    774518.10
  275.71        2967.75           1441      174159.00    774945.20
  275.75        2968.00           1445      174174.00    775013.30
  275.81        2968.25           1448      173061.00    769957.60
  275.84        2968.50           1451      169892.00    755570.50
  275.88        2968.75           1455      164179.00    729661.60
  275.92        2969.00           1458      157589.00    699820.00
  275.95        2969.25           1462      147831.00    655720.00
  276.01        2969.50           1465      139455.00    617948.50
  276.05        2969.75           1468      131638.00    582766.40
  276.09        2970.00           1472      120947.00    534756.10
  276.12        2970.25           1475      112700.00    497805.00
  276.16        2970.50           1479      101666.00    448480.30
  276.22        2970.75           1482       93546.00    412264.60
  276.25        2971.00           1485       84815.00    373401.60
  276.29        2971.25           1489       73658.00    323856.90
  276.33        2971.50           1492       64794.00    284587.60
  276.36        2971.75           1496       53308.00    233824.10
  276.42        2972.00           1499       44618.00    195508.60
  276.46        2972.25           1502       36082.00    157947.90
  276.49        2972.50           1506       24356.00    106472.20
  276.53        2972.75           1509       16798.00     73367.88
  276.57        2973.00           1513        9671.00     42204.55
  276.62        2973.25           1516        5805.00     25321.70
  276.66        2973.50           1519        3208.00     13989.06
  276.70        2973.75           1523        1325.00      5776.39
  276.73        2974.00           1526         594.00      2589.11
  276.77        2974.25           1530         290.00      1263.77
  276.83        2974.50           1533         238.00      1037.08
  276.86        2974.75           1536         213.00       928.10
  276.90        2975.00           1540         194.00       845.27
  276.93        2975.25           1543         166.00       723.20
  276.97        2975.50           1547         170.00       740.64
  277.02        2975.75           1550         174.00       758.08
  277.06        2976.00           1553         172.00       749.36
  277.10        2976.25           1557         171.00       745.00
  277.14        2976.50           1560         169.00       736.28
  277.17        2976.75           1564         173.00       753.72
  277.21        2977.00           1567         170.00       740.64
  277.26        2977.25           1571         156.00       679.61
  277.30        2977.50           1574         163.00       710.13
  277.34        2977.75           1577         175.00       762.44
  277.37        2978.00           1581         162.00       705.77
  277.41        2978.25           1584         167.00       727.56
  277.47        2978.50           1588         156.00       679.61
  277.50        2978.75           1591         163.00       710.13
  277.54        2979.00           1594         175.00       762.44
  277.57        2979.25           1598         169.00       736.28
  277.61        2979.50           1601         173.00       753.72
  277.67        2979.75           1605         158.00       688.33
  277.70        2980.00           1608         161.00       701.41
  277.74        2980.25           1611         166.00       723.20
  277.78        2980.50           1615         164.00       714.49
  277.81        2980.75           1618         159.00       692.69
  277.87        2981.00           1622         171.00       745.00
  277.91        2981.25           1625         151.00       657.81
  277.94        2981.50           1629         173.00       753.72
  277.98        2981.75           1632         170.00       740.64
  278.01        2982.00           1635         165.00       718.85
  278.07        2982.25           1639         155.00       675.25
  278.11        2982.50           1642         156.00       679.61
  278.14        2982.75           1646         165.00       718.85
  278.18        2983.00           1649         160.00       697.05
  278.22        2983.25           1652         157.00       683.97
  278.27        2983.50           1656         153.00       666.53
  278.31        2983.75           1659         148.00       644.74
  278.35        2984.00           1663         153.00       666.53
HS scan finished at 04:38:42
end
