************************************************************
  CZ Scan of (1) Internal mercury lamp
************************************************************
Integration time is 0.2294 seconds per sample
dh130619Madrid 40.45 3.717 3.233369pr940
************************************************************
Dead Time -------------------------  3.3E-08 
Number of Cycles Used -------------  4 
Starting Wavelength (Angstroms) ---  2950 
Final Wavelength (Angstoms) -------  2984 
Wavelength Increment (Angstroms) --  .25 
Filter Wheel #1 Position ---------- (1) Ground quartz diffuser (ND=2.32)
Filter Wheel #2 Position ---------- (1) Neutral Density 0.494



************************************************************
CZ scan start time = 09:52:10
Dark Count =  1.7 


Time (GMT)  Wavelength (Ang)  Step Number  Raw Counts  Counts/Second

  592.55        2950.00           1431         272.00      1178.34
  592.62        2950.25           1434         309.00      1339.64
  592.64        2950.50           1437         307.00      1330.92
  592.67        2950.75           1440         300.00      1300.40
  592.70        2951.00           1444         320.00      1387.60
  592.72        2951.25           1447         320.00      1387.60
  592.75        2951.50           1450         315.00      1365.80
  592.77        2951.75           1454         334.00      1448.63
  592.80        2952.00           1457         322.00      1396.32
  592.83        2952.25           1460         350.00      1518.38
  592.85        2952.50           1464         335.00      1452.99
  592.88        2952.75           1467         350.00      1518.38
  592.91        2953.00           1470         339.00      1470.43
  592.93        2953.25           1473         356.00      1544.54
  592.96        2953.50           1477         365.00      1583.78
  592.99        2953.75           1480         359.00      1557.62
  593.01        2954.00           1483         380.00      1649.17
  593.04        2954.25           1487         396.00      1718.93
  593.06        2954.50           1490         379.00      1644.81
  593.09        2954.75           1493         385.00      1670.97
  593.12        2955.00           1497         396.00      1718.93
  593.14        2955.25           1500         398.00      1727.65
  593.17        2955.50           1503         410.00      1779.97
  593.20        2955.75           1506         431.00      1871.52
  593.22        2956.00           1510         431.00      1871.52
  593.25        2956.25           1513         451.00      1958.71
  593.27        2956.50           1516         440.00      1910.76
  593.30        2956.75           1520         443.00      1923.84
  593.33        2957.00           1523         470.00      2041.55
  593.35        2957.25           1526         485.00      2106.95
  593.38        2957.50           1530         466.00      2024.11
  593.40        2957.75           1533         483.00      2098.23
  593.43        2958.00           1536         508.00      2207.22
  593.46        2958.25           1539         503.00      2185.42
  593.48        2958.50           1543         515.00      2237.74
  593.51        2958.75           1546         542.00      2355.46
  593.53        2959.00           1549         536.00      2329.30
  593.56        2959.25           1553         568.00      2468.81
  593.59        2959.50           1556         562.00      2442.66
  593.61        2959.75           1559         587.00      2551.65
  593.64        2960.00           1563         609.00      2647.57
  593.67        2960.25           1566         614.00      2669.37
  593.69        2960.50           1569         630.00      2739.13
  593.72        2960.75           1572         670.00      2913.53
  593.75        2961.00           1576        1061.00      4618.40
  593.77        2961.25           1579        3115.00     13577.57
  593.80        2961.50           1582        8113.00     35400.09
  593.83        2961.75           1586       17596.00     76891.91
  593.85        2962.00           1589       25793.00    112848.90
  593.88        2962.25           1592       33591.00    147135.10
  593.91        2962.50           1596       44203.00    193919.20
  593.93        2962.75           1599       52384.00    230085.20
  593.96        2963.00           1602       60400.00    265606.00
  593.99        2963.25           1606       71228.00    313720.70
  594.01        2963.50           1609       79201.00    349247.40
  594.04        2963.75           1612       87463.00    386150.60
  594.06        2964.00           1616       98692.00    436451.70
  594.09        2964.25           1619      106488.00    471473.60
  594.12        2964.50           1622      114158.00    506009.30
  594.14        2964.75           1625      122596.00    544095.00
  594.17        2965.00           1629      133311.00    592597.80
  594.20        2965.25           1632      141155.00    628204.30
  594.23        2965.50           1635      149059.00    664168.90
  594.25        2965.75           1639      159562.00    712093.40
  594.28        2966.00           1642      166924.00    745777.50
  594.30        2966.25           1645      172310.00    770468.60
  594.33        2966.50           1649      175729.00    786163.60
  594.36        2966.75           1652      176481.00    789617.80
  594.38        2967.00           1655      176568.00    790017.50
  594.41        2967.25           1659      176842.00    791276.30
  594.44        2967.50           1662      176215.00    788395.90
  594.46        2967.75           1665      173100.00    774093.60
  594.49        2968.00           1668      167577.00    748768.80
  594.52        2968.25           1672      157840.00    704225.50
  594.54        2968.50           1675      150010.00    668502.00
  594.57        2968.75           1678      142276.00    633299.70
  594.59        2969.00           1682      131391.00    583895.00
  594.62        2969.25           1685      123508.00    548217.10
  594.65        2969.50           1688      115160.00    510526.80
  594.67        2969.75           1692      104379.00    461991.30
  594.70        2970.00           1695       96483.00    426543.00
  594.73        2970.25           1698       88022.00    388650.70
  594.75        2970.50           1702       76924.00    339092.90
  594.78        2970.75           1705       68707.00    302504.80
  594.81        2971.00           1708       60770.00    267247.60
  594.83        2971.25           1712       49979.00    219444.40
  594.86        2971.50           1715       42063.00    184473.10
  594.89        2971.75           1718       34118.00    149455.00
  594.91        2972.00           1722       22946.00    100350.50
  594.94        2972.25           1725       15706.00     68613.34
  594.97        2972.50           1728        8816.00     38472.09
  594.99        2972.75           1732        3136.00     13669.20
  595.02        2973.00           1735        1411.00      6144.66
  595.05        2973.25           1738         845.00      3676.56
  595.07        2973.50           1741         699.00      3039.97
  595.10        2973.75           1745         666.00      2896.09
  595.13        2974.00           1748         686.00      2983.29
  595.15        2974.25           1751         632.00      2747.85
  595.18        2974.50           1755         618.00      2686.81
  595.20        2974.75           1758         599.00      2603.97
  595.23        2975.00           1761         604.00      2625.77
  595.26        2975.25           1765         584.00      2538.57
  595.28        2975.50           1768         582.00      2529.85
  595.31        2975.75           1771         552.00      2399.06
  595.34        2976.00           1775         539.00      2342.38
  595.36        2976.25           1778         528.00      2294.42
  595.39        2976.50           1781         520.00      2259.54
  595.42        2976.75           1785         500.00      2172.34
  595.44        2977.00           1788         499.00      2167.98
  595.47        2977.25           1791         495.00      2150.55
  595.49        2977.50           1795         485.00      2106.95
  595.52        2977.75           1798         456.00      1980.51
  595.55        2978.00           1801         456.00      1980.51
  595.57        2978.25           1805         448.00      1945.64
  595.60        2978.50           1808         468.00      2032.83
  595.63        2978.75           1811         446.00      1936.92
  595.65        2979.00           1815         430.00      1867.16
  595.68        2979.25           1818         422.00      1832.28
  595.71        2979.50           1821         406.00      1762.53
  595.73        2979.75           1825         406.00      1762.53
  595.76        2980.00           1828         389.00      1688.41
  595.79        2980.25           1831         399.00      1732.01
  595.81        2980.50           1835         387.00      1679.69
  595.84        2980.75           1838         351.00      1522.74
  595.87        2981.00           1841         366.00      1588.14
  595.90        2981.25           1845         376.00      1631.74
  595.93        2981.50           1848         372.00      1614.30
  595.95        2981.75           1851         350.00      1518.38
  595.98        2982.00           1854         352.00      1527.10
  596.01        2982.25           1858         342.00      1483.51
  596.03        2982.50           1861         345.00      1496.59
  596.06        2982.75           1864         346.00      1500.95
  596.09        2983.00           1868         346.00      1500.95
  596.11        2983.25           1871         322.00      1396.32
  596.14        2983.50           1874         310.00      1344.00
  596.16        2983.75           1878         323.00      1400.68
  596.19        2984.00           1881         297.00      1287.33
CZ scan finished at 09:56:18
end
