************************************************************
  HL Scan of (1) Internal mercury lamp
************************************************************
Integration time is 0.2294 seconds per sample
dh080619Madrid 40.45 3.717 2.696889pr940
************************************************************
Dead Time -------------------------  3.3E-08 
Number of Cycles Used -------------  4 
Starting Wavelength (Angstroms) ---  3331 
Final Wavelength (Angstoms) -------  3351 
Wavelength Increment (Angstroms) --  .25 
Filter Wheel #1 Position ---------- (1) Ground quartz diffuser (ND=2.32)
Filter Wheel #2 Position ---------- 



************************************************************
HL scan start time = 00:55:03
Dark Count =  .7 


Time (GMT)  Wavelength (Ang)  Step Number  Raw Counts  Counts/Second

   55.60        3331.00           6770         131.00       568.01
   55.82        3331.25           6773         129.00       559.30
   55.85        3331.50           6777         135.00       585.45
   55.87        3331.75           6781         140.00       607.25
   55.90        3332.00           6784         134.00       581.09
   55.93        3332.25           6788         141.00       611.61
   55.95        3332.50           6792         132.00       572.37
   55.98        3332.75           6796         139.00       602.89
   56.01        3333.00           6799         137.00       594.17
   56.03        3333.25           6803         133.00       576.73
   56.06        3333.50           6807         140.00       607.25
   56.08        3333.75           6810         150.00       650.84
   56.11        3334.00           6814         140.00       607.25
   56.13        3334.25           6818         136.00       589.81
   56.16        3334.50           6822         149.00       646.48
   56.19        3334.75           6825         141.00       611.61
   56.21        3335.00           6829         149.00       646.48
   56.24        3335.25           6833         136.00       589.81
   56.27        3335.50           6837         142.00       615.97
   56.29        3335.75           6840         143.00       620.33
   56.32        3336.00           6844         161.00       698.80
   56.35        3336.25           6848         209.00       908.05
   56.37        3336.50           6851         245.00      1064.99
   56.40        3336.75           6855         345.00      1500.95
   56.43        3337.00           6859         477.00      2076.43
   56.45        3337.25           6863         643.00      2800.17
   56.48        3337.50           6866         714.00      3109.74
   56.50        3337.75           6870         859.00      3741.96
   56.53        3338.00           6874         981.00      4273.92
   56.56        3338.25           6877        1072.00      4670.73
   56.58        3338.50           6881        1229.00      5355.35
   56.61        3338.75           6885        1301.00      5669.33
   56.64        3339.00           6889        1476.00      6432.49
   56.66        3339.25           6892        1543.00      6724.68
   56.69        3339.50           6896        1688.00      7357.06
   56.72        3339.75           6900        1847.00      8050.53
   56.74        3340.00           6904        1958.00      8534.66
   56.77        3340.25           6907        2020.00      8805.09
   56.80        3340.50           6911        2145.00      9350.31
   56.82        3340.75           6915        2275.00      9917.37
   56.85        3341.00           6918        2357.00     10275.06
   56.88        3341.25           6922        2452.00     10689.47
   56.90        3341.50           6926        2439.00     10632.76
   56.93        3341.75           6930        2392.00     10427.74
   56.96        3342.00           6933        2385.00     10397.20
   56.98        3342.25           6937        2319.00     10109.30
   57.01        3342.50           6941        2176.00      9485.53
   57.03        3342.75           6945        2072.00      9031.90
   57.06        3343.00           6948        1988.00      8665.51
   57.09        3343.25           6952        1829.00      7972.02
   57.11        3343.50           6956        1676.00      7304.73
   57.14        3343.75           6959        1577.00      6872.96
   57.17        3344.00           6963        1470.00      6406.32
   57.19        3344.25           6967        1357.00      5913.53
   57.22        3344.50           6971        1239.00      5398.96
   57.24        3344.75           6974        1106.00      4818.99
   57.27        3345.00           6978        1007.00      4387.30
   57.30        3345.25           6982         858.00      3737.60
   57.32        3345.50           6986         749.00      3262.34
   57.35        3345.75           6989         659.00      2869.93
   57.38        3346.00           6993         543.00      2364.18
   57.40        3346.25           6997         383.00      1666.61
   57.43        3346.50           7001         291.00      1265.53
   57.46        3346.75           7004         241.00      1047.55
   57.48        3347.00           7008         183.00       794.70
   57.51        3347.25           7012         153.00       663.92
   57.54        3347.50           7015         149.00       646.48
   57.56        3347.75           7019         155.00       672.64
   57.59        3348.00           7023         138.00       598.53
   57.61        3348.25           7027         146.00       633.40
   57.64        3348.50           7030         146.00       633.40
   57.67        3348.75           7034         147.00       637.76
   57.69        3349.00           7038         164.00       711.87
   57.72        3349.25           7042         154.00       668.28
   57.75        3349.50           7045         148.00       642.12
   57.77        3349.75           7049         159.00       690.08
   57.80        3350.00           7053         143.00       620.33
   57.83        3350.25           7057         151.00       655.20
   57.85        3350.50           7060         140.00       607.25
   57.88        3350.75           7064         148.00       642.12
   57.91        3351.00           7068         148.00       642.12
HL scan finished at 00:58:14
end
