************************************************************
  HL Scan of (1) Internal mercury lamp
************************************************************
Integration time is 0.2294 seconds per sample
dh300517Arenosillo 37.1 6.73 3.233369pr1000
************************************************************
Dead Time -------------------------  3.3E-08 
Number of Cycles Used -------------  4 
Starting Wavelength (Angstroms) ---  3331 
Final Wavelength (Angstoms) -------  3351 
Wavelength Increment (Angstroms) --  .25 
Filter Wheel #1 Position ---------- (1) Ground quartz diffuser (ND=2.32)
Filter Wheel #2 Position ---------- 



************************************************************
HL scan start time = 20:24:40
Dark Count =  .5 


Time (GMT)  Wavelength (Ang)  Step Number  Raw Counts  Counts/Second

 1225.08        3331.00           6770          80.00       346.56
 1225.30        3331.25           6773          82.00       355.28
 1225.33        3331.50           6777          79.00       342.20
 1225.35        3331.75           6781          86.00       372.72
 1225.38        3332.00           6784          84.00       364.00
 1225.40        3332.25           6788          78.00       337.84
 1225.43        3332.50           6792          78.00       337.84
 1225.46        3332.75           6796          78.00       337.84
 1225.48        3333.00           6799          79.00       342.20
 1225.51        3333.25           6803          81.00       350.92
 1225.53        3333.50           6807          82.00       355.28
 1225.56        3333.75           6810          75.00       324.76
 1225.59        3334.00           6814          82.00       355.28
 1225.61        3334.25           6818          85.00       368.36
 1225.64        3334.50           6822          80.00       346.56
 1225.66        3334.75           6825          80.00       346.56
 1225.69        3335.00           6829          91.00       394.51
 1225.72        3335.25           6833          87.00       377.08
 1225.74        3335.50           6837         104.00       451.18
 1225.77        3335.75           6840         102.00       442.47
 1225.79        3336.00           6844         141.00       612.48
 1225.82        3336.25           6848         188.00       817.37
 1225.85        3336.50           6851         235.00      1022.27
 1225.88        3336.75           6855         287.00      1248.96
 1225.91        3337.00           6859         351.00      1527.98
 1225.93        3337.25           6863         455.00      1981.39
 1225.96        3337.50           6866         497.00      2164.50
 1225.98        3337.75           6870         561.00      2443.53
 1226.01        3338.00           6874         628.00      2735.64
 1226.04        3338.25           6877         686.00      2988.53
 1226.06        3338.50           6881         762.00      3319.89
 1226.09        3338.75           6885         850.00      3703.59
 1226.12        3339.00           6889         902.00      3930.33
 1226.14        3339.25           6892         946.00      4122.18
 1226.17        3339.50           6896         999.00      4353.28
 1226.19        3339.75           6900        1090.00      4750.09
 1226.22        3340.00           6904        1174.00      5116.38
 1226.25        3340.25           6907        1231.00      5364.94
 1226.27        3340.50           6911        1239.00      5399.83
 1226.30        3340.75           6915        1314.00      5726.89
 1226.33        3341.00           6918        1320.00      5753.05
 1226.35        3341.25           6922        1324.00      5770.50
 1226.38        3341.50           6926        1295.00      5644.03
 1226.40        3341.75           6930        1247.00      5434.72
 1226.43        3342.00           6933        1195.00      5207.96
 1226.46        3342.25           6937        1134.00      4941.96
 1226.48        3342.50           6941        1062.00      4628.00
 1226.51        3342.75           6945         982.00      4279.16
 1226.53        3343.00           6948         963.00      4196.31
 1226.56        3343.25           6952         867.00      3777.72
 1226.59        3343.50           6956         827.00      3603.31
 1226.61        3343.75           6959         741.00      3228.33
 1226.64        3344.00           6963         677.00      2949.28
 1226.67        3344.25           6967         595.00      2591.76
 1226.69        3344.50           6971         556.00      2421.73
 1226.72        3344.75           6974         480.00      2090.38
 1226.74        3345.00           6978         403.00      1754.68
 1226.77        3345.25           6982         369.00      1606.45
 1226.80        3345.50           6986         300.00      1305.64
 1226.82        3345.75           6989         230.00      1000.47
 1226.85        3346.00           6993         180.00       782.50
 1226.87        3346.25           6997         140.00       608.12
 1226.90        3346.50           7001         113.00       490.42
 1226.93        3346.75           7004          92.00       398.87
 1226.95        3347.00           7008          91.00       394.51
 1226.98        3347.25           7012          88.00       381.43
 1227.01        3347.50           7015          89.00       385.79
 1227.03        3347.75           7019          92.00       398.87
 1227.06        3348.00           7023          87.00       377.08
 1227.08        3348.25           7027          91.00       394.51
 1227.11        3348.50           7030          97.00       420.67
 1227.14        3348.75           7034          79.00       342.20
 1227.16        3349.00           7038          84.00       364.00
 1227.19        3349.25           7042          88.00       381.43
 1227.21        3349.50           7045          85.00       368.36
 1227.24        3349.75           7049          84.00       364.00
 1227.27        3350.00           7053          86.00       372.72
 1227.29        3350.25           7057          89.00       385.79
 1227.32        3350.50           7060          85.00       368.36
 1227.34        3350.75           7064          84.00       364.00
 1227.37        3351.00           7068          92.00       398.87
HL scan finished at 20:27:42
end
