************************************************************
  HL Scan of (1) Internal mercury lamp
************************************************************
Integration time is 0.2294 seconds per sample
dh010617Arenosillo 37.1 6.73 3.179721pr1000
************************************************************
Dead Time -------------------------  3.3E-08 
Number of Cycles Used -------------  4 
Starting Wavelength (Angstroms) ---  3331 
Final Wavelength (Angstoms) -------  3351 
Wavelength Increment (Angstroms) --  .25 
Filter Wheel #1 Position ---------- (1) Ground quartz diffuser (ND=2.32)
Filter Wheel #2 Position ---------- 



************************************************************
HL scan start time = 01:03:39
Dark Count =  .3 


Time (GMT)  Wavelength (Ang)  Step Number  Raw Counts  Counts/Second

   64.04        3331.00           6770         123.00       534.88
   64.26        3331.25           6773         125.00       543.60
   64.29        3331.50           6777         109.00       473.85
   64.31        3331.75           6781         122.00       530.52
   64.34        3332.00           6784         113.00       491.29
   64.37        3332.25           6788         114.00       495.65
   64.39        3332.50           6792         113.00       491.29
   64.42        3332.75           6796         115.00       500.01
   64.44        3333.00           6799         101.00       438.98
   64.47        3333.25           6803         104.00       452.06
   64.50        3333.50           6807         104.00       452.06
   64.52        3333.75           6810         106.00       460.77
   64.55        3334.00           6814          99.00       430.26
   64.58        3334.25           6818          92.00       399.74
   64.60        3334.50           6822          92.00       399.74
   64.63        3334.75           6825          94.00       408.46
   64.65        3335.00           6829          89.00       386.67
   64.68        3335.25           6833          89.00       386.67
   64.71        3335.50           6837          88.00       382.31
   64.73        3335.75           6840          91.00       395.38
   64.77        3336.00           6844          75.00       325.64
   64.79        3336.25           6848          80.00       347.43
   64.82        3336.50           6851          79.00       343.07
   64.85        3336.75           6855          75.00       325.64
   64.87        3337.00           6859          66.00       286.40
   64.90        3337.25           6863          71.00       308.20
   64.93        3337.50           6866          71.00       308.20
   64.95        3337.75           6870          67.00       290.76
   64.98        3338.00           6874          64.00       277.68
   65.00        3338.25           6877          64.00       277.68
   65.03        3338.50           6881          67.00       290.76
   65.06        3338.75           6885          60.00       260.25
   65.08        3339.00           6889          65.00       282.04
   65.11        3339.25           6892          64.00       277.68
   65.13        3339.50           6896          58.00       251.53
   65.16        3339.75           6900          55.00       238.45
   65.19        3340.00           6904          62.00       268.96
   65.21        3340.25           6907          58.00       251.53
   65.24        3340.50           6911          60.00       260.25
   65.27        3340.75           6915          52.00       225.37
   65.30        3341.00           6918          64.00       277.68
   65.33        3341.25           6922          60.00       260.25
   65.35        3341.50           6926          64.00       277.68
   65.38        3341.75           6930          65.00       282.04
   65.40        3342.00           6933          61.00       264.61
   65.43        3342.25           6937          56.00       242.81
   65.46        3342.50           6941          65.00       282.04
   65.48        3342.75           6945          67.00       290.76
   65.51        3343.00           6948          58.00       251.53
   65.54        3343.25           6952          60.00       260.25
   65.56        3343.50           6956          64.00       277.68
   65.59        3343.75           6959          61.00       264.61
   65.61        3344.00           6963          59.00       255.89
   65.64        3344.25           6967          56.00       242.81
   65.67        3344.50           6971          64.00       277.68
   65.69        3344.75           6974          60.00       260.25
   65.72        3345.00           6978          58.00       251.53
   65.74        3345.25           6982          56.00       242.81
   65.77        3345.50           6986          65.00       282.04
   65.80        3345.75           6989          61.00       264.61
   65.82        3346.00           6993          63.00       273.32
   65.85        3346.25           6997          63.00       273.32
   65.87        3346.50           7001          64.00       277.68
   65.90        3346.75           7004          67.00       290.76
   65.93        3347.00           7008          63.00       273.32
   65.95        3347.25           7012          61.00       264.61
   65.98        3347.50           7015          61.00       264.61
   66.00        3347.75           7019          65.00       282.04
   66.03        3348.00           7023          60.00       260.25
   66.06        3348.25           7027          60.00       260.25
   66.08        3348.50           7030          60.00       260.25
   66.11        3348.75           7034          57.00       247.17
   66.14        3349.00           7038          57.00       247.17
   66.16        3349.25           7042          61.00       264.61
   66.19        3349.50           7045          60.00       260.25
   66.21        3349.75           7049          60.00       260.25
   66.24        3350.00           7053          55.00       238.45
   66.27        3350.25           7057          64.00       277.68
   66.29        3350.50           7060          55.00       238.45
   66.32        3350.75           7064          64.00       277.68
   66.35        3351.00           7068          60.00       260.25
HL scan finished at 01:06:41
end
************************************************************
  HL Scan of (1) Internal mercury lamp
************************************************************
Integration time is 0.2294 seconds per sample
dh010617Arenosillo 37.1 6.73 3.179721pr1000
************************************************************
Dead Time -------------------------  3.3E-08 
Number of Cycles Used -------------  4 
Starting Wavelength (Angstroms) ---  3331 
Final Wavelength (Angstoms) -------  3351 
Wavelength Increment (Angstroms) --  .25 
Filter Wheel #1 Position ---------- (1) Ground quartz diffuser (ND=2.32)
Filter Wheel #2 Position ---------- 



************************************************************
HL scan start time = 02:05:55
Dark Count =  1.6 


Time (GMT)  Wavelength (Ang)  Step Number  Raw Counts  Counts/Second

  126.36        3331.00           6770          85.00       363.56
  126.58        3331.25           6773          79.00       337.41
  126.61        3331.50           6777          77.00       328.69
  126.63        3331.75           6781          78.00       333.05
  126.66        3332.00           6784          75.00       319.97
  126.68        3332.25           6788          78.00       333.05
  126.71        3332.50           6792          78.00       333.05
  126.74        3332.75           6796          83.00       354.84
  126.76        3333.00           6799          76.00       324.33
  126.79        3333.25           6803          80.00       341.77
  126.82        3333.50           6807          79.00       337.41
  126.84        3333.75           6810          79.00       337.41
  126.87        3334.00           6814          83.00       354.84
  126.89        3334.25           6818          87.00       372.28
  126.92        3334.50           6822          69.00       293.81
  126.95        3334.75           6825          74.00       315.61
  126.97        3335.00           6829          84.00       359.20
  127.00        3335.25           6833          80.00       341.77
  127.02        3335.50           6837          85.00       363.56
  127.05        3335.75           6840          72.00       306.89
  127.08        3336.00           6844          94.00       402.80
  127.10        3336.25           6848          90.00       385.36
  127.13        3336.50           6851         111.00       476.90
  127.15        3336.75           6855         133.00       572.81
  127.18        3337.00           6859         183.00       790.78
  127.21        3337.25           6863         248.00      1074.14
  127.23        3337.50           6866         286.00      1239.81
  127.26        3337.75           6870         377.00      1636.53
  127.29        3338.00           6874         464.00      2015.83
  127.32        3338.25           6877         486.00      2111.74
  127.35        3338.50           6881         562.00      2443.09
  127.37        3338.75           6885         661.00      2874.73
  127.40        3339.00           6889         689.00      2996.81
  127.43        3339.25           6892         772.00      3358.70
  127.45        3339.50           6896         847.00      3685.71
  127.48        3339.75           6900         890.00      3873.21
  127.50        3340.00           6904         959.00      4174.07
  127.53        3340.25           6907        1006.00      4379.01
  127.56        3340.50           6911        1095.00      4767.10
  127.58        3340.75           6915        1164.00      5067.98
  127.61        3341.00           6918        1240.00      5399.39
  127.64        3341.25           6922        1253.00      5456.08
  127.66        3341.50           6926        1292.00      5626.15
  127.69        3341.75           6930        1304.00      5678.48
  127.71        3342.00           6933        1291.00      5621.79
  127.74        3342.25           6937        1258.00      5477.89
  127.77        3342.50           6941        1252.00      5451.72
  127.79        3342.75           6945        1185.00      5159.55
  127.82        3343.00           6948        1142.00      4972.05
  127.85        3343.25           6952        1036.00      4509.83
  127.87        3343.50           6956         998.00      4344.13
  127.90        3343.75           6959         941.00      4095.58
  127.93        3344.00           6963         850.00      3698.80
  127.95        3344.25           6967         795.00      3458.98
  127.98        3344.50           6971         760.00      3306.38
  128.01        3344.75           6974         699.00      3040.41
  128.03        3345.00           6978         612.00      2661.09
  128.06        3345.25           6982         545.00      2368.97
  128.08        3345.50           6986         478.00      2076.86
  128.11        3345.75           6989         432.00      1876.32
  128.14        3346.00           6993         365.00      1584.22
  128.16        3346.25           6997         290.00      1257.24
  128.19        3346.50           7001         237.00      1026.19
  128.21        3346.75           7004         202.00       873.61
  128.24        3347.00           7008         143.00       616.40
  128.27        3347.25           7012         111.00       476.90
  128.29        3347.50           7015         107.00       459.47
  128.32        3347.75           7019          97.00       415.87
  128.34        3348.00           7023          85.00       363.56
  128.37        3348.25           7027          88.00       376.64
  128.40        3348.50           7030          83.00       354.84
  128.42        3348.75           7034          87.00       372.28
  128.45        3349.00           7038          82.00       350.48
  128.48        3349.25           7042          85.00       363.56
  128.50        3349.50           7045          81.00       346.12
  128.53        3349.75           7049          83.00       354.84
  128.55        3350.00           7053          84.00       359.20
  128.58        3350.25           7057          88.00       376.64
  128.61        3350.50           7060          79.00       337.41
  128.63        3350.75           7064          79.00       337.41
  128.66        3351.00           7068          98.00       420.23
HL scan finished at 02:08:59
end
************************************************************
  HL Scan of (1) Internal mercury lamp
************************************************************
Integration time is 0.2294 seconds per sample
dh010617Arenosillo 37.1 6.73 3.179721pr1000
************************************************************
Dead Time -------------------------  3.3E-08 
Number of Cycles Used -------------  4 
Starting Wavelength (Angstroms) ---  3331 
Final Wavelength (Angstoms) -------  3351 
Wavelength Increment (Angstroms) --  .25 
Filter Wheel #1 Position ---------- (1) Ground quartz diffuser (ND=2.32)
Filter Wheel #2 Position ---------- 



************************************************************
HL scan start time = 03:18:52
Dark Count =  1.6 


Time (GMT)  Wavelength (Ang)  Step Number  Raw Counts  Counts/Second

  199.30        3331.00           6770          83.00       354.84
  199.53        3331.25           6773          76.00       324.33
  199.55        3331.50           6777          83.00       354.84
  199.58        3331.75           6781          75.00       319.97
  199.61        3332.00           6784          72.00       306.89
  199.63        3332.25           6788          83.00       354.84
  199.66        3332.50           6792          79.00       337.41
  199.68        3332.75           6796          87.00       372.28
  199.71        3333.00           6799          76.00       324.33
  199.74        3333.25           6803          86.00       367.92
  199.76        3333.50           6807          77.00       328.69
  199.79        3333.75           6810          79.00       337.41
  199.81        3334.00           6814          78.00       333.05
  199.84        3334.25           6818          84.00       359.20
  199.87        3334.50           6822          91.00       389.72
  199.89        3334.75           6825          76.00       324.33
  199.92        3335.00           6829          81.00       346.12
  199.94        3335.25           6833          84.00       359.20
  199.97        3335.50           6837          94.00       402.80
  200.00        3335.75           6840          90.00       385.36
  200.02        3336.00           6844          78.00       333.05
  200.05        3336.25           6848          95.00       407.15
  200.08        3336.50           6851         114.00       489.98
  200.11        3336.75           6855         162.00       699.23
  200.13        3337.00           6859         205.00       886.69
  200.16        3337.25           6863         256.00      1109.02
  200.18        3337.50           6866         315.00      1366.23
  200.21        3337.75           6870         400.00      1736.80
  200.24        3338.00           6874         459.00      1994.03
  200.26        3338.25           6877         506.00      2198.94
  200.29        3338.50           6881         601.00      2613.13
  200.32        3338.75           6885         684.00      2975.01
  200.34        3339.00           6889         695.00      3022.97
  200.37        3339.25           6892         776.00      3376.14
  200.39        3339.50           6896         825.00      3589.79
  200.42        3339.75           6900         933.00      4060.70
  200.45        3340.00           6904         987.00      4296.16
  200.47        3340.25           6907        1055.00      4592.68
  200.50        3340.50           6911        1113.00      4845.59
  200.52        3340.75           6915        1143.00      4976.41
  200.55        3341.00           6918        1231.00      5360.15
  200.58        3341.25           6922        1280.00      5573.82
  200.60        3341.50           6926        1288.00      5608.71
  200.63        3341.75           6930        1316.00      5730.81
  200.66        3342.00           6933        1349.00      5874.72
  200.68        3342.25           6937        1258.00      5477.89
  200.71        3342.50           6941        1212.00      5277.29
  200.73        3342.75           6945        1193.00      5194.44
  200.76        3343.00           6948        1133.00      4932.80
  200.79        3343.25           6952        1057.00      4601.40
  200.81        3343.50           6956         996.00      4335.41
  200.84        3343.75           6959         945.00      4113.03
  200.86        3344.00           6963         852.00      3707.52
  200.89        3344.25           6967         803.00      3493.86
  200.92        3344.50           6971         714.00      3105.81
  200.94        3344.75           6974         676.00      2940.13
  200.97        3345.00           6978         595.00      2586.97
  201.00        3345.25           6982         546.00      2373.33
  201.02        3345.50           6986         454.00      1972.23
  201.05        3345.75           6989         403.00      1749.88
  201.07        3346.00           6993         342.00      1483.94
  201.10        3346.25           6997         269.00      1165.69
  201.13        3346.50           7001         223.00       965.16
  201.15        3346.75           7004         177.00       764.62
  201.18        3347.00           7008         137.00       590.25
  201.20        3347.25           7012         110.00       472.54
  201.23        3347.50           7015          96.00       411.51
  201.26        3347.75           7019          88.00       376.64
  201.28        3348.00           7023          81.00       346.12
  201.31        3348.25           7027          83.00       354.84
  201.34        3348.50           7030          83.00       354.84
  201.36        3348.75           7034          89.00       381.00
  201.39        3349.00           7038          88.00       376.64
  201.41        3349.25           7042          87.00       372.28
  201.44        3349.50           7045          85.00       363.56
  201.47        3349.75           7049          83.00       354.84
  201.49        3350.00           7053          74.00       315.61
  201.52        3350.25           7057          85.00       363.56
  201.54        3350.50           7060          89.00       381.00
  201.57        3350.75           7064          83.00       354.84
  201.60        3351.00           7068          88.00       376.64
HL scan finished at 03:21:55
end
************************************************************
  HL Scan of (1) Internal mercury lamp
************************************************************
Integration time is 0.2294 seconds per sample
dh010617Arenosillo 37.1 6.73 3.179721pr1000
************************************************************
Dead Time -------------------------  3.3E-08 
Number of Cycles Used -------------  4 
Starting Wavelength (Angstroms) ---  3331 
Final Wavelength (Angstoms) -------  3351 
Wavelength Increment (Angstroms) --  .25 
Filter Wheel #1 Position ---------- (1) Ground quartz diffuser (ND=2.32)
Filter Wheel #2 Position ---------- 



************************************************************
HL scan start time = 04:30:44
Dark Count =  0 


Time (GMT)  Wavelength (Ang)  Step Number  Raw Counts  Counts/Second

  271.12        3331.00           6770          77.00       335.66
  271.34        3331.25           6773          80.00       348.74
  271.37        3331.50           6777          70.00       305.15
  271.39        3331.75           6781          80.00       348.74
  271.42        3332.00           6784          74.00       322.58
  271.44        3332.25           6788          75.00       326.94
  271.47        3332.50           6792          91.00       396.69
  271.50        3332.75           6796          82.00       357.46
  271.52        3333.00           6799          76.00       331.30
  271.55        3333.25           6803          78.00       340.02
  271.57        3333.50           6807          88.00       383.61
  271.60        3333.75           6810          84.00       366.18
  271.63        3334.00           6814          87.00       379.25
  271.65        3334.25           6818          82.00       357.46
  271.68        3334.50           6822          82.00       357.46
  271.70        3334.75           6825          78.00       340.02
  271.73        3335.00           6829          89.00       387.97
  271.76        3335.25           6833          84.00       366.18
  271.78        3335.50           6837          81.00       353.10
  271.81        3335.75           6840          74.00       322.58
  271.83        3336.00           6844          83.00       361.82
  271.86        3336.25           6848         101.00       440.29
  271.89        3336.50           6851         124.00       540.55
  271.91        3336.75           6855         155.00       675.69
  271.94        3337.00           6859         203.00       884.94
  271.96        3337.25           6863         256.00      1116.00
  271.99        3337.50           6866         292.00      1272.94
  272.02        3337.75           6870         391.00      1704.54
  272.04        3338.00           6874         451.00      1966.13
  272.07        3338.25           6877         509.00      2218.99
  272.10        3338.50           6881         587.00      2559.07
  272.12        3338.75           6885         649.00      2829.38
  272.15        3339.00           6889         715.00      3117.15
  272.17        3339.25           6892         776.00      3383.12
  272.20        3339.50           6896         851.00      3710.13
  272.23        3339.75           6900         932.00      4063.32
  272.25        3340.00           6904         968.00      4220.29
  272.28        3340.25           6907        1072.00      4673.78
  272.31        3340.50           6911        1079.00      4704.30
  272.34        3340.75           6915        1207.00      5262.47
  272.37        3341.00           6918        1218.00      5310.43
  272.39        3341.25           6922        1256.00      5476.14
  272.42        3341.50           6926        1312.00      5720.35
  272.45        3341.75           6930        1312.00      5720.35
  272.47        3342.00           6933        1319.00      5750.87
  272.50        3342.25           6937        1291.00      5628.77
  272.52        3342.50           6941        1213.00      5288.63
  272.55        3342.75           6945        1142.00      4979.02
  272.58        3343.00           6948        1123.00      4896.17
  272.60        3343.25           6952        1062.00      4630.18
  272.63        3343.50           6956         983.00      4285.70
  272.66        3343.75           6959         943.00      4111.28
  272.68        3344.00           6963         876.00      3819.14
  272.71        3344.25           6967         792.00      3452.88
  272.73        3344.50           6971         729.00      3178.19
  272.77        3344.75           6974         692.00      3016.87
  272.80        3345.00           6978         584.00      2545.99
  272.82        3345.25           6982         538.00      2345.43
  272.85        3345.50           6986         458.00      1996.64
  272.87        3345.75           6989         400.00      1743.78
  272.90        3346.00           6993         334.00      1456.04
  272.93        3346.25           6997         271.00      1181.39
  272.95        3346.50           7001         223.00       972.13
  272.98        3346.75           7004         175.00       762.88
  273.01        3347.00           7008         138.00       601.58
  273.03        3347.25           7012         103.00       449.00
  273.06        3347.50           7015          99.00       431.57
  273.08        3347.75           7019          86.00       374.90
  273.11        3348.00           7023          84.00       366.18
  273.14        3348.25           7027          85.00       370.54
  273.16        3348.50           7030          85.00       370.54
  273.19        3348.75           7034          92.00       401.05
  273.21        3349.00           7038          86.00       374.90
  273.24        3349.25           7042          89.00       387.97
  273.27        3349.50           7045          86.00       374.90
  273.29        3349.75           7049          87.00       379.25
  273.32        3350.00           7053          77.00       335.66
  273.34        3350.25           7057          77.00       335.66
  273.37        3350.50           7060          83.00       361.82
  273.40        3350.75           7064          79.00       344.38
  273.42        3351.00           7068          85.00       370.54
HL scan finished at 04:33:45
end
