************************************************************
  HL Scan of (1) Internal mercury lamp
************************************************************
Integration time is 0.2294 seconds per sample
dh310517Arenosillo 37.1 6.73 3.126073pr1000
************************************************************
Dead Time -------------------------  3.3E-08 
Number of Cycles Used -------------  4 
Starting Wavelength (Angstroms) ---  3331 
Final Wavelength (Angstoms) -------  3351 
Wavelength Increment (Angstroms) --  .25 
Filter Wheel #1 Position ---------- (1) Ground quartz diffuser (ND=2.32)
Filter Wheel #2 Position ---------- 



************************************************************
HL scan start time = 02:20:18
Dark Count =  .7 


Time (GMT)  Wavelength (Ang)  Step Number  Raw Counts  Counts/Second

  140.70        3331.00           6770          93.00       402.36
  140.93        3331.25           6773          89.00       384.92
  140.95        3331.50           6777         101.00       437.23
  140.98        3331.75           6781          91.00       393.64
  141.01        3332.00           6784          89.00       384.92
  141.03        3332.25           6788          95.00       411.08
  141.06        3332.50           6792          89.00       384.92
  141.08        3332.75           6796         101.00       437.23
  141.11        3333.00           6799          95.00       411.08
  141.14        3333.25           6803          97.00       419.80
  141.17        3333.50           6807          99.00       428.52
  141.19        3333.75           6810          98.00       424.16
  141.22        3334.00           6814          85.00       367.48
  141.25        3334.25           6818          93.00       402.36
  141.27        3334.50           6822          86.00       371.84
  141.30        3334.75           6825          98.00       424.16
  141.32        3335.00           6829          95.00       411.08
  141.35        3335.25           6833          95.00       411.08
  141.38        3335.50           6837          90.00       389.28
  141.40        3335.75           6840          93.00       402.36
  141.43        3336.00           6844         106.00       459.03
  141.45        3336.25           6848         124.00       537.50
  141.48        3336.50           6851         141.00       611.61
  141.51        3336.75           6855         192.00       833.94
  141.53        3337.00           6859         272.00      1182.70
  141.56        3337.25           6863         358.00      1557.62
  141.59        3337.50           6866         429.00      1867.16
  141.61        3337.75           6870         504.00      2194.14
  141.64        3338.00           6874         599.00      2608.33
  141.66        3338.25           6877         656.00      2856.85
  141.69        3338.50           6881         736.00      3205.66
  141.72        3338.75           6885         821.00      3576.27
  141.74        3339.00           6889         894.00      3894.57
  141.77        3339.25           6892         939.00      4090.79
  141.79        3339.50           6896        1043.00      4544.27
  141.82        3339.75           6900        1112.00      4845.15
  141.85        3340.00           6904        1226.00      5342.27
  141.87        3340.25           6907        1301.00      5669.33
  141.90        3340.50           6911        1337.00      5826.32
  141.93        3340.75           6915        1420.00      6188.27
  141.95        3341.00           6918        1450.00      6319.10
  141.98        3341.25           6922        1533.00      6681.07
  142.00        3341.50           6926        1549.00      6750.85
  142.03        3341.75           6930        1548.00      6746.49
  142.06        3342.00           6933        1575.00      6864.24
  142.08        3342.25           6937        1544.00      6729.04
  142.11        3342.50           6941        1444.00      6292.94
  142.14        3342.75           6945        1423.00      6201.36
  142.16        3343.00           6948        1327.00      5782.71
  142.19        3343.25           6952        1257.00      5477.45
  142.21        3343.50           6956        1196.00      5211.45
  142.24        3343.75           6959        1080.00      4705.61
  142.27        3344.00           6963        1023.00      4457.06
  142.29        3344.25           6967         945.00      4116.95
  142.32        3344.50           6971         846.00      3685.28
  142.34        3344.75           6974         776.00      3380.06
  142.37        3345.00           6978         713.00      3105.38
  142.40        3345.25           6982         626.00      2726.05
  142.42        3345.50           6986         524.00      2281.34
  142.45        3345.75           6989         482.00      2098.23
  142.48        3346.00           6993         406.00      1766.89
  142.50        3346.25           6997         309.00      1344.00
  142.53        3346.50           7001         248.00      1078.07
  142.55        3346.75           7004         205.00       890.61
  142.58        3347.00           7008         157.00       681.36
  142.61        3347.25           7012         112.00       485.19
  142.63        3347.50           7015         108.00       467.75
  142.66        3347.75           7019         101.00       437.23
  142.68        3348.00           7023          95.00       411.08
  142.71        3348.25           7027          89.00       384.92
  142.74        3348.50           7030         101.00       437.23
  142.76        3348.75           7034         102.00       441.59
  142.79        3349.00           7038         100.00       432.87
  142.81        3349.25           7042         101.00       437.23
  142.84        3349.50           7045         102.00       441.59
  142.87        3349.75           7049          97.00       419.80
  142.89        3350.00           7053         102.00       441.59
  142.92        3350.25           7057          97.00       419.80
  142.95        3350.50           7060          94.00       406.72
  142.97        3350.75           7064         102.00       441.59
  143.00        3351.00           7068          93.00       402.36
HL scan finished at 02:23:19
end
************************************************************
  HL Scan of (1) Internal mercury lamp
************************************************************
Integration time is 0.2294 seconds per sample
dh310517Arenosillo 37.1 6.73 3.126073pr1000
************************************************************
Dead Time -------------------------  3.3E-08 
Number of Cycles Used -------------  4 
Starting Wavelength (Angstroms) ---  3331 
Final Wavelength (Angstoms) -------  3351 
Wavelength Increment (Angstroms) --  .25 
Filter Wheel #1 Position ---------- (1) Ground quartz diffuser (ND=2.32)
Filter Wheel #2 Position ---------- 



************************************************************
HL scan start time = 04:52:05
Dark Count =  .3 


Time (GMT)  Wavelength (Ang)  Step Number  Raw Counts  Counts/Second

  292.49        3331.00           6770          87.00       377.95
  292.71        3331.25           6773          84.00       364.87
  292.74        3331.50           6777          94.00       408.46
  292.76        3331.75           6781          94.00       408.46
  292.79        3332.00           6784          92.00       399.74
  292.82        3332.25           6788          95.00       412.82
  292.84        3332.50           6792          97.00       421.54
  292.87        3332.75           6796          81.00       351.79
  292.89        3333.00           6799          89.00       386.67
  292.92        3333.25           6803         100.00       434.62
  292.95        3333.50           6807          83.00       360.51
  292.97        3333.75           6810          99.00       430.26
  293.00        3334.00           6814          95.00       412.82
  293.02        3334.25           6818          82.00       356.15
  293.05        3334.50           6822          96.00       417.18
  293.08        3334.75           6825          88.00       382.31
  293.10        3335.00           6829          95.00       412.82
  293.13        3335.25           6833          88.00       382.31
  293.15        3335.50           6837          89.00       386.67
  293.18        3335.75           6840          94.00       408.46
  293.21        3336.00           6844          91.00       395.38
  293.23        3336.25           6848         113.00       491.29
  293.26        3336.50           6851         142.00       617.71
  293.28        3336.75           6855         171.00       744.13
  293.31        3337.00           6859         232.00      1010.06
  293.34        3337.25           6863         333.00      1450.37
  293.36        3337.50           6866         372.00      1620.40
  293.39        3337.75           6870         475.00      2069.45
  293.42        3338.00           6874         566.00      2466.20
  293.44        3338.25           6877         613.00      2671.12
  293.47        3338.50           6881         708.00      3085.32
  293.49        3338.75           6885         757.00      3298.96
  293.52        3339.00           6889         874.00      3809.11
  293.55        3339.25           6892         923.00      4022.77
  293.57        3339.50           6896         990.00      4314.91
  293.60        3339.75           6900        1075.00      4685.55
  293.63        3340.00           6904        1165.00      5078.01
  293.65        3340.25           6907        1247.00      5435.59
  293.68        3340.50           6911        1296.00      5649.27
  293.70        3340.75           6915        1387.00      6046.11
  293.73        3341.00           6918        1421.00      6194.38
  293.76        3341.25           6922        1531.00      6674.09
  293.78        3341.50           6926        1511.00      6586.87
  293.81        3341.75           6930        1562.00      6809.29
  293.83        3342.00           6933        1555.00      6778.76
  293.86        3342.25           6937        1485.00      6473.48
  293.89        3342.50           6941        1484.00      6469.12
  293.91        3342.75           6945        1406.00      6128.96
  293.94        3343.00           6948        1324.00      5771.37
  293.97        3343.25           6952        1251.00      5453.03
  293.99        3343.50           6956        1150.00      5012.60
  294.02        3343.75           6959        1104.00      4812.01
  294.04        3344.00           6963         995.00      4336.72
  294.07        3344.25           6967         933.00      4066.37
  294.10        3344.50           6971         814.00      3547.49
  294.12        3344.75           6974         759.00      3307.68
  294.15        3345.00           6978         717.00      3124.56
  294.18        3345.25           6982         621.00      2706.00
  294.20        3345.50           6986         535.00      2331.04
  294.23        3345.75           6989         469.00      2043.29
  294.25        3346.00           6993         387.00      1685.80
  294.28        3346.25           6997         314.00      1367.54
  294.31        3346.50           7001         247.00      1075.45
  294.33        3346.75           7004         197.00       857.48
  294.36        3347.00           7008         140.00       608.99
  294.39        3347.25           7012         128.00       556.68
  294.41        3347.50           7015         105.00       456.41
  294.44        3347.75           7019          98.00       425.90
  294.46        3348.00           7023         100.00       434.62
  294.49        3348.25           7027          97.00       421.54
  294.52        3348.50           7030          97.00       421.54
  294.54        3348.75           7034         101.00       438.98
  294.57        3349.00           7038         102.00       443.34
  294.59        3349.25           7042         101.00       438.98
  294.62        3349.50           7045          90.00       391.03
  294.65        3349.75           7049         103.00       447.70
  294.67        3350.00           7053          99.00       430.26
  294.70        3350.25           7057          98.00       425.90
  294.72        3350.50           7060         102.00       443.34
  294.75        3350.75           7064          92.00       399.74
  294.78        3351.00           7068          98.00       425.90
HL scan finished at 04:55:06
end
************************************************************
  HL Scan of (1) Internal mercury lamp
************************************************************
Integration time is 0.2294 seconds per sample
dh310517Arenosillo 37.1 6.73 3.233369pr1000
************************************************************
Dead Time -------------------------  3.3E-08 
Number of Cycles Used -------------  4 
Starting Wavelength (Angstroms) ---  3331 
Final Wavelength (Angstoms) -------  3351 
Wavelength Increment (Angstroms) --  .25 
Filter Wheel #1 Position ---------- (1) Ground quartz diffuser (ND=2.32)
Filter Wheel #2 Position ---------- 



************************************************************
HL scan start time = 20:23:34
Dark Count =  0 


Time (GMT)  Wavelength (Ang)  Step Number  Raw Counts  Counts/Second

 1223.96        3331.00           6770          78.00       340.02
 1224.19        3331.25           6773          76.00       331.30
 1224.21        3331.50           6777          89.00       387.97
 1224.24        3331.75           6781          75.00       326.94
 1224.27        3332.00           6784          85.00       370.54
 1224.29        3332.25           6788          84.00       366.18
 1224.32        3332.50           6792          77.00       335.66
 1224.35        3332.75           6796          82.00       357.46
 1224.37        3333.00           6799          74.00       322.58
 1224.40        3333.25           6803          81.00       353.10
 1224.42        3333.50           6807          85.00       370.54
 1224.45        3333.75           6810          80.00       348.74
 1224.48        3334.00           6814          79.00       344.38
 1224.50        3334.25           6818          78.00       340.02
 1224.53        3334.50           6822          81.00       353.10
 1224.55        3334.75           6825          86.00       374.90
 1224.58        3335.00           6829          88.00       383.61
 1224.61        3335.25           6833          79.00       344.38
 1224.63        3335.50           6837          94.00       409.77
 1224.66        3335.75           6840         116.00       505.68
 1224.68        3336.00           6844         147.00       640.82
 1224.71        3336.25           6848         203.00       884.94
 1224.74        3336.50           6851         248.00      1081.12
 1224.76        3336.75           6855         316.00      1377.57
 1224.79        3337.00           6859         358.00      1560.67
 1224.82        3337.25           6863         463.00      2018.44
 1224.84        3337.50           6866         515.00      2245.15
 1224.87        3337.75           6870         566.00      2467.51
 1224.89        3338.00           6874         641.00      2794.50
 1224.92        3338.25           6877         705.00      3073.55
 1224.95        3338.50           6881         788.00      3435.44
 1224.97        3338.75           6885         829.00      3614.21
 1225.00        3339.00           6889         912.00      3976.11
 1225.02        3339.25           6892         989.00      4311.86
 1225.05        3339.50           6896        1047.00      4564.77
 1225.08        3339.75           6900        1112.00      4848.20
 1225.10        3340.00           6904        1169.00      5096.76
 1225.13        3340.25           6907        1232.00      5371.48
 1225.16        3340.50           6911        1240.00      5406.37
 1225.18        3340.75           6915        1266.00      5519.75
 1225.21        3341.00           6918        1296.00      5650.57
 1225.23        3341.25           6922        1315.00      5733.43
 1225.26        3341.50           6926        1290.00      5624.41
 1225.29        3341.75           6930        1264.00      5511.03
 1225.31        3342.00           6933        1224.00      5336.60
 1225.34        3342.25           6937        1163.00      5070.60
 1225.37        3342.50           6941        1069.00      4660.70
 1225.39        3342.75           6945        1008.00      4394.71
 1225.42        3343.00           6948         952.00      4150.53
 1225.44        3343.25           6952         895.00      3901.98
 1225.47        3343.50           6956         793.00      3457.24
 1225.50        3343.75           6959         726.00      3165.11
 1225.52        3344.00           6963         680.00      2964.54
 1225.55        3344.25           6967         607.00      2646.26
 1225.57        3344.50           6971         551.00      2402.11
 1225.60        3344.75           6974         499.00      2175.40
 1225.63        3345.00           6978         426.00      1857.13
 1225.65        3345.25           6982         354.00      1543.23
 1225.68        3345.50           6986         290.00      1264.22
 1225.71        3345.75           6989         252.00      1098.56
 1225.73        3346.00           6993         187.00       815.19
 1225.76        3346.25           6997         149.00       649.53
 1225.78        3346.50           7001         108.00       470.80
 1225.81        3346.75           7004          82.00       357.46
 1225.84        3347.00           7008          96.00       418.49
 1225.86        3347.25           7012          86.00       374.90
 1225.89        3347.50           7015          87.00       379.25
 1225.91        3347.75           7019          83.00       361.82
 1225.94        3348.00           7023          91.00       396.69
 1225.97        3348.25           7027          91.00       396.69
 1225.99        3348.50           7030          87.00       379.25
 1226.02        3348.75           7034          94.00       409.77
 1226.05        3349.00           7038          80.00       348.74
 1226.07        3349.25           7042          85.00       370.54
 1226.10        3349.50           7045          98.00       427.21
 1226.12        3349.75           7049          92.00       401.05
 1226.15        3350.00           7053          85.00       370.54
 1226.18        3350.25           7057          85.00       370.54
 1226.20        3350.50           7060          84.00       366.18
 1226.23        3350.75           7064          89.00       387.97
 1226.25        3351.00           7068          91.00       396.69
HL scan finished at 20:26:35
end
