************************************************************
  HL Scan of (1) Internal mercury lamp
************************************************************
Integration time is 0.2294 seconds per sample
dh020617Arenosillo 37.1 6.73 3.287017pr1000
************************************************************
Dead Time -------------------------  3.3E-08 
Number of Cycles Used -------------  4 
Starting Wavelength (Angstroms) ---  3331 
Final Wavelength (Angstoms) -------  3351 
Wavelength Increment (Angstroms) --  .25 
Filter Wheel #1 Position ---------- (1) Ground quartz diffuser (ND=2.32)
Filter Wheel #2 Position ---------- 



************************************************************
HL scan start time = 21:44:39
Dark Count =  0 


Time (GMT)  Wavelength (Ang)  Step Number  Raw Counts  Counts/Second

 1305.03        3331.00           6770         103.00       449.00
 1305.25        3331.25           6773         100.00       435.93
 1305.28        3331.50           6777         101.00       440.29
 1305.31        3331.75           6781          96.00       418.49
 1305.33        3332.00           6784         103.00       449.00
 1305.36        3332.25           6788         112.00       488.24
 1305.38        3332.50           6792         105.00       457.72
 1305.41        3332.75           6796         101.00       440.29
 1305.44        3333.00           6799         112.00       488.24
 1305.46        3333.25           6803         102.00       444.64
 1305.49        3333.50           6807         108.00       470.80
 1305.52        3333.75           6810         102.00       444.64
 1305.54        3334.00           6814         109.00       475.16
 1305.57        3334.25           6818         103.00       449.00
 1305.59        3334.50           6822         108.00       470.80
 1305.62        3334.75           6825         112.00       488.24
 1305.65        3335.00           6829         108.00       470.80
 1305.67        3335.25           6833         115.00       501.32
 1305.70        3335.50           6837         131.00       571.07
 1305.73        3335.75           6840         143.00       623.38
 1305.75        3336.00           6844         177.00       771.60
 1305.78        3336.25           6848         238.00      1037.52
 1305.80        3336.50           6851         308.00      1342.69
 1305.83        3336.75           6855         394.00      1717.62
 1305.86        3337.00           6859         489.00      2131.80
 1305.88        3337.25           6863         586.00      2554.71
 1305.91        3337.50           6866         661.00      2881.70
 1305.93        3337.75           6870         750.00      3269.75
 1305.96        3338.00           6874         848.00      3697.05
 1305.99        3338.25           6877         901.00      3928.15
 1306.01        3338.50           6881         965.00      4207.21
 1306.04        3338.75           6885        1061.00      4625.82
 1306.07        3339.00           6889        1156.00      5040.07
 1306.09        3339.25           6892        1249.00      5445.62
 1306.12        3339.50           6896        1334.00      5816.29
 1306.14        3339.75           6900        1410.00      6147.72
 1306.17        3340.00           6904        1466.00      6391.93
 1306.20        3340.25           6907        1555.00      6780.07
 1306.22        3340.50           6911        1615.00      7041.74
 1306.25        3340.75           6915        1604.00      6993.77
 1306.28        3341.00           6918        1697.00      7399.37
 1306.30        3341.25           6922        1683.00      7338.31
 1306.33        3341.50           6926        1621.00      7067.91
 1306.35        3341.75           6930        1560.00      6801.88
 1306.38        3342.00           6933        1564.00      6819.32
 1306.41        3342.25           6937        1446.00      6304.71
 1306.43        3342.50           6941        1376.00      5999.44
 1306.46        3342.75           6945        1239.00      5402.01
 1306.49        3343.00           6948        1201.00      5236.30
 1306.51        3343.25           6952        1131.00      4931.06
 1306.54        3343.50           6956        1015.00      4425.23
 1306.56        3343.75           6959         931.00      4058.96
 1306.59        3344.00           6963         855.00      3727.57
 1306.62        3344.25           6967         762.00      3322.07
 1306.64        3344.50           6971         650.00      2833.74
 1306.67        3344.75           6974         617.00      2689.86
 1306.69        3345.00           6978         521.00      2271.31
 1306.72        3345.25           6982         420.00      1830.97
 1306.75        3345.50           6986         379.00      1652.23
 1306.77        3345.75           6989         307.00      1338.33
 1306.80        3346.00           6993         229.00       998.29
 1306.83        3346.25           6997         188.00       819.55
 1306.85        3346.50           7001         151.00       658.25
 1306.88        3346.75           7004         119.00       518.75
 1306.90        3347.00           7008         121.00       527.47
 1306.93        3347.25           7012         115.00       501.32
 1306.96        3347.50           7015         117.00       510.03
 1306.98        3347.75           7019         115.00       501.32
 1307.01        3348.00           7023         113.00       492.60
 1307.03        3348.25           7027         110.00       479.52
 1307.06        3348.50           7030         113.00       492.60
 1307.09        3348.75           7034         112.00       488.24
 1307.11        3349.00           7038         113.00       492.60
 1307.14        3349.25           7042         113.00       492.60
 1307.17        3349.50           7045         117.00       510.03
 1307.19        3349.75           7049         105.00       457.72
 1307.22        3350.00           7053         113.00       492.60
 1307.24        3350.25           7057         103.00       449.00
 1307.27        3350.50           7060         117.00       510.03
 1307.30        3350.75           7064         117.00       510.03
 1307.32        3351.00           7068         105.00       457.72
HL scan finished at 21:47:39
end
