************************************************************
  HL Scan of (1) Internal mercury lamp
************************************************************
Integration time is 0.2294 seconds per sample
dh030617Arenosillo 37.1 6.73 3.126073pr1000
************************************************************
Dead Time -------------------------  3.3E-08 
Number of Cycles Used -------------  4 
Starting Wavelength (Angstroms) ---  3331 
Final Wavelength (Angstoms) -------  3351 
Wavelength Increment (Angstroms) --  .25 
Filter Wheel #1 Position ---------- (1) Ground quartz diffuser (ND=2.32)
Filter Wheel #2 Position ---------- 



************************************************************
HL scan start time = 02:01:12
Dark Count =  1.2 


Time (GMT)  Wavelength (Ang)  Step Number  Raw Counts  Counts/Second

  121.63        3331.00           6770          93.00       400.18
  121.85        3331.25           6773          92.00       395.82
  121.88        3331.50           6777          96.00       413.26
  121.91        3331.75           6781          91.00       391.46
  121.93        3332.00           6784          99.00       426.34
  121.96        3332.25           6788          89.00       382.74
  121.98        3332.50           6792          96.00       413.26
  122.01        3332.75           6796          96.00       413.26
  122.04        3333.00           6799         102.00       439.41
  122.06        3333.25           6803         102.00       439.41
  122.09        3333.50           6807          97.00       417.62
  122.11        3333.75           6810          89.00       382.74
  122.14        3334.00           6814          93.00       400.18
  122.17        3334.25           6818          90.00       387.10
  122.19        3334.50           6822          93.00       400.18
  122.22        3334.75           6825          97.00       417.62
  122.25        3335.00           6829         103.00       443.77
  122.27        3335.25           6833          98.00       421.98
  122.30        3335.50           6837         112.00       483.01
  122.32        3335.75           6840         100.00       430.69
  122.35        3336.00           6844         101.00       435.05
  122.38        3336.25           6848         116.00       500.44
  122.40        3336.50           6851         134.00       578.91
  122.43        3336.75           6855         178.00       770.73
  122.45        3337.00           6859         242.00      1049.73
  122.48        3337.25           6863         341.00      1481.33
  122.51        3337.50           6866         382.00      1660.07
  122.53        3337.75           6870         469.00      2039.37
  122.56        3338.00           6874         541.00      2353.28
  122.59        3338.25           6877         627.00      2728.23
  122.61        3338.50           6881         654.00      2845.95
  122.64        3338.75           6885         770.00      3351.72
  122.66        3339.00           6889         842.00      3665.66
  122.69        3339.25           6892         914.00      3979.60
  122.72        3339.50           6896        1007.00      4385.12
  122.75        3339.75           6900        1096.00      4773.20
  122.78        3340.00           6904        1136.00      4947.63
  122.80        3340.25           6907        1214.00      5287.76
  122.83        3340.50           6911        1277.00      5562.49
  122.86        3340.75           6915        1360.00      5924.44
  122.88        3341.00           6918        1405.00      6120.68
  122.91        3341.25           6922        1451.00      6321.28
  122.94        3341.50           6926        1446.00      6299.48
  122.96        3341.75           6930        1491.00      6495.73
  122.99        3342.00           6933        1462.00      6369.26
  123.01        3342.25           6937        1489.00      6487.00
  123.04        3342.50           6941        1373.00      5981.13
  123.07        3342.75           6945        1345.00      5859.02
  123.09        3343.00           6948        1261.00      5492.71
  123.12        3343.25           6952        1203.00      5239.79
  123.14        3343.50           6956        1135.00      4943.27
  123.17        3343.75           6959        1072.00      4668.55
  123.20        3344.00           6963         953.00      4149.65
  123.22        3344.25           6967         904.00      3936.00
  123.25        3344.50           6971         830.00      3613.33
  123.28        3344.75           6974         734.00      3194.76
  123.30        3345.00           6978         673.00      2928.79
  123.33        3345.25           6982         595.00      2588.71
  123.35        3345.50           6986         507.00      2205.04
  123.38        3345.75           6989         503.00      2187.60
  123.41        3346.00           6993         390.00      1694.95
  123.43        3346.25           6997         319.00      1385.42
  123.46        3346.50           7001         246.00      1067.17
  123.49        3346.75           7004         200.00       866.63
  123.51        3347.00           7008         162.00       700.98
  123.54        3347.25           7012         116.00       500.44
  123.56        3347.50           7015         106.00       456.85
  123.59        3347.75           7019         112.00       483.01
  123.62        3348.00           7023         107.00       461.21
  123.64        3348.25           7027         101.00       435.05
  123.67        3348.50           7030          98.00       421.98
  123.69        3348.75           7034          93.00       400.18
  123.72        3349.00           7038         103.00       443.77
  123.75        3349.25           7042         103.00       443.77
  123.77        3349.50           7045          98.00       421.98
  123.80        3349.75           7049          98.00       421.98
  123.82        3350.00           7053         101.00       435.05
  123.85        3350.25           7057         102.00       439.41
  123.88        3350.50           7060         103.00       443.77
  123.90        3350.75           7064         105.00       452.49
  123.93        3351.00           7068         104.00       448.13
HL scan finished at 02:04:15
end
************************************************************
  HL Scan of (1) Internal mercury lamp
************************************************************
Integration time is 0.2294 seconds per sample
dh030617Arenosillo 37.1 6.73 3.126073pr1000
************************************************************
Dead Time -------------------------  3.3E-08 
Number of Cycles Used -------------  4 
Starting Wavelength (Angstroms) ---  3331 
Final Wavelength (Angstoms) -------  3351 
Wavelength Increment (Angstroms) --  .25 
Filter Wheel #1 Position ---------- (1) Ground quartz diffuser (ND=2.32)
Filter Wheel #2 Position ---------- 



************************************************************
HL scan start time = 03:14:18
Dark Count =  1.5 


Time (GMT)  Wavelength (Ang)  Step Number  Raw Counts  Counts/Second

  194.72        3331.00           6770          99.00       425.03
  194.94        3331.25           6773          96.00       411.95
  194.97        3331.50           6777          91.00       390.15
  195.00        3331.75           6781          84.00       359.64
  195.02        3332.00           6784         100.00       429.39
  195.05        3332.25           6788          91.00       390.15
  195.08        3332.50           6792          98.00       420.67
  195.10        3332.75           6796         101.00       433.75
  195.13        3333.00           6799         103.00       442.47
  195.15        3333.25           6803          93.00       398.87
  195.18        3333.50           6807          94.00       403.23
  195.21        3333.75           6810         100.00       429.39
  195.23        3334.00           6814         103.00       442.47
  195.26        3334.25           6818          96.00       411.95
  195.28        3334.50           6822         103.00       442.47
  195.31        3334.75           6825         100.00       429.39
  195.34        3335.00           6829         103.00       442.47
  195.36        3335.25           6833         100.00       429.39
  195.39        3335.50           6837          96.00       411.95
  195.41        3335.75           6840         107.00       459.90
  195.44        3336.00           6844         103.00       442.47
  195.47        3336.25           6848         110.00       472.98
  195.49        3336.50           6851         133.00       573.25
  195.52        3336.75           6855         174.00       751.98
  195.55        3337.00           6859         213.00       922.00
  195.57        3337.25           6863         294.00      1275.12
  195.60        3337.50           6866         338.00      1466.94
  195.62        3337.75           6870         434.00      1885.47
  195.65        3338.00           6874         502.00      2181.94
  195.68        3338.25           6877         565.00      2456.61
  195.70        3338.50           6881         629.00      2735.64
  195.73        3338.75           6885         719.00      3128.05
  195.76        3339.00           6889         776.00      3376.58
  195.78        3339.25           6892         857.00      3729.75
  195.81        3339.50           6896         923.00      4017.53
  195.83        3339.75           6900        1014.00      4414.33
  195.86        3340.00           6904        1092.00      4754.45
  195.89        3340.25           6907        1128.00      4911.43
  195.91        3340.50           6911        1270.00      5530.65
  195.94        3340.75           6915        1299.00      5657.12
  195.96        3341.00           6918        1356.00      5905.68
  195.99        3341.25           6922        1382.00      6019.07
  196.02        3341.50           6926        1464.00      6376.67
  196.04        3341.75           6930        1456.00      6341.78
  196.07        3342.00           6933        1432.00      6237.12
  196.10        3342.25           6937        1429.00      6224.03
  196.13        3342.50           6941        1364.00      5940.57
  196.15        3342.75           6945        1328.00      5783.58
  196.18        3343.00           6948        1308.00      5696.36
  196.21        3343.25           6952        1214.00      5286.45
  196.23        3343.50           6956        1112.00      4841.66
  196.26        3343.75           6959        1027.00      4471.02
  196.29        3344.00           6963         956.00      4161.43
  196.31        3344.25           6967         884.00      3847.48
  196.34        3344.50           6971         827.00      3598.95
  196.36        3344.75           6974         775.00      3372.22
  196.39        3345.00           6978         660.00      2870.80
  196.42        3345.25           6982         586.00      2548.17
  196.44        3345.50           6986         536.00      2330.17
  196.47        3345.75           6989         470.00      2042.42
  196.49        3346.00           6993         386.00      1676.20
  196.52        3346.25           6997         340.00      1475.66
  196.55        3346.50           7001         246.00      1065.86
  196.57        3346.75           7004         210.00       908.92
  196.60        3347.00           7008         157.00       677.87
  196.63        3347.25           7012         121.00       520.93
  196.65        3347.50           7015         114.00       490.42
  196.68        3347.75           7019         100.00       429.39
  196.70        3348.00           7023         108.00       464.26
  196.73        3348.25           7027         100.00       429.39
  196.76        3348.50           7030          96.00       411.95
  196.78        3348.75           7034         101.00       433.75
  196.81        3349.00           7038         111.00       477.34
  196.84        3349.25           7042          97.00       416.31
  196.86        3349.50           7045          99.00       425.03
  196.89        3349.75           7049          83.00       355.28
  196.91        3350.00           7053          94.00       403.23
  196.94        3350.25           7057          98.00       420.67
  196.97        3350.50           7060          99.00       425.03
  196.99        3350.75           7064         104.00       446.82
  197.02        3351.00           7068         100.00       429.39
HL scan finished at 03:17:21
end
************************************************************
  HL Scan of (1) Internal mercury lamp
************************************************************
Integration time is 0.2294 seconds per sample
dh030617Arenosillo 37.1 6.73 3.072425pr1000
************************************************************
Dead Time -------------------------  3.3E-08 
Number of Cycles Used -------------  4 
Starting Wavelength (Angstroms) ---  3331 
Final Wavelength (Angstoms) -------  3351 
Wavelength Increment (Angstroms) --  .25 
Filter Wheel #1 Position ---------- (1) Ground quartz diffuser (ND=2.32)
Filter Wheel #2 Position ---------- 



************************************************************
HL scan start time = 04:27:17
Dark Count =  .9 


Time (GMT)  Wavelength (Ang)  Step Number  Raw Counts  Counts/Second

  267.69        3331.00           6770          92.00       397.13
  267.91        3331.25           6773          92.00       397.13
  267.94        3331.50           6777          90.00       388.41
  267.97        3331.75           6781          95.00       410.21
  267.99        3332.00           6784          83.00       357.89
  268.02        3332.25           6788          84.00       362.25
  268.04        3332.50           6792          93.00       401.49
  268.07        3332.75           6796          95.00       410.21
  268.10        3333.00           6799         100.00       432.00
  268.12        3333.25           6803          89.00       384.05
  268.15        3333.50           6807          96.00       414.57
  268.18        3333.75           6810          94.00       405.85
  268.20        3334.00           6814          89.00       384.05
  268.23        3334.25           6818          84.00       362.25
  268.25        3334.50           6822         100.00       432.00
  268.28        3334.75           6825          93.00       401.49
  268.31        3335.00           6829          93.00       401.49
  268.33        3335.25           6833          97.00       418.92
  268.36        3335.50           6837          97.00       418.92
  268.38        3335.75           6840          99.00       427.64
  268.41        3336.00           6844          95.00       410.21
  268.44        3336.25           6848         111.00       479.96
  268.46        3336.50           6851         124.00       536.63
  268.49        3336.75           6855         162.00       702.28
  268.52        3337.00           6859         225.00       976.93
  268.54        3337.25           6863         295.00      1282.09
  268.57        3337.50           6866         344.00      1495.71
  268.59        3337.75           6870         432.00      1879.37
  268.62        3338.00           6874         511.00      2223.79
  268.65        3338.25           6877         573.00      2494.10
  268.67        3338.50           6881         631.00      2746.98
  268.70        3338.75           6885         714.00      3108.86
  268.72        3339.00           6889         799.00      3479.48
  268.75        3339.25           6892         858.00      3736.73
  268.78        3339.50           6896         919.00      4002.71
  268.81        3339.75           6900         979.00      4264.33
  268.83        3340.00           6904        1081.00      4709.10
  268.86        3340.25           6907        1107.00      4822.48
  268.89        3340.50           6911        1194.00      5201.85
  268.91        3340.75           6915        1245.00      5424.25
  268.94        3341.00           6918        1352.00      5890.86
  268.97        3341.25           6922        1377.00      5999.88
  268.99        3341.50           6926        1384.00      6030.41
  269.02        3341.75           6930        1433.00      6244.09
  269.05        3342.00           6933        1436.00      6257.18
  269.07        3342.25           6937        1380.00      6012.96
  269.10        3342.50           6941        1347.00      5869.05
  269.12        3342.75           6945        1273.00      5546.35
  269.15        3343.00           6948        1220.00      5315.23
  269.18        3343.25           6952        1164.00      5071.03
  269.21        3343.50           6956        1067.00      4648.05
  269.23        3343.75           6959        1015.00      4421.31
  269.26        3344.00           6963         925.00      4028.87
  269.29        3344.25           6967         837.00      3645.16
  269.31        3344.50           6971         776.00      3379.19
  269.34        3344.75           6974         742.00      3230.95
  269.36        3345.00           6978         652.00      2838.54
  269.39        3345.25           6982         572.00      2489.74
  269.42        3345.50           6986         490.00      2132.23
  269.44        3345.75           6989         450.00      1957.84
  269.47        3346.00           6993         371.00      1613.43
  269.50        3346.25           6997         313.00      1360.57
  269.52        3346.50           7001         245.00      1064.12
  269.55        3346.75           7004         203.00       881.02
  269.57        3347.00           7008         159.00       689.20
  269.60        3347.25           7012         127.00       549.70
  269.63        3347.50           7015         110.00       475.60
  269.65        3347.75           7019         109.00       471.24
  269.68        3348.00           7023         107.00       462.52
  269.70        3348.25           7027         106.00       458.16
  269.73        3348.50           7030          91.00       392.77
  269.76        3348.75           7034          98.00       423.28
  269.78        3349.00           7038          97.00       418.92
  269.81        3349.25           7042         101.00       436.36
  269.84        3349.50           7045          97.00       418.92
  269.86        3349.75           7049          94.00       405.85
  269.89        3350.00           7053          89.00       384.05
  269.91        3350.25           7057         100.00       432.00
  269.94        3350.50           7060         105.00       453.80
  269.97        3350.75           7064         104.00       449.44
  269.99        3351.00           7068         102.00       440.72
HL scan finished at 04:30:19
end
