************************************************************
  HL Scan of (1) Internal mercury lamp
************************************************************
Integration time is 0.2294 seconds per sample
dh170619El Arenosillo 37.1 6.73 2.804185pr1000
************************************************************
Dead Time -------------------------  3.3E-08 
Number of Cycles Used -------------  4 
Starting Wavelength (Angstroms) ---  3331 
Final Wavelength (Angstoms) -------  3351 
Wavelength Increment (Angstroms) --  .25 
Filter Wheel #1 Position ---------- (1) Ground quartz diffuser (ND=2.32)
Filter Wheel #2 Position ---------- 



************************************************************
HL scan start time = 22:00:09
Dark Count =  .6 


Time (GMT)  Wavelength (Ang)  Step Number  Raw Counts  Counts/Second

 1320.68        3331.00           6770         133.00       577.17
 1320.91        3331.25           6773         129.00       559.73
 1320.93        3331.50           6777         131.00       568.45
 1320.96        3331.75           6781         126.00       546.65
 1320.98        3332.00           6784         129.00       559.73
 1321.01        3332.25           6788         129.00       559.73
 1321.04        3332.50           6792         132.00       572.81
 1321.06        3332.75           6796         130.00       564.09
 1321.09        3333.00           6799         141.00       612.04
 1321.12        3333.25           6803         140.00       607.68
 1321.14        3333.50           6807         138.00       598.97
 1321.17        3333.75           6810         134.00       581.53
 1321.20        3334.00           6814         128.00       555.37
 1321.22        3334.25           6818         137.00       594.61
 1321.25        3334.50           6822         134.00       581.53
 1321.28        3334.75           6825         131.00       568.45
 1321.30        3335.00           6829         128.00       555.37
 1321.33        3335.25           6833         140.00       607.68
 1321.35        3335.50           6837         144.00       625.12
 1321.38        3335.75           6840         137.00       594.61
 1321.41        3336.00           6844         169.00       734.11
 1321.43        3336.25           6848         223.00       969.52
 1321.46        3336.50           6851         282.00      1226.73
 1321.48        3336.75           6855         384.00      1671.41
 1321.51        3337.00           6859         509.00      2216.38
 1321.54        3337.25           6863         630.00      2743.93
 1321.56        3337.50           6866         698.00      3040.41
 1321.59        3337.75           6870         838.00      3650.83
 1321.62        3338.00           6874         915.00      3986.58
 1321.64        3338.25           6877        1031.00      4492.38
 1321.67        3338.50           6881        1176.00      5124.67
 1321.70        3338.75           6885        1287.00      5608.71
 1321.72        3339.00           6889        1412.00      6153.82
 1321.75        3339.25           6892        1499.00      6533.23
 1321.78        3339.50           6896        1610.00      7017.32
 1321.80        3339.75           6900        1720.00      7497.06
 1321.83        3340.00           6904        1850.00      8064.05
 1321.86        3340.25           6907        1973.00      8600.52
 1321.88        3340.50           6911        2082.00      9075.95
 1321.91        3340.75           6915        2109.00      9193.72
 1321.94        3341.00           6918        2252.00      9817.48
 1321.96        3341.25           6922        2214.00      9651.72
 1321.99        3341.50           6926        2249.00      9804.39
 1322.02        3341.75           6930        2253.00      9821.84
 1322.04        3342.00           6933        2175.00      9481.61
 1322.07        3342.25           6937        2118.00      9232.98
 1322.10        3342.50           6941        2001.00      8722.65
 1322.12        3342.75           6945        1905.00      8303.93
 1322.15        3343.00           6948        1790.00      7802.36
 1322.18        3343.25           6952        1654.00      7209.21
 1322.20        3343.50           6956        1552.00      6764.37
 1322.23        3343.75           6959        1454.00      6336.98
 1322.26        3344.00           6963        1339.00      5835.47
 1322.28        3344.25           6967        1230.00      5360.15
 1322.31        3344.50           6971        1090.00      4749.66
 1322.33        3344.75           6974        1010.00      4400.81
 1322.36        3345.00           6978         895.00      3899.37
 1322.39        3345.25           6982         768.00      3345.62
 1322.41        3345.50           6986         641.00      2791.89
 1322.44        3345.75           6989         558.00      2430.01
 1322.46        3346.00           6993         412.00      1793.48
 1322.49        3346.25           6997         312.00      1357.52
 1322.52        3346.50           7001         252.00      1095.94
 1322.54        3346.75           7004         192.00       834.37
 1322.57        3347.00           7008         155.00       673.08
 1322.59        3347.25           7012         149.00       646.92
 1322.62        3347.50           7015         152.00       660.00
 1322.65        3347.75           7019         143.00       620.76
 1322.67        3348.00           7023         148.00       642.56
 1322.70        3348.25           7027         134.00       581.53
 1322.73        3348.50           7030         140.00       607.68
 1322.75        3348.75           7034         141.00       612.04
 1322.78        3349.00           7038         145.00       629.48
 1322.80        3349.25           7042         152.00       660.00
 1322.83        3349.50           7045         141.00       612.04
 1322.86        3349.75           7049         140.00       607.68
 1322.88        3350.00           7053         140.00       607.68
 1322.91        3350.25           7057         139.00       603.33
 1322.94        3350.50           7060         130.00       564.09
 1322.96        3350.75           7064         131.00       568.45
 1322.99        3351.00           7068         132.00       572.81
HL scan finished at 22:03:19
end
