************************************************************
  HL Scan of (1) Internal mercury lamp
************************************************************
Integration time is 0.2294 seconds per sample
dh180619El Arenosillo 37.1 6.73 3.018777pr1000
************************************************************
Dead Time -------------------------  3.3E-08 
Number of Cycles Used -------------  4 
Starting Wavelength (Angstroms) ---  3331 
Final Wavelength (Angstoms) -------  3351 
Wavelength Increment (Angstroms) --  .25 
Filter Wheel #1 Position ---------- (1) Ground quartz diffuser (ND=2.32)
Filter Wheel #2 Position ---------- 



************************************************************
HL scan start time = 21:50:33
Dark Count =  1.2 


Time (GMT)  Wavelength (Ang)  Step Number  Raw Counts  Counts/Second

 1311.09        3331.00           6770         137.00       591.99
 1311.31        3331.25           6773         129.00       557.12
 1311.34        3331.50           6777         136.00       587.63
 1311.37        3331.75           6781         141.00       609.43
 1311.39        3332.00           6784         133.00       574.55
 1311.42        3332.25           6788         137.00       591.99
 1311.45        3332.50           6792         134.00       578.91
 1311.47        3332.75           6796         130.00       561.48
 1311.50        3333.00           6799         134.00       578.91
 1311.53        3333.25           6803         141.00       609.43
 1311.55        3333.50           6807         141.00       609.43
 1311.58        3333.75           6810         141.00       609.43
 1311.60        3334.00           6814         134.00       578.91
 1311.63        3334.25           6818         127.00       548.40
 1311.65        3334.50           6822         144.00       622.51
 1311.68        3334.75           6825         145.00       626.87
 1311.71        3335.00           6829         142.00       613.79
 1311.73        3335.25           6833         148.00       639.94
 1311.76        3335.50           6837         138.00       596.35
 1311.79        3335.75           6840         155.00       670.46
 1311.81        3336.00           6844         170.00       735.85
 1311.84        3336.25           6848         207.00       897.15
 1311.86        3336.50           6851         303.00      1315.66
 1311.89        3336.75           6855         407.00      1769.07
 1311.91        3337.00           6859         542.00      2357.64
 1311.94        3337.25           6863         665.00      2893.91
 1311.97        3337.50           6866         761.00      3312.48
 1311.99        3337.75           6870         921.00      4010.12
 1312.02        3338.00           6874        1070.00      4659.83
 1312.05        3338.25           6877        1152.00      5017.40
 1312.07        3338.50           6881        1283.00      5588.65
 1312.10        3338.75           6885        1413.00      6155.57
 1312.13        3339.00           6889        1542.00      6718.14
 1312.15        3339.25           6892        1667.00      7263.29
 1312.18        3339.50           6896        1783.00      7769.21
 1312.21        3339.75           6900        1933.00      8423.44
 1312.23        3340.00           6904        2073.00      9034.08
 1312.26        3340.25           6907        2165.00      9435.37
 1312.28        3340.50           6911        2256.00      9832.31
 1312.31        3340.75           6915        2406.00     10486.63
 1312.34        3341.00           6918        2467.00     10752.73
 1312.36        3341.25           6922        2502.00     10905.41
 1312.39        3341.50           6926        2504.00     10914.13
 1312.42        3341.75           6930        2534.00     11045.00
 1312.44        3342.00           6933        2433.00     10604.41
 1312.47        3342.25           6937        2334.00     10172.55
 1312.50        3342.50           6941        2212.00      9640.38
 1312.52        3342.75           6945        2046.00      8916.31
 1312.55        3343.00           6948        1942.00      8462.70
 1312.57        3343.25           6952        1826.00      7956.75
 1312.60        3343.50           6956        1715.00      7472.64
 1312.63        3343.75           6959        1597.00      6958.01
 1312.65        3344.00           6963        1487.00      6478.28
 1312.68        3344.25           6967        1332.00      5802.33
 1312.71        3344.50           6971        1196.00      5209.27
 1312.73        3344.75           6974        1085.00      4725.24
 1312.76        3345.00           6978         942.00      4101.69
 1312.79        3345.25           6982         820.00      3569.73
 1312.81        3345.50           6986         696.00      3029.07
 1312.84        3345.75           6989         596.00      2593.07
 1312.87        3346.00           6993         451.00      1960.89
 1312.89        3346.25           6997         351.00      1524.92
 1312.92        3346.50           7001         251.00      1088.97
 1312.94        3346.75           7004         210.00       910.23
 1312.97        3347.00           7008         171.00       740.21
 1313.00        3347.25           7012         158.00       683.54
 1313.02        3347.50           7015         143.00       618.15
 1313.05        3347.75           7019         144.00       622.51
 1313.08        3348.00           7023         138.00       596.35
 1313.10        3348.25           7027         145.00       626.87
 1313.13        3348.50           7030         145.00       626.87
 1313.16        3348.75           7034         145.00       626.87
 1313.18        3349.00           7038         147.00       635.58
 1313.21        3349.25           7042         148.00       639.94
 1313.24        3349.50           7045         151.00       653.02
 1313.26        3349.75           7049         154.00       666.10
 1313.29        3350.00           7053         160.00       692.26
 1313.32        3350.25           7057         149.00       644.30
 1313.34        3350.50           7060         157.00       679.18
 1313.37        3350.75           7064         154.00       666.10
 1313.39        3351.00           7068         144.00       622.51
HL scan finished at 21:53:44
end
