************************************************************
  HL Scan of (1) Internal mercury lamp
************************************************************
Integration time is 0.2294 seconds per sample
dh190619El Arenosillo 37.1 6.73 3.072425pr1000
************************************************************
Dead Time -------------------------  3.3E-08 
Number of Cycles Used -------------  4 
Starting Wavelength (Angstroms) ---  3331 
Final Wavelength (Angstoms) -------  3351 
Wavelength Increment (Angstroms) --  .25 
Filter Wheel #1 Position ---------- (1) Ground quartz diffuser (ND=2.32)
Filter Wheel #2 Position ---------- 



************************************************************
HL scan start time = 02:17:57
Dark Count =  1.7 


Time (GMT)  Wavelength (Ang)  Step Number  Raw Counts  Counts/Second

  138.48        3331.00           6770         135.00       581.09
  138.71        3331.25           6773         139.00       598.53
  138.73        3331.50           6777         137.00       589.81
  138.76        3331.75           6781         131.00       563.65
  138.78        3332.00           6784         136.00       585.45
  138.81        3332.25           6788         142.00       611.61
  138.84        3332.50           6792         129.00       554.94
  138.86        3332.75           6796         142.00       611.61
  138.89        3333.00           6799         135.00       581.09
  138.92        3333.25           6803         131.00       563.65
  138.94        3333.50           6807         132.00       568.01
  138.97        3333.75           6810         140.00       602.89
  139.00        3334.00           6814         145.00       624.69
  139.02        3334.25           6818         140.00       602.89
  139.05        3334.50           6822         132.00       568.01
  139.08        3334.75           6825         138.00       594.17
  139.10        3335.00           6829         142.00       611.61
  139.13        3335.25           6833         134.00       576.73
  139.16        3335.50           6837         144.00       620.33
  139.18        3335.75           6840         154.00       663.92
  139.21        3336.00           6844         174.00       751.11
  139.24        3336.25           6848         238.00      1030.11
  139.26        3336.50           6851         284.00      1230.65
  139.29        3336.75           6855         402.00      1745.09
  139.31        3337.00           6859         546.00      2372.90
  139.34        3337.25           6863         687.00      2987.65
  139.37        3337.50           6866         785.00      3414.94
  139.39        3337.75           6870         965.00      4199.80
  139.42        3338.00           6874        1033.00      4496.31
  139.45        3338.25           6877        1186.00      5163.48
  139.47        3338.50           6881        1312.00      5712.93
  139.50        3338.75           6885        1431.00      6231.88
  139.52        3339.00           6889        1586.00      6907.85
  139.55        3339.25           6892        1719.00      7487.90
  139.58        3339.50           6896        1855.00      8081.06
  139.60        3339.75           6900        1979.00      8621.89
  139.63        3340.00           6904        2114.00      9210.73
  139.66        3340.25           6907        2216.00      9655.65
  139.68        3340.50           6911        2353.00     10253.25
  139.71        3340.75           6915        2469.00     10759.27
  139.73        3341.00           6918        2514.00     10955.57
  139.76        3341.25           6922        2550.00     11112.62
  139.79        3341.50           6926        2575.00     11221.68
  139.82        3341.75           6930        2614.00     11391.82
  139.84        3342.00           6933        2482.00     10815.98
  139.87        3342.25           6937        2410.00     10501.90
  139.89        3342.50           6941        2304.00     10039.51
  139.92        3342.75           6945        2107.00      9180.20
  139.95        3343.00           6948        2056.00      8957.75
  139.97        3343.25           6952        1907.00      8307.86
  140.00        3343.50           6956        1716.00      7474.82
  140.03        3343.75           6959        1639.00      7139.00
  140.05        3344.00           6963        1543.00      6720.32
  140.08        3344.25           6967        1376.00      5992.03
  140.11        3344.50           6971        1222.00      5320.46
  140.13        3344.75           6974        1162.00      5058.82
  140.16        3345.00           6978        1003.00      4365.49
  140.19        3345.25           6982         909.00      3955.62
  140.21        3345.50           6986         732.00      3183.86
  140.24        3345.75           6989         618.00      2686.81
  140.26        3346.00           6993         491.00      2133.11
  140.29        3346.25           6997         376.00      1631.74
  140.32        3346.50           7001         267.00      1156.54
  140.34        3346.75           7004         204.00       881.89
  140.37        3347.00           7008         174.00       751.11
  140.39        3347.25           7012         160.00       690.08
  140.42        3347.50           7015         153.00       659.56
  140.45        3347.75           7019         147.00       633.40
  140.47        3348.00           7023         146.00       629.05
  140.50        3348.25           7027         156.00       672.64
  140.53        3348.50           7030         143.00       615.97
  140.55        3348.75           7034         147.00       633.40
  140.58        3349.00           7038         144.00       620.33
  140.60        3349.25           7042         148.00       637.76
  140.63        3349.50           7045         139.00       598.53
  140.66        3349.75           7049         148.00       637.76
  140.68        3350.00           7053         151.00       650.84
  140.71        3350.25           7057         146.00       629.05
  140.74        3350.50           7060         150.00       646.48
  140.76        3350.75           7064         146.00       629.05
  140.79        3351.00           7068         150.00       646.48
HL scan finished at 02:21:07
end
************************************************************
  HL Scan of (1) Internal mercury lamp
************************************************************
Integration time is 0.2294 seconds per sample
dh190619El Arenosillo 37.1 6.73 2.965129pr1000
************************************************************
Dead Time -------------------------  3.3E-08 
Number of Cycles Used -------------  4 
Starting Wavelength (Angstroms) ---  3331 
Final Wavelength (Angstoms) -------  3351 
Wavelength Increment (Angstroms) --  .25 
Filter Wheel #1 Position ---------- (1) Ground quartz diffuser (ND=2.32)
Filter Wheel #2 Position ---------- 



************************************************************
HL scan start time = 22:04:05
Dark Count =  1.2 


Time (GMT)  Wavelength (Ang)  Step Number  Raw Counts  Counts/Second

 1324.63        3331.00           6770         140.00       605.07
 1324.85        3331.25           6773         142.00       613.79
 1324.88        3331.50           6777         120.00       517.88
 1324.90        3331.75           6781         126.00       544.04
 1324.93        3332.00           6784         118.00       509.16
 1324.96        3332.25           6788         137.00       591.99
 1324.98        3332.50           6792         137.00       591.99
 1325.01        3332.75           6796         138.00       596.35
 1325.04        3333.00           6799         136.00       587.63
 1325.06        3333.25           6803         125.00       539.68
 1325.09        3333.50           6807         131.00       565.83
 1325.11        3333.75           6810         141.00       609.43
 1325.14        3334.00           6814         126.00       544.04
 1325.17        3334.25           6818         136.00       587.63
 1325.19        3334.50           6822         139.00       600.71
 1325.22        3334.75           6825         129.00       557.12
 1325.24        3335.00           6829         140.00       605.07
 1325.27        3335.25           6833         133.00       574.55
 1325.30        3335.50           6837         150.00       648.66
 1325.32        3335.75           6840         150.00       648.66
 1325.35        3336.00           6844         168.00       727.13
 1325.38        3336.25           6848         226.00       979.98
 1325.40        3336.50           6851         271.00      1176.16
 1325.43        3336.75           6855         368.00      1599.04
 1325.46        3337.00           6859         499.00      2170.16
 1325.48        3337.25           6863         647.00      2815.43
 1325.51        3337.50           6866         739.00      3216.56
 1325.54        3337.75           6870         897.00      3905.47
 1325.56        3338.00           6874         987.00      4297.91
 1325.59        3338.25           6877        1099.00      4786.28
 1325.62        3338.50           6881        1239.00      5396.78
 1325.64        3338.75           6885        1366.00      5950.60
 1325.67        3339.00           6889        1499.00      6530.61
 1325.70        3339.25           6892        1614.00      7032.15
 1325.72        3339.50           6896        1721.00      7498.80
 1325.75        3339.75           6900        1870.00      8148.66
 1325.78        3340.00           6904        2014.00      8776.74
 1325.80        3340.25           6907        2077.00      9051.53
 1325.83        3340.50           6911        2220.00      9675.28
 1325.85        3340.75           6915        2358.00     10277.24
 1325.88        3341.00           6918        2433.00     10604.41
 1325.91        3341.25           6922        2453.00     10691.65
 1325.93        3341.50           6926        2453.00     10691.65
 1325.96        3341.75           6930        2429.00     10586.96
 1325.99        3342.00           6933        2376.00     10355.76
 1326.01        3342.25           6937        2269.00      9889.02
 1326.04        3342.50           6941        2160.00      9413.56
 1326.07        3342.75           6945        2029.00      8842.16
 1326.09        3343.00           6948        1922.00      8375.46
 1326.12        3343.25           6952        1835.00      7996.01
 1326.15        3343.50           6956        1656.00      7215.32
 1326.17        3343.75           6959        1576.00      6866.42
 1326.20        3344.00           6963        1441.00      6277.67
 1326.23        3344.25           6967        1298.00      5654.06
 1326.25        3344.50           6971        1195.00      5204.91
 1326.28        3344.75           6974        1086.00      4729.60
 1326.31        3345.00           6978         958.00      4171.45
 1326.33        3345.25           6982         833.00      3626.42
 1326.36        3345.50           6986         717.00      3120.64
 1326.39        3345.75           6989         605.00      2632.31
 1326.41        3346.00           6993         470.00      2043.73
 1326.44        3346.25           6997         355.00      1542.36
 1326.47        3346.50           7001         266.00      1154.36
 1326.49        3346.75           7004         220.00       953.82
 1326.52        3347.00           7008         157.00       679.18
 1326.54        3347.25           7012         154.00       666.10
 1326.57        3347.50           7015         146.00       631.23
 1326.60        3347.75           7019         146.00       631.23
 1326.62        3348.00           7023         155.00       670.46
 1326.65        3348.25           7027         142.00       613.79
 1326.68        3348.50           7030         141.00       609.43
 1326.70        3348.75           7034         142.00       613.79
 1326.73        3349.00           7038         146.00       631.23
 1326.76        3349.25           7042         142.00       613.79
 1326.78        3349.50           7045         148.00       639.94
 1326.81        3349.75           7049         149.00       644.30
 1326.83        3350.00           7053         145.00       626.87
 1326.86        3350.25           7057         151.00       653.02
 1326.89        3350.50           7060         150.00       648.66
 1326.91        3350.75           7064         142.00       613.79
 1326.94        3351.00           7068         143.00       618.15
HL scan finished at 22:07:16
end
