************************************************************
  HL Scan of (1) Internal mercury lamp
************************************************************
Integration time is 0.2294 seconds per sample
dh250619El Arenosillo 37.1 6.73 3.072425pr1000
************************************************************
Dead Time -------------------------  3.3E-08 
Number of Cycles Used -------------  4 
Starting Wavelength (Angstroms) ---  3331 
Final Wavelength (Angstoms) -------  3351 
Wavelength Increment (Angstroms) --  .25 
Filter Wheel #1 Position ---------- (1) Ground quartz diffuser (ND=2.32)
Filter Wheel #2 Position ---------- 



************************************************************
HL scan start time = 02:06:00
Dark Count =  1.8 


Time (GMT)  Wavelength (Ang)  Step Number  Raw Counts  Counts/Second

  126.53        3331.00           6770         141.00       606.81
  126.75        3331.25           6773         143.00       615.53
  126.78        3331.50           6777         151.00       650.41
  126.81        3331.75           6781         152.00       654.77
  126.83        3332.00           6784         135.00       580.66
  126.86        3332.25           6788         144.00       619.89
  126.89        3332.50           6792         151.00       650.41
  126.91        3332.75           6796         152.00       654.77
  126.94        3333.00           6799         144.00       619.89
  126.96        3333.25           6803         141.00       606.81
  126.99        3333.50           6807         164.00       707.08
  127.02        3333.75           6810         157.00       676.56
  127.04        3334.00           6814         149.00       641.69
  127.07        3334.25           6818         155.00       667.84
  127.10        3334.50           6822         158.00       680.92
  127.12        3334.75           6825         155.00       667.84
  127.15        3335.00           6829         154.00       663.48
  127.17        3335.25           6833         156.00       672.20
  127.20        3335.50           6837         159.00       685.28
  127.23        3335.75           6840         178.00       768.11
  127.25        3336.00           6844         207.00       894.53
  127.28        3336.25           6848         289.00      1252.01
  127.31        3336.50           6851         360.00      1561.55
  127.33        3336.75           6855         490.00      2128.31
  127.36        3337.00           6859         620.00      2695.10
  127.39        3337.25           6863         797.00      3466.83
  127.41        3337.50           6866         897.00      3902.86
  127.44        3337.75           6870        1017.00      4426.10
  127.47        3338.00           6874        1177.00      5123.80
  127.49        3338.25           6877        1277.00      5559.87
  127.52        3338.50           6881        1424.00      6200.92
  127.55        3338.75           6885        1646.00      7169.09
  127.57        3339.00           6889        1796.00      7823.29
  127.60        3339.25           6892        1878.00      8180.94
  127.62        3339.50           6896        1990.00      8669.44
  127.65        3339.75           6900        2183.00      9511.27
  127.68        3340.00           6904        2309.00     10060.88
  127.70        3340.25           6907        2416.00     10527.63
  127.73        3340.50           6911        2558.00     11147.08
  127.76        3340.75           6915        2676.00     11661.86
  127.78        3341.00           6918        2733.00     11910.52
  127.81        3341.25           6922        2823.00     12303.16
  127.84        3341.50           6926        2820.00     12290.08
  127.87        3341.75           6930        2741.00     11945.42
  127.89        3342.00           6933        2668.00     11626.95
  127.92        3342.25           6937        2537.00     11055.47
  127.95        3342.50           6941        2428.00     10579.98
  127.97        3342.75           6945        2300.00     10021.62
  128.00        3343.00           6948        2157.00      9397.86
  128.03        3343.25           6952        2006.00      8739.22
  128.05        3343.50           6956        1880.00      8189.66
  128.08        3343.75           6959        1791.00      7801.49
  128.11        3344.00           6963        1603.00      6981.56
  128.13        3344.25           6967        1425.00      6205.28
  128.16        3344.50           6971        1309.00      5699.42
  128.19        3344.75           6974        1156.00      5032.22
  128.21        3345.00           6978        1054.00      4587.44
  128.24        3345.25           6982         899.00      3911.58
  128.27        3345.50           6986         737.00      3205.22
  128.29        3345.75           6989         640.00      2782.30
  128.32        3346.00           6993         486.00      2110.87
  128.34        3346.25           6997         382.00      1657.46
  128.37        3346.50           7001         264.00      1143.02
  128.40        3346.75           7004         222.00       959.93
  128.42        3347.00           7008         187.00       807.35
  128.45        3347.25           7012         163.00       702.72
  128.48        3347.50           7015         167.00       720.16
  128.50        3347.75           7019         157.00       676.56
  128.53        3348.00           7023         174.00       750.67
  128.55        3348.25           7027         164.00       707.08
  128.58        3348.50           7030         175.00       755.03
  128.61        3348.75           7034         157.00       676.56
  128.63        3349.00           7038         157.00       676.56
  128.66        3349.25           7042         155.00       667.84
  128.69        3349.50           7045         150.00       646.05
  128.71        3349.75           7049         160.00       689.64
  128.74        3350.00           7053         154.00       663.48
  128.77        3350.25           7057         167.00       720.16
  128.79        3350.50           7060         160.00       689.64
  128.82        3350.75           7064         166.00       715.80
  128.85        3351.00           7068         155.00       667.84
HL scan finished at 02:09:11
end
