************************************************************
  HL Scan of (1) Internal mercury lamp
************************************************************
Integration time is 0.2294 seconds per sample
dh220619El Arenosillo 37.1 6.73 3.126073pr1000
************************************************************
Dead Time -------------------------  3.3E-08 
Number of Cycles Used -------------  4 
Starting Wavelength (Angstroms) ---  3331 
Final Wavelength (Angstoms) -------  3351 
Wavelength Increment (Angstroms) --  .25 
Filter Wheel #1 Position ---------- (1) Ground quartz diffuser (ND=2.32)
Filter Wheel #2 Position ---------- 



************************************************************
HL scan start time = 01:10:00
Dark Count =  2.5 


Time (GMT)  Wavelength (Ang)  Step Number  Raw Counts  Counts/Second

   70.53        3331.00           6770         151.00       647.35
   70.75        3331.25           6773         151.00       647.35
   70.78        3331.50           6777         140.00       599.40
   70.81        3331.75           6781         147.00       629.92
   70.83        3332.00           6784         151.00       647.35
   70.86        3332.25           6788         141.00       603.76
   70.89        3332.50           6792         155.00       664.79
   70.91        3332.75           6796         154.00       660.43
   70.94        3333.00           6799         148.00       634.28
   70.96        3333.25           6803         151.00       647.35
   70.99        3333.50           6807         156.00       669.15
   71.02        3333.75           6810         155.00       664.79
   71.04        3334.00           6814         148.00       634.28
   71.07        3334.25           6818         142.00       608.12
   71.09        3334.50           6822         154.00       660.43
   71.12        3334.75           6825         152.00       651.71
   71.15        3335.00           6829         159.00       682.23
   71.17        3335.25           6833         153.00       656.07
   71.20        3335.50           6837         167.00       717.11
   71.23        3335.75           6840         160.00       686.59
   71.25        3336.00           6844         179.00       769.42
   71.28        3336.25           6848         228.00       983.03
   71.31        3336.50           6851         297.00      1283.84
   71.33        3336.75           6855         414.00      1793.92
   71.36        3337.00           6859         571.00      2478.41
   71.38        3337.25           6863         698.00      3032.13
   71.41        3337.50           6866         798.00      3468.14
   71.44        3337.75           6870         971.00      4222.47
   71.46        3338.00           6874        1147.00      4989.92
   71.49        3338.25           6877        1259.00      5478.32
   71.52        3338.50           6881        1414.00      6154.26
   71.54        3338.75           6885        1545.00      6725.56
   71.57        3339.00           6889        1706.00      7427.71
   71.60        3339.25           6892        1859.00      8095.01
   71.62        3339.50           6896        2027.00      8827.77
   71.65        3339.75           6900        2163.00      9420.97
   71.67        3340.00           6904        2290.00      9974.95
   71.70        3340.25           6907        2432.00     10594.38
   71.73        3340.50           6911        2595.00     11305.44
   71.75        3340.75           6915        2724.00     11868.21
   71.78        3341.00           6918        2792.00     12164.86
   71.81        3341.25           6922        2811.00     12247.76
   71.83        3341.50           6926        2886.00     12574.97
   71.86        3341.75           6930        2903.00     12649.13
   71.89        3342.00           6933        2885.00     12570.60
   71.91        3342.25           6937        2731.00     11898.74
   71.94        3342.50           6941        2592.00     11292.35
   71.97        3342.75           6945        2434.00     10603.10
   71.99        3343.00           6948        2347.00     10223.59
   72.02        3343.25           6952        2219.00      9665.24
   72.05        3343.50           6956        2040.00      8884.47
   72.07        3343.75           6959        1907.00      8304.37
   72.10        3344.00           6963        1755.00      7641.42
   72.13        3344.25           6967        1613.00      7022.12
   72.15        3344.50           6971        1462.00      6363.59
   72.18        3344.75           6974        1306.00      5683.28
   72.21        3345.00           6978        1158.00      5037.89
   72.23        3345.25           6982         995.00      4327.12
   72.26        3345.50           6986         850.00      3694.87
   72.29        3345.75           6989         738.00      3206.53
   72.31        3346.00           6993         577.00      2504.57
   72.34        3346.25           6997         466.00      2020.62
   72.37        3346.50           7001         336.00      1453.86
   72.39        3346.75           7004         268.00      1157.41
   72.42        3347.00           7008         210.00       904.56
   72.44        3347.25           7012         171.00       734.54
   72.47        3347.50           7015         160.00       686.59
   72.50        3347.75           7019         161.00       690.95
   72.52        3348.00           7023         145.00       621.20
   72.55        3348.25           7027         161.00       690.95
   72.58        3348.50           7030         166.00       712.75
   72.60        3348.75           7034         148.00       634.28
   72.63        3349.00           7038         160.00       686.59
   72.66        3349.25           7042         162.00       695.31
   72.68        3349.50           7045         155.00       664.79
   72.71        3349.75           7049         168.00       721.46
   72.74        3350.00           7053         170.00       730.18
   72.76        3350.25           7057         157.00       673.51
   72.79        3350.50           7060         176.00       756.34
   72.81        3350.75           7064         155.00       664.79
   72.84        3351.00           7068         156.00       669.15
HL scan finished at 01:13:10
end
************************************************************
  HL Scan of (1) Internal mercury lamp
************************************************************
Integration time is 0.2294 seconds per sample
dh220619El Arenosillo 37.1 6.73 3.126073pr1000
************************************************************
Dead Time -------------------------  3.3E-08 
Number of Cycles Used -------------  4 
Starting Wavelength (Angstroms) ---  3331 
Final Wavelength (Angstoms) -------  3351 
Wavelength Increment (Angstroms) --  .25 
Filter Wheel #1 Position ---------- (1) Ground quartz diffuser (ND=2.32)
Filter Wheel #2 Position ---------- 



************************************************************
HL scan start time = 02:11:17
Dark Count =  1.9 


Time (GMT)  Wavelength (Ang)  Step Number  Raw Counts  Counts/Second

  131.82        3331.00           6770         148.00       636.89
  132.04        3331.25           6773         136.00       584.58
  132.07        3331.50           6777         158.00       680.49
  132.09        3331.75           6781         148.00       636.89
  132.12        3332.00           6784         151.00       649.97
  132.15        3332.25           6788         141.00       606.38
  132.17        3332.50           6792         142.00       610.74
  132.20        3332.75           6796         143.00       615.10
  132.22        3333.00           6799         139.00       597.66
  132.25        3333.25           6803         148.00       636.89
  132.28        3333.50           6807         139.00       597.66
  132.30        3333.75           6810         148.00       636.89
  132.33        3334.00           6814         154.00       663.05
  132.36        3334.25           6818         151.00       649.97
  132.38        3334.50           6822         153.00       658.69
  132.41        3334.75           6825         149.00       641.25
  132.44        3335.00           6829         150.00       645.61
  132.46        3335.25           6833         146.00       628.17
  132.49        3335.50           6837         157.00       676.13
  132.52        3335.75           6840         177.00       763.31
  132.54        3336.00           6844         211.00       911.54
  132.57        3336.25           6848         274.00      1186.18
  132.60        3336.50           6851         364.00      1578.55
  132.62        3336.75           6855         448.00      1944.76
  132.65        3337.00           6859         622.00      2703.38
  132.68        3337.25           6863         716.00      3113.22
  132.70        3337.50           6866         850.00      3697.49
  132.73        3337.75           6870        1008.00      4386.42
  132.76        3338.00           6874        1164.00      5066.67
  132.78        3338.25           6877        1270.00      5528.91
  132.81        3338.50           6881        1439.00      6265.90
  132.83        3338.75           6885        1535.00      6684.56
  132.86        3339.00           6889        1719.00      7487.03
  132.89        3339.25           6892        1838.00      8006.04
  132.91        3339.50           6896        1952.00      8503.26
  132.94        3339.75           6900        2091.00      9109.54
  132.97        3340.00           6904        2246.00      9785.64
  132.99        3340.25           6907        2390.00     10413.78
  133.02        3340.50           6911        2483.00     10819.47
  133.04        3340.75           6915        2584.00     11260.07
  133.07        3341.00           6918        2702.00     11774.85
  133.10        3341.25           6922        2702.00     11774.85
  133.12        3341.50           6926        2708.00     11801.02
  133.15        3341.75           6930        2688.00     11713.77
  133.17        3342.00           6933        2609.00     11369.13
  133.20        3342.25           6937        2480.00     10806.38
  133.23        3342.50           6941        2371.00     10330.90
  133.25        3342.75           6945        2206.00      9611.16
  133.28        3343.00           6948        2085.00      9083.37
  133.31        3343.25           6952        2003.00      8725.70
  133.33        3343.50           6956        1841.00      8019.12
  133.36        3343.75           6959        1674.00      7290.77
  133.38        3344.00           6963        1537.00      6693.28
  133.41        3344.25           6967        1412.00      6148.15
  133.44        3344.50           6971        1266.00      5511.46
  133.46        3344.75           6974        1157.00      5036.15
  133.49        3345.00           6978        1001.00      4355.90
  133.52        3345.25           6982         853.00      3710.57
  133.54        3345.50           6986         710.00      3087.06
  133.57        3345.75           6989         613.00      2664.14
  133.60        3346.00           6993         461.00      2001.44
  133.62        3346.25           6997         358.00      1552.39
  133.65        3346.50           7001         264.00      1142.59
  133.67        3346.75           7004         206.00       889.74
  133.70        3347.00           7008         173.00       745.88
  133.73        3347.25           7012         150.00       645.61
  133.75        3347.50           7015         160.00       689.20
  133.78        3347.75           7019         155.00       667.41
  133.81        3348.00           7023         159.00       684.85
  133.83        3348.25           7027         159.00       684.85
  133.86        3348.50           7030         143.00       615.10
  133.89        3348.75           7034         155.00       667.41
  133.91        3349.00           7038         170.00       732.80
  133.94        3349.25           7042         159.00       684.85
  133.97        3349.50           7045         165.00       711.00
  133.99        3349.75           7049         148.00       636.89
  134.02        3350.00           7053         158.00       680.49
  134.04        3350.25           7057         159.00       684.85
  134.07        3350.50           7060         168.00       724.08
  134.10        3350.75           7064         171.00       737.16
  134.12        3351.00           7068         159.00       684.85
HL scan finished at 02:14:27
end
