************************************************************
  HL Scan of (1) Internal mercury lamp
************************************************************
Integration time is 0.2294 seconds per sample
dh210619El Arenosillo 37.1 6.73 2.965129pr1000
************************************************************
Dead Time -------------------------  3.3E-08 
Number of Cycles Used -------------  4 
Starting Wavelength (Angstroms) ---  3331 
Final Wavelength (Angstoms) -------  3351 
Wavelength Increment (Angstroms) --  .25 
Filter Wheel #1 Position ---------- (1) Ground quartz diffuser (ND=2.32)
Filter Wheel #2 Position ---------- 



************************************************************
HL scan start time = 02:26:30
Dark Count =  1.8 


Time (GMT)  Wavelength (Ang)  Step Number  Raw Counts  Counts/Second

  147.04        3331.00           6770         141.00       606.81
  147.26        3331.25           6773         148.00       637.33
  147.29        3331.50           6777         145.00       624.25
  147.31        3331.75           6781         146.00       628.61
  147.34        3332.00           6784         146.00       628.61
  147.37        3332.25           6788         143.00       615.53
  147.39        3332.50           6792         145.00       624.25
  147.42        3332.75           6796         151.00       650.41
  147.45        3333.00           6799         157.00       676.56
  147.47        3333.25           6803         155.00       667.84
  147.50        3333.50           6807         141.00       606.81
  147.53        3333.75           6810         154.00       663.48
  147.55        3334.00           6814         151.00       650.41
  147.58        3334.25           6818         150.00       646.05
  147.61        3334.50           6822         144.00       619.89
  147.63        3334.75           6825         147.00       632.97
  147.66        3335.00           6829         150.00       646.05
  147.69        3335.25           6833         150.00       646.05
  147.71        3335.50           6837         159.00       685.28
  147.74        3335.75           6840         163.00       702.72
  147.77        3336.00           6844         196.00       846.58
  147.79        3336.25           6848         277.00      1199.70
  147.82        3336.50           6851         363.00      1574.62
  147.84        3336.75           6855         468.00      2032.39
  147.87        3337.00           6859         626.00      2721.26
  147.90        3337.25           6863         716.00      3113.66
  147.92        3337.50           6866         837.00      3641.24
  147.95        3337.75           6870        1010.00      4395.58
  147.97        3338.00           6874        1131.00      4923.21
  148.00        3338.25           6877        1229.00      5350.55
  148.03        3338.50           6881        1351.00      5882.57
  148.05        3338.75           6885        1482.00      6453.86
  148.08        3339.00           6889        1664.00      7247.59
  148.11        3339.25           6892        1762.00      7675.00
  148.13        3339.50           6896        1875.00      8167.85
  148.16        3339.75           6900        2011.00      8761.03
  148.19        3340.00           6904        2145.00      9345.51
  148.21        3340.25           6907        2248.00      9794.80
  148.24        3340.50           6911        2376.00     10353.14
  148.27        3340.75           6915        2444.00     10649.78
  148.29        3341.00           6918        2514.00     10955.14
  148.32        3341.25           6922        2607.00     11360.84
  148.35        3341.50           6926        2590.00     11286.68
  148.37        3341.75           6930        2579.00     11238.69
  148.40        3342.00           6933        2476.00     10789.37
  148.43        3342.25           6937        2379.00     10366.23
  148.45        3342.50           6941        2237.00      9746.81
  148.48        3342.75           6945        2109.00      9188.49
  148.50        3343.00           6948        2042.00      8896.25
  148.53        3343.25           6952        1879.00      8185.30
  148.56        3343.50           6956        1704.00      7422.04
  148.58        3343.75           6959        1635.00      7121.12
  148.61        3344.00           6963        1498.00      6523.64
  148.64        3344.25           6967        1327.00      5777.91
  148.66        3344.50           6971        1183.00      5149.96
  148.69        3344.75           6974        1091.00      4748.78
  148.72        3345.00           6978         965.00      4199.36
  148.74        3345.25           6982         794.00      3453.75
  148.77        3345.50           6986         669.00      2908.74
  148.80        3345.75           6989         550.00      2389.90
  148.82        3346.00           6993         454.00      1971.36
  148.85        3346.25           6997         339.00      1469.99
  148.88        3346.50           7001         247.00      1068.91
  148.90        3346.75           7004         207.00       894.53
  148.93        3347.00           7008         168.00       724.52
  148.96        3347.25           7012         161.00       694.00
  148.98        3347.50           7015         162.00       698.36
  149.01        3347.75           7019         167.00       720.16
  149.03        3348.00           7023         155.00       667.84
  149.06        3348.25           7027         154.00       663.48
  149.09        3348.50           7030         159.00       685.28
  149.11        3348.75           7034         169.00       728.88
  149.14        3349.00           7038         170.00       733.23
  149.17        3349.25           7042         157.00       676.56
  149.19        3349.50           7045         156.00       672.20
  149.22        3349.75           7049         158.00       680.92
  149.24        3350.00           7053         168.00       724.52
  149.27        3350.25           7057         162.00       698.36
  149.30        3350.50           7060         159.00       685.28
  149.32        3350.75           7064         156.00       672.20
  149.35        3351.00           7068         159.00       685.28
HL scan finished at 02:29:41
end
