************************************************************
  HL Scan of (1) Internal mercury lamp
************************************************************
Integration time is 0.2294 seconds per sample
dh200619El Arenosillo 37.1 6.73 3.018777pr1000
************************************************************
Dead Time -------------------------  3.3E-08 
Number of Cycles Used -------------  4 
Starting Wavelength (Angstroms) ---  3331 
Final Wavelength (Angstoms) -------  3351 
Wavelength Increment (Angstroms) --  .25 
Filter Wheel #1 Position ---------- (1) Ground quartz diffuser (ND=2.32)
Filter Wheel #2 Position ---------- 



************************************************************
HL scan start time = 03:36:29
Dark Count =  1.3 


Time (GMT)  Wavelength (Ang)  Step Number  Raw Counts  Counts/Second

  217.02        3331.00           6770         127.00       547.96
  217.24        3331.25           6773         131.00       565.40
  217.27        3331.50           6777         139.00       600.27
  217.30        3331.75           6781         131.00       565.40
  217.32        3332.00           6784         130.00       561.04
  217.35        3332.25           6788         141.00       608.99
  217.38        3332.50           6792         131.00       565.40
  217.40        3332.75           6796         133.00       574.12
  217.43        3333.00           6799         124.00       534.88
  217.45        3333.25           6803         138.00       595.91
  217.48        3333.50           6807         137.00       591.55
  217.51        3333.75           6810         139.00       600.27
  217.53        3334.00           6814         138.00       595.91
  217.56        3334.25           6818         131.00       565.40
  217.59        3334.50           6822         124.00       534.88
  217.61        3334.75           6825         146.00       630.79
  217.64        3335.00           6829         138.00       595.91
  217.66        3335.25           6833         137.00       591.55
  217.69        3335.50           6837         139.00       600.27
  217.72        3335.75           6840         141.00       608.99
  217.74        3336.00           6844         184.00       796.45
  217.77        3336.25           6848         248.00      1075.45
  217.80        3336.50           6851         309.00      1341.38
  217.82        3336.75           6855         440.00      1912.50
  217.85        3337.00           6859         565.00      2457.48
  217.88        3337.25           6863         698.00      3037.36
  217.90        3337.50           6866         779.00      3390.53
  217.93        3337.75           6870         920.00      4005.32
  217.96        3338.00           6874        1073.00      4672.47
  217.98        3338.25           6877        1163.00      5064.93
  218.01        3338.50           6881        1282.00      5583.85
  218.03        3338.75           6885        1420.00      6185.66
  218.06        3339.00           6889        1564.00      6813.65
  218.09        3339.25           6892        1671.00      7280.30
  218.11        3339.50           6896        1827.00      7960.68
  218.14        3339.75           6900        1876.00      8174.39
  218.17        3340.00           6904        2037.00      8876.62
  218.19        3340.25           6907        2194.00      9561.43
  218.22        3340.50           6911        2267.00      9879.85
  218.25        3340.75           6915        2370.00     10329.15
  218.27        3341.00           6918        2436.00     10617.06
  218.30        3341.25           6922        2496.00     10878.80
  218.32        3341.50           6926        2447.00     10665.04
  218.35        3341.75           6930        2445.00     10656.32
  218.38        3342.00           6933        2411.00     10508.00
  218.40        3342.25           6937        2293.00      9993.27
  218.43        3342.50           6941        2224.00      9692.29
  218.46        3342.75           6945        2065.00      8998.75
  218.48        3343.00           6948        1951.00      8501.51
  218.51        3343.25           6952        1797.00      7829.83
  218.54        3343.50           6956        1692.00      7371.89
  218.56        3343.75           6959        1574.00      6857.26
  218.59        3344.00           6963        1473.00      6416.79
  218.62        3344.25           6967        1321.00      5753.93
  218.64        3344.50           6971        1168.00      5086.73
  218.67        3344.75           6974        1086.00      4729.16
  218.70        3345.00           6978         949.00      4131.78
  218.72        3345.25           6982         804.00      3499.53
  218.75        3345.50           6986         684.00      2976.32
  218.77        3345.75           6989         577.00      2509.80
  218.80        3346.00           6993         452.00      1964.82
  218.83        3346.25           6997         357.00      1550.65
  218.86        3346.50           7001         250.00      1084.17
  218.88        3346.75           7004         201.00       870.56
  218.91        3347.00           7008         172.00       744.13
  218.93        3347.25           7012         152.00       656.95
  218.96        3347.50           7015         152.00       656.95
  218.99        3347.75           7019         140.00       604.63
  219.01        3348.00           7023         143.00       617.71
  219.04        3348.25           7027         147.00       635.15
  219.07        3348.50           7030         141.00       608.99
  219.09        3348.75           7034         146.00       630.79
  219.12        3349.00           7038         154.00       665.66
  219.14        3349.25           7042         145.00       626.43
  219.17        3349.50           7045         149.00       643.87
  219.20        3349.75           7049         136.00       587.20
  219.22        3350.00           7053         140.00       604.63
  219.25        3350.25           7057         140.00       604.63
  219.28        3350.50           7060         148.00       639.51
  219.30        3350.75           7064         146.00       630.79
  219.33        3351.00           7068         142.00       613.35
HL scan finished at 03:39:40
end
