************************************************************
  HL Scan of (1) Internal mercury lamp
************************************************************
Integration time is 0.2294 seconds per sample
dh230619El Arenosillo 37.1 6.73 2.965129pr1000
************************************************************
Dead Time -------------------------  3.3E-08 
Number of Cycles Used -------------  4 
Starting Wavelength (Angstroms) ---  3331 
Final Wavelength (Angstoms) -------  3351 
Wavelength Increment (Angstroms) --  .25 
Filter Wheel #1 Position ---------- (1) Ground quartz diffuser (ND=2.32)
Filter Wheel #2 Position ---------- 



************************************************************
HL scan start time = 02:12:26
Dark Count =  1.4 


Time (GMT)  Wavelength (Ang)  Step Number  Raw Counts  Counts/Second

  132.97        3331.00           6770         132.00       569.32
  133.20        3331.25           6773         149.00       643.43
  133.22        3331.50           6777         143.00       617.28
  133.25        3331.75           6781         139.00       599.84
  133.28        3332.00           6784         138.00       595.48
  133.30        3332.25           6788         149.00       643.43
  133.33        3332.50           6792         134.00       578.04
  133.36        3332.75           6796         149.00       643.43
  133.38        3333.00           6799         138.00       595.48
  133.41        3333.25           6803         144.00       621.63
  133.44        3333.50           6807         141.00       608.56
  133.46        3333.75           6810         140.00       604.20
  133.49        3334.00           6814         137.00       591.12
  133.51        3334.25           6818         150.00       647.79
  133.54        3334.50           6822         154.00       665.23
  133.57        3334.75           6825         156.00       673.95
  133.59        3335.00           6829         142.00       612.92
  133.62        3335.25           6833         139.00       599.84
  133.65        3335.50           6837         149.00       643.43
  133.67        3335.75           6840         162.00       700.10
  133.70        3336.00           6844         205.00       887.56
  133.73        3336.25           6848         253.00      1096.81
  133.75        3336.50           6851         341.00      1480.46
  133.78        3336.75           6855         456.00      1981.82
  133.80        3337.00           6859         574.00      2496.28
  133.83        3337.25           6863         712.00      3097.96
  133.86        3337.50           6866         824.00      3586.30
  133.88        3337.75           6870         973.00      4235.99
  133.91        3338.00           6874        1108.00      4824.66
  133.94        3338.25           6877        1204.00      5243.28
  133.96        3338.50           6881        1328.00      5784.02
  133.99        3338.75           6885        1474.00      6420.72
  134.01        3339.00           6889        1649.00      7183.92
  134.04        3339.25           6892        1748.00      7615.69
  134.07        3339.50           6896        1854.00      8078.00
  134.09        3339.75           6900        1996.00      8697.35
  134.12        3340.00           6904        2100.00      9150.98
  134.15        3340.25           6907        2201.00      9591.53
  134.17        3340.50           6911        2361.00     10289.46
  134.20        3340.75           6915        2414.00     10520.65
  134.23        3341.00           6918        2511.00     10943.80
  134.25        3341.25           6922        2519.00     10978.70
  134.28        3341.50           6926        2532.00     11035.40
  134.30        3341.75           6930        2494.00     10869.64
  134.33        3342.00           6933        2424.00     10564.28
  134.36        3342.25           6937        2318.00     10101.89
  134.38        3342.50           6941        2212.00      9639.51
  134.41        3342.75           6945        2087.00      9094.27
  134.44        3343.00           6948        1954.00      8514.16
  134.46        3343.25           6952        1826.00      7955.88
  134.49        3343.50           6956        1694.00      7380.18
  134.52        3343.75           6959        1561.00      6800.13
  134.54        3344.00           6963        1491.00      6494.85
  134.57        3344.25           6967        1337.00      5823.26
  134.60        3344.50           6971        1191.00      5186.59
  134.62        3344.75           6974        1085.00      4724.36
  134.65        3345.00           6978         968.00      4214.19
  134.68        3345.25           6982         801.00      3486.02
  134.70        3345.50           6986         687.00      2988.96
  134.73        3345.75           6989         595.00      2587.84
  134.76        3346.00           6993         456.00      1981.82
  134.78        3346.25           6997         378.00      1641.76
  134.81        3346.50           7001         254.00      1101.17
  134.83        3346.75           7004         205.00       887.56
  134.86        3347.00           7008         169.00       730.62
  134.89        3347.25           7012         175.00       756.78
  134.91        3347.50           7015         150.00       647.79
  134.94        3347.75           7019         147.00       634.71
  134.97        3348.00           7023         150.00       647.79
  134.99        3348.25           7027         145.00       625.99
  135.02        3348.50           7030         150.00       647.79
  135.04        3348.75           7034         149.00       643.43
  135.07        3349.00           7038         140.00       604.20
  135.10        3349.25           7042         152.00       656.51
  135.12        3349.50           7045         146.00       630.35
  135.15        3349.75           7049         160.00       691.38
  135.18        3350.00           7053         157.00       678.31
  135.20        3350.25           7057         158.00       682.67
  135.23        3350.50           7060         153.00       660.87
  135.26        3350.75           7064         155.00       669.59
  135.28        3351.00           7068         158.00       682.67
HL scan finished at 02:15:37
end
************************************************************
  HL Scan of (1) Internal mercury lamp
************************************************************
Integration time is 0.2294 seconds per sample
dh230619El Arenosillo 37.1 6.73 3.018777pr1000
************************************************************
Dead Time -------------------------  3.3E-08 
Number of Cycles Used -------------  4 
Starting Wavelength (Angstroms) ---  3331 
Final Wavelength (Angstoms) -------  3351 
Wavelength Increment (Angstroms) --  .25 
Filter Wheel #1 Position ---------- (1) Ground quartz diffuser (ND=2.32)
Filter Wheel #2 Position ---------- 



************************************************************
HL scan start time = 21:46:02
Dark Count =  1.7 


Time (GMT)  Wavelength (Ang)  Step Number  Raw Counts  Counts/Second

 1306.57        3331.00           6770         125.00       537.50
 1306.80        3331.25           6773         133.00       572.37
 1306.82        3331.50           6777         143.00       615.97
 1306.85        3331.75           6781         137.00       589.81
 1306.87        3332.00           6784         142.00       611.61
 1306.90        3332.25           6788         153.00       659.56
 1306.93        3332.50           6792         142.00       611.61
 1306.95        3332.75           6796         133.00       572.37
 1306.98        3333.00           6799         139.00       598.53
 1307.01        3333.25           6803         134.00       576.73
 1307.03        3333.50           6807         154.00       663.92
 1307.06        3333.75           6810         142.00       611.61
 1307.08        3334.00           6814         142.00       611.61
 1307.11        3334.25           6818         141.00       607.25
 1307.14        3334.50           6822         160.00       690.08
 1307.16        3334.75           6825         148.00       637.76
 1307.19        3335.00           6829         149.00       642.12
 1307.22        3335.25           6833         153.00       659.56
 1307.24        3335.50           6837         147.00       633.40
 1307.27        3335.75           6840         160.00       690.08
 1307.30        3336.00           6844         187.00       807.78
 1307.32        3336.25           6848         250.00      1082.43
 1307.35        3336.50           6851         314.00      1361.44
 1307.38        3336.75           6855         426.00      1849.72
 1307.40        3337.00           6859         555.00      2412.14
 1307.43        3337.25           6863         673.00      2926.61
 1307.46        3337.50           6866         771.00      3353.90
 1307.48        3337.75           6870         926.00      4029.74
 1307.51        3338.00           6874        1015.00      4417.82
 1307.54        3338.25           6877        1177.00      5124.23
 1307.56        3338.50           6881        1297.00      5647.52
 1307.59        3338.75           6885        1448.00      6306.02
 1307.61        3339.00           6889        1603.00      6981.99
 1307.64        3339.25           6892        1660.00      7230.58
 1307.67        3339.50           6896        1809.00      7880.43
 1307.69        3339.75           6900        1918.00      8355.83
 1307.72        3340.00           6904        2069.00      9014.45
 1307.75        3340.25           6907        2174.00      9472.45
 1307.77        3340.50           6911        2292.00      9987.16
 1307.80        3340.75           6915        2391.00     10419.01
 1307.83        3341.00           6918        2462.00     10728.73
 1307.85        3341.25           6922        2521.00     10986.11
 1307.88        3341.50           6926        2527.00     11012.28
 1307.91        3341.75           6930        2519.00     10977.39
 1307.93        3342.00           6933        2429.00     10584.78
 1307.96        3342.25           6937        2319.00     10104.94
 1307.99        3342.50           6941        2214.00      9646.92
 1308.01        3342.75           6945        2091.00      9110.41
 1308.04        3343.00           6948        1955.00      8517.22
 1308.07        3343.25           6952        1844.00      8033.08
 1308.09        3343.50           6956        1685.00      7339.62
 1308.12        3343.75           6959        1616.00      7038.69
 1308.14        3344.00           6963        1469.00      6397.60
 1308.17        3344.25           6967        1338.00      5826.32
 1308.20        3344.50           6971        1210.00      5268.14
 1308.22        3344.75           6974        1120.00      4875.68
 1308.25        3345.00           6978         970.00      4221.60
 1308.28        3345.25           6982         812.00      3532.67
 1308.30        3345.50           6986         694.00      3018.17
 1308.33        3345.75           6989         590.00      2564.73
 1308.36        3346.00           6993         466.00      2024.11
 1308.38        3346.25           6997         336.00      1457.35
 1308.41        3346.50           7001         237.00      1025.75
 1308.44        3346.75           7004         210.00       908.05
 1308.46        3347.00           7008         171.00       738.03
 1308.49        3347.25           7012         160.00       690.08
 1308.52        3347.50           7015         152.00       655.20
 1308.54        3347.75           7019         170.00       733.67
 1308.57        3348.00           7023         156.00       672.64
 1308.59        3348.25           7027         148.00       637.76
 1308.62        3348.50           7030         152.00       655.20
 1308.65        3348.75           7034         149.00       642.12
 1308.67        3349.00           7038         157.00       677.00
 1308.70        3349.25           7042         145.00       624.69
 1308.73        3349.50           7045         157.00       677.00
 1308.75        3349.75           7049         151.00       650.84
 1308.78        3350.00           7053         157.00       677.00
 1308.81        3350.25           7057         149.00       642.12
 1308.83        3350.50           7060         156.00       672.64
 1308.86        3350.75           7064         153.00       659.56
 1308.88        3351.00           7068         154.00       663.92
HL scan finished at 21:49:13
end
