************************************************************
  HL Scan of (1) Internal mercury lamp
************************************************************
Integration time is 0.2294 seconds per sample
dh240619El Arenosillo 37.1 6.73 3.018777pr1000
************************************************************
Dead Time -------------------------  3.3E-08 
Number of Cycles Used -------------  4 
Starting Wavelength (Angstroms) ---  3331 
Final Wavelength (Angstoms) -------  3351 
Wavelength Increment (Angstroms) --  .25 
Filter Wheel #1 Position ---------- (1) Ground quartz diffuser (ND=2.32)
Filter Wheel #2 Position ---------- 



************************************************************
HL scan start time = 02:10:09
Dark Count =  1.7 


Time (GMT)  Wavelength (Ang)  Step Number  Raw Counts  Counts/Second

  130.69        3331.00           6770         146.00       629.05
  130.91        3331.25           6773         145.00       624.69
  130.94        3331.50           6777         139.00       598.53
  130.96        3331.75           6781         137.00       589.81
  130.99        3332.00           6784         160.00       690.08
  131.01        3332.25           6788         164.00       707.51
  131.04        3332.50           6792         149.00       642.12
  131.07        3332.75           6796         147.00       633.40
  131.09        3333.00           6799         131.00       563.65
  131.12        3333.25           6803         143.00       615.97
  131.14        3333.50           6807         147.00       633.40
  131.17        3333.75           6810         143.00       615.97
  131.20        3334.00           6814         153.00       659.56
  131.22        3334.25           6818         145.00       624.69
  131.25        3334.50           6822         136.00       585.45
  131.27        3334.75           6825         147.00       633.40
  131.30        3335.00           6829         147.00       633.40
  131.33        3335.25           6833         151.00       650.84
  131.35        3335.50           6837         159.00       685.72
  131.38        3335.75           6840         160.00       690.08
  131.41        3336.00           6844         188.00       812.14
  131.43        3336.25           6848         248.00      1073.71
  131.46        3336.50           6851         322.00      1396.32
  131.49        3336.75           6855         446.00      1936.92
  131.51        3337.00           6859         569.00      2473.17
  131.54        3337.25           6863         711.00      3092.29
  131.56        3337.50           6866         818.00      3558.83
  131.59        3337.75           6870         964.00      4195.44
  131.62        3338.00           6874        1082.00      4709.97
  131.64        3338.25           6877        1224.00      5329.19
  131.67        3338.50           6881        1367.00      5952.78
  131.70        3338.75           6885        1482.00      6454.30
  131.73        3339.00           6889        1572.00      6846.80
  131.76        3339.25           6892        1726.00      7518.43
  131.78        3339.50           6896        1883.00      8203.18
  131.81        3339.75           6900        2029.00      8839.98
  131.84        3340.00           6904        2143.00      9337.23
  131.86        3340.25           6907        2253.00      9817.04
  131.89        3340.50           6911        2414.00     10519.35
  131.91        3340.75           6915        2487.00     10837.79
  131.94        3341.00           6918        2545.00     11090.81
  131.97        3341.25           6922        2555.00     11134.43
  131.99        3341.50           6926        2647.00     11535.78
  132.02        3341.75           6930        2596.00     11313.29
  132.05        3342.00           6933        2518.00     10973.02
  132.07        3342.25           6937        2393.00     10427.74
  132.10        3342.50           6941        2265.00      9869.39
  132.13        3342.75           6945        2060.00      8975.20
  132.15        3343.00           6948        1999.00      8709.13
  132.18        3343.25           6952        1894.00      8251.16
  132.20        3343.50           6956        1729.00      7531.51
  132.23        3343.75           6959        1658.00      7221.86
  132.26        3344.00           6963        1554.00      6768.30
  132.28        3344.25           6967        1383.00      6022.56
  132.31        3344.50           6971        1254.00      5460.01
  132.34        3344.75           6974        1152.00      5015.22
  132.36        3345.00           6978         988.00      4300.09
  132.39        3345.25           6982         873.00      3798.65
  132.42        3345.50           6986         705.00      3066.13
  132.44        3345.75           6989         661.00      2874.29
  132.47        3346.00           6993         496.00      2154.90
  132.49        3346.25           6997         368.00      1596.86
  132.52        3346.50           7001         261.00      1130.38
  132.55        3346.75           7004         233.00      1008.32
  132.57        3347.00           7008         180.00       777.26
  132.60        3347.25           7012         161.00       694.44
  132.63        3347.50           7015         157.00       677.00
  132.65        3347.75           7019         160.00       690.08
  132.68        3348.00           7023         154.00       663.92
  132.71        3348.25           7027         150.00       646.48
  132.73        3348.50           7030         161.00       694.44
  132.76        3348.75           7034         160.00       690.08
  132.79        3349.00           7038         151.00       650.84
  132.81        3349.25           7042         139.00       598.53
  132.84        3349.50           7045         163.00       703.16
  132.87        3349.75           7049         165.00       711.87
  132.89        3350.00           7053         144.00       620.33
  132.92        3350.25           7057         169.00       729.31
  132.94        3350.50           7060         151.00       650.84
  132.97        3350.75           7064         151.00       650.84
  133.00        3351.00           7068         155.00       668.28
HL scan finished at 02:13:20
end
************************************************************
  HL Scan of (1) Internal mercury lamp
************************************************************
Integration time is 0.2294 seconds per sample
dh240619El Arenosillo 37.1 6.73 3.126073pr1000
************************************************************
Dead Time -------------------------  3.3E-08 
Number of Cycles Used -------------  4 
Starting Wavelength (Angstroms) ---  3331 
Final Wavelength (Angstoms) -------  3351 
Wavelength Increment (Angstroms) --  .25 
Filter Wheel #1 Position ---------- (1) Ground quartz diffuser (ND=2.32)
Filter Wheel #2 Position ---------- 



************************************************************
HL scan start time = 20:42:39
Dark Count =  2.5 


Time (GMT)  Wavelength (Ang)  Step Number  Raw Counts  Counts/Second

 1243.18        3331.00           6770         133.00       568.89
 1243.41        3331.25           6773         147.00       629.92
 1243.43        3331.50           6777         147.00       629.92
 1243.46        3331.75           6781         150.00       643.00
 1243.49        3332.00           6784         155.00       664.79
 1243.51        3332.25           6788         141.00       603.76
 1243.54        3332.50           6792         135.00       577.60
 1243.56        3332.75           6796         163.00       699.67
 1243.59        3333.00           6799         140.00       599.40
 1243.62        3333.25           6803         162.00       695.31
 1243.64        3333.50           6807         165.00       708.39
 1243.67        3333.75           6810         151.00       647.35
 1243.69        3334.00           6814         145.00       621.20
 1243.72        3334.25           6818         154.00       660.43
 1243.75        3334.50           6822         147.00       629.92
 1243.77        3334.75           6825         154.00       660.43
 1243.80        3335.00           6829         147.00       629.92
 1243.82        3335.25           6833         161.00       690.95
 1243.85        3335.50           6837         164.00       704.03
 1243.88        3335.75           6840         166.00       712.75
 1243.90        3336.00           6844         200.00       860.97
 1243.93        3336.25           6848         279.00      1205.37
 1243.96        3336.50           6851         350.00      1514.90
 1243.98        3336.75           6855         472.00      2046.78
 1244.01        3337.00           6859         617.00      2678.96
 1244.03        3337.25           6863         789.00      3428.90
 1244.06        3337.50           6866         897.00      3899.80
 1244.09        3337.75           6870        1011.00      4396.89
 1244.12        3338.00           6874        1168.00      5081.50
 1244.14        3338.25           6877        1267.00      5513.21
 1244.17        3338.50           6881        1450.00      6311.25
 1244.19        3338.75           6885        1568.00      6825.86
 1244.22        3339.00           6889        1740.00      7576.00
 1244.25        3339.25           6892        1880.00      8186.61
 1244.27        3339.50           6896        2042.00      8893.19
 1244.30        3339.75           6900        2183.00      9508.22
 1244.33        3340.00           6904        2295.00      9996.76
 1244.35        3340.25           6907        2436.00     10611.82
 1244.38        3340.50           6911        2545.00     11087.32
 1244.41        3340.75           6915        2664.00     11606.45
 1244.43        3341.00           6918        2741.00     11942.37
 1244.46        3341.25           6922        2799.00     12195.40
 1244.49        3341.50           6926        2841.00     12378.64
 1244.51        3341.75           6930        2800.00     12199.77
 1244.54        3342.00           6933        2742.00     11946.73
 1244.57        3342.25           6937        2609.00     11366.51
 1244.59        3342.50           6941        2493.00     10860.48
 1244.62        3342.75           6945        2289.00      9970.59
 1244.65        3343.00           6948        2182.00      9503.85
 1244.67        3343.25           6952        2057.00      8958.62
 1244.70        3343.50           6956        1891.00      8234.58
 1244.72        3343.75           6959        1781.00      7754.82
 1244.75        3344.00           6963        1655.00      7205.29
 1244.78        3344.25           6967        1502.00      6538.03
 1244.80        3344.50           6971        1375.00      5984.18
 1244.83        3344.75           6974        1235.00      5373.66
 1244.86        3345.00           6978        1060.00      4610.55
 1244.88        3345.25           6982         881.00      3830.04
 1244.91        3345.50           6986         737.00      3202.17
 1244.94        3345.75           6989         633.00      2748.72
 1244.96        3346.00           6993         500.00      2168.86
 1244.99        3346.25           6997         363.00      1571.57
 1245.02        3346.50           7001         280.00      1209.73
 1245.04        3346.75           7004         213.00       917.64
 1245.07        3347.00           7008         174.00       747.62
 1245.10        3347.25           7012         153.00       656.07
 1245.12        3347.50           7015         153.00       656.07
 1245.15        3347.75           7019         162.00       695.31
 1245.18        3348.00           7023         166.00       712.75
 1245.20        3348.25           7027         161.00       690.95
 1245.23        3348.50           7030         158.00       677.87
 1245.25        3348.75           7034         159.00       682.23
 1245.28        3349.00           7038         160.00       686.59
 1245.31        3349.25           7042         149.00       638.64
 1245.33        3349.50           7045         163.00       699.67
 1245.36        3349.75           7049         170.00       730.18
 1245.39        3350.00           7053         152.00       651.71
 1245.41        3350.25           7057         153.00       656.07
 1245.44        3350.50           7060         149.00       638.64
 1245.46        3350.75           7064         161.00       690.95
 1245.49        3351.00           7068         165.00       708.39
HL scan finished at 20:45:49
end
