************************************************************
  HL Scan of (1) Internal mercury lamp
************************************************************
Integration time is 0.2294 seconds per sample
dh220619El Arenosillo 37.1 6.73 3.126073pr1000
************************************************************
Dead Time -------------------------  3.3E-08 
Number of Cycles Used -------------  4 
Starting Wavelength (Angstroms) ---  3331 
Final Wavelength (Angstoms) -------  3351 
Wavelength Increment (Angstroms) --  .25 
Filter Wheel #1 Position ---------- (1) Ground quartz diffuser (ND=2.32)
Filter Wheel #2 Position ---------- 



************************************************************
HL scan start time = 01:10:00
Dark Count =  2.5 


Time (GMT)  Wavelength (Ang)  Step Number  Raw Counts  Counts/Second

   70.53        3331.00           6770         151.00       647.35
   70.75        3331.25           6773         151.00       647.35
   70.78        3331.50           6777         140.00       599.40
   70.81        3331.75           6781         147.00       629.92
   70.83        3332.00           6784         151.00       647.35
   70.86        3332.25           6788         141.00       603.76
   70.89        3332.50           6792         155.00       664.79
   70.91        3332.75           6796         154.00       660.43
   70.94        3333.00           6799         148.00       634.28
   70.96        3333.25           6803         151.00       647.35
   70.99        3333.50           6807         156.00       669.15
   71.02        3333.75           6810         155.00       664.79
   71.04        3334.00           6814         148.00       634.28
   71.07        3334.25           6818         142.00       608.12
   71.09        3334.50           6822         154.00       660.43
   71.12        3334.75           6825         152.00       651.71
   71.15        3335.00           6829         159.00       682.23
   71.17        3335.25           6833         153.00       656.07
   71.20        3335.50           6837         167.00       717.11
   71.23        3335.75           6840         160.00       686.59
   71.25        3336.00           6844         179.00       769.42
   71.28        3336.25           6848         228.00       983.03
   71.31        3336.50           6851         297.00      1283.84
   71.33        3336.75           6855         414.00      1793.92
   71.36        3337.00           6859         571.00      2478.41
   71.38        3337.25           6863         698.00      3032.13
   71.41        3337.50           6866         798.00      3468.14
   71.44        3337.75           6870         971.00      4222.47
   71.46        3338.00           6874        1147.00      4989.92
   71.49        3338.25           6877        1259.00      5478.32
   71.52        3338.50           6881        1414.00      6154.26
   71.54        3338.75           6885        1545.00      6725.56
   71.57        3339.00           6889        1706.00      7427.71
   71.60        3339.25           6892        1859.00      8095.01
   71.62        3339.50           6896        2027.00      8827.77
   71.65        3339.75           6900        2163.00      9420.97
   71.67        3340.00           6904        2290.00      9974.95
   71.70        3340.25           6907        2432.00     10594.38
   71.73        3340.50           6911        2595.00     11305.44
   71.75        3340.75           6915        2724.00     11868.21
   71.78        3341.00           6918        2792.00     12164.86
   71.81        3341.25           6922        2811.00     12247.76
   71.83        3341.50           6926        2886.00     12574.97
   71.86        3341.75           6930        2903.00     12649.13
   71.89        3342.00           6933        2885.00     12570.60
   71.91        3342.25           6937        2731.00     11898.74
   71.94        3342.50           6941        2592.00     11292.35
   71.97        3342.75           6945        2434.00     10603.10
   71.99        3343.00           6948        2347.00     10223.59
   72.02        3343.25           6952        2219.00      9665.24
   72.05        3343.50           6956        2040.00      8884.47
   72.07        3343.75           6959        1907.00      8304.37
   72.10        3344.00           6963        1755.00      7641.42
   72.13        3344.25           6967        1613.00      7022.12
   72.15        3344.50           6971        1462.00      6363.59
   72.18        3344.75           6974        1306.00      5683.28
   72.21        3345.00           6978        1158.00      5037.89
   72.23        3345.25           6982         995.00      4327.12
   72.26        3345.50           6986         850.00      3694.87
   72.29        3345.75           6989         738.00      3206.53
   72.31        3346.00           6993         577.00      2504.57
   72.34        3346.25           6997         466.00      2020.62
   72.37        3346.50           7001         336.00      1453.86
   72.39        3346.75           7004         268.00      1157.41
   72.42        3347.00           7008         210.00       904.56
   72.44        3347.25           7012         171.00       734.54
   72.47        3347.50           7015         160.00       686.59
   72.50        3347.75           7019         161.00       690.95
   72.52        3348.00           7023         145.00       621.20
   72.55        3348.25           7027         161.00       690.95
   72.58        3348.50           7030         166.00       712.75
   72.60        3348.75           7034         148.00       634.28
   72.63        3349.00           7038         160.00       686.59
   72.66        3349.25           7042         162.00       695.31
   72.68        3349.50           7045         155.00       664.79
   72.71        3349.75           7049         168.00       721.46
   72.74        3350.00           7053         170.00       730.18
   72.76        3350.25           7057         157.00       673.51
   72.79        3350.50           7060         176.00       756.34
   72.81        3350.75           7064         155.00       664.79
   72.84        3351.00           7068         156.00       669.15
HL scan finished at 01:13:10
end
