************************************************************
  HS Scan of (1) Internal mercury lamp
************************************************************
Integration time is 0.2294 seconds per sample
dh290517Arenosillo 37.1 6.73 3.179721pr1000
************************************************************
Dead Time -------------------------  3.3E-08 
Number of Cycles Used -------------  4 
Starting Wavelength (Angstroms) ---  2950 
Final Wavelength (Angstoms) -------  2984 
Wavelength Increment (Angstroms) --  .25 
Filter Wheel #1 Position ---------- (1) Ground quartz diffuser (ND=2.32)
Filter Wheel #2 Position ---------- (1) Neutral Density 0.494



************************************************************
HS scan start time = 20:16:59
Dark Count =  .4 


Time (GMT)  Wavelength (Ang)  Step Number  Raw Counts  Counts/Second

 1217.22        2950.00           1431         191.00       830.89
 1217.29        2950.25           1434         189.00       822.17
 1217.32        2950.50           1437         197.00       857.04
 1217.34        2950.75           1440         200.00       870.12
 1217.37        2951.00           1444         217.00       944.23
 1217.40        2951.25           1447         199.00       865.76
 1217.42        2951.50           1450         212.00       922.43
 1217.45        2951.75           1454         213.00       926.79
 1217.47        2952.00           1457         222.00       966.03
 1217.50        2952.25           1460         223.00       970.39
 1217.53        2952.50           1464         234.00      1018.34
 1217.55        2952.75           1467         239.00      1040.14
 1217.58        2953.00           1470         218.00       948.59
 1217.61        2953.25           1473         244.00      1061.94
 1217.64        2953.50           1477         240.00      1044.50
 1217.66        2953.75           1480         240.00      1044.50
 1217.69        2954.00           1483         240.00      1044.50
 1217.72        2954.25           1487         268.00      1166.57
 1217.74        2954.50           1490         258.00      1122.97
 1217.77        2954.75           1493         266.00      1157.85
 1217.80        2955.00           1497         255.00      1109.89
 1217.82        2955.25           1500         285.00      1240.68
 1217.85        2955.50           1503         279.00      1214.52
 1217.87        2955.75           1506         284.00      1236.32
 1217.90        2956.00           1510         286.00      1245.04
 1217.93        2956.25           1513         293.00      1275.56
 1217.95        2956.50           1516         304.00      1323.51
 1217.98        2956.75           1520         313.00      1362.75
 1218.00        2957.00           1523         312.00      1358.39
 1218.03        2957.25           1526         312.00      1358.39
 1218.06        2957.50           1530         337.00      1467.38
 1218.08        2957.75           1533         316.00      1375.83
 1218.11        2958.00           1536         330.00      1436.86
 1218.14        2958.25           1539         328.00      1428.14
 1218.16        2958.50           1543         331.00      1441.22
 1218.19        2958.75           1546         345.00      1502.25
 1218.21        2959.00           1549         354.00      1541.49
 1218.24        2959.25           1553         374.00      1628.68
 1218.27        2959.50           1556         383.00      1667.92
 1218.29        2959.75           1559         403.00      1755.11
 1218.32        2960.00           1563         401.00      1746.40
 1218.34        2960.25           1566         392.00      1707.16
 1218.37        2960.50           1569         409.00      1781.27
 1218.40        2960.75           1572         418.00      1820.51
 1218.42        2961.00           1576         479.00      2086.46
 1218.45        2961.25           1579         797.00      3472.93
 1218.48        2961.50           1582        2266.00      9879.42
 1218.50        2961.75           1586        6985.00     30477.89
 1218.53        2962.00           1589       11872.00     51839.26
 1218.55        2962.25           1592       17283.00     75526.28
 1218.58        2962.50           1596       24856.00    108740.00
 1218.61        2962.75           1599       29884.00    130832.20
 1218.63        2963.00           1602       35179.00    154132.50
 1218.66        2963.25           1606       42551.00    186632.40
 1218.69        2963.50           1609       47755.00    209616.80
 1218.71        2963.75           1612       52740.00    231666.70
 1218.74        2964.00           1616       59677.00    262404.60
 1218.76        2964.25           1619       64610.00    284300.90
 1218.79        2964.50           1622       70007.00    308293.20
 1218.82        2964.75           1625       75213.00    331472.70
 1218.84        2965.00           1629       81776.00    360745.10
 1218.87        2965.25           1632       86814.00    383254.40
 1218.90        2965.50           1635       91642.00    404856.90
 1218.92        2965.75           1639       98656.00    436296.00
 1218.95        2966.00           1642      103051.00    456029.40
 1218.97        2966.25           1645      107903.00    477844.80
 1219.00        2966.50           1649      112013.00    496348.90
 1219.03        2966.75           1652      113463.00    502882.50
 1219.05        2967.00           1655      113939.00    505028.00
 1219.08        2967.25           1659      114160.00    506024.20
 1219.11        2967.50           1662      113731.00    504090.40
 1219.13        2967.75           1665      112908.00    500381.40
 1219.16        2968.00           1668      111165.00    492529.10
 1219.19        2968.25           1672      106362.00    470912.80
 1219.21        2968.50           1675      101395.00    448591.00
 1219.24        2968.75           1678       96528.00    426750.70
 1219.26        2969.00           1682       89442.00    395009.30
 1219.29        2969.25           1685       84627.00    373479.00
 1219.32        2969.50           1688       79079.00    348709.00
 1219.34        2969.75           1692       71552.00    315168.60
 1219.37        2970.00           1695       66402.00    292263.00
 1219.40        2970.25           1698       60869.00    267692.60
 1219.42        2970.50           1702       53596.00    235456.30
 1219.45        2970.75           1705       48453.00    212702.30
 1219.47        2971.00           1708       43324.00    190044.30
 1219.50        2971.25           1712       36678.00    160735.30
 1219.53        2971.50           1715       31352.00    137288.40
 1219.55        2971.75           1718       25855.00    113126.90
 1219.58        2972.00           1722       19071.00     83361.53
 1219.61        2972.25           1725       14037.00     61312.25
 1219.63        2972.50           1728        9040.00     39456.75
 1219.66        2972.75           1732        4007.00     17475.64
 1219.68        2973.00           1735        1766.00      7698.56
 1219.71        2973.25           1738         864.00      3765.07
 1219.74        2973.50           1741         505.00      2199.81
 1219.76        2973.75           1745         414.00      1803.07
 1219.79        2974.00           1748         390.00      1698.44
 1219.82        2974.25           1751         402.00      1750.76
 1219.84        2974.50           1755         361.00      1572.01
 1219.87        2974.75           1758         371.00      1615.60
 1219.89        2975.00           1761         366.00      1593.81
 1219.92        2975.25           1765         359.00      1563.29
 1219.95        2975.50           1768         350.00      1524.05
 1219.97        2975.75           1771         336.00      1463.02
 1220.00        2976.00           1775         338.00      1471.74
 1220.02        2976.25           1778         316.00      1375.83
 1220.05        2976.50           1781         325.00      1415.06
 1220.08        2976.75           1785         310.00      1349.67
 1220.10        2977.00           1788         319.00      1388.90
 1220.13        2977.25           1791         298.00      1297.35
 1220.16        2977.50           1795         292.00      1271.20
 1220.18        2977.75           1798         285.00      1240.68
 1220.21        2978.00           1801         293.00      1275.56
 1220.23        2978.25           1805         286.00      1245.04
 1220.26        2978.50           1808         285.00      1240.68
 1220.29        2978.75           1811         278.00      1210.16
 1220.31        2979.00           1815         264.00      1149.13
 1220.34        2979.25           1818         257.00      1118.61
 1220.36        2979.50           1821         252.00      1096.81
 1220.39        2979.75           1825         250.00      1088.10
 1220.42        2980.00           1828         246.00      1070.66
 1220.44        2980.25           1831         238.00      1035.78
 1220.47        2980.50           1835         252.00      1096.81
 1220.49        2980.75           1838         237.00      1031.42
 1220.52        2981.00           1841         242.00      1053.22
 1220.55        2981.25           1845         225.00       979.11
 1220.57        2981.50           1848         224.00       974.75
 1220.60        2981.75           1851         221.00       961.67
 1220.63        2982.00           1854         215.00       935.51
 1220.65        2982.25           1858         216.00       939.87
 1220.68        2982.50           1861         214.00       931.15
 1220.70        2982.75           1864         221.00       961.67
 1220.73        2983.00           1868         194.00       843.96
 1220.76        2983.25           1871         205.00       891.92
 1220.79        2983.50           1874         197.00       857.04
 1220.81        2983.75           1878         199.00       865.76
 1220.84        2984.00           1881         210.00       913.72
HS scan finished at 20:20:57
end
************************************************************
  HS Scan of (1) Internal mercury lamp
************************************************************
Integration time is 0.2294 seconds per sample
dh290517Arenosillo 37.1 6.73 3.233369pr1000
************************************************************
Dead Time -------------------------  3.3E-08 
Number of Cycles Used -------------  4 
Starting Wavelength (Angstroms) ---  2950 
Final Wavelength (Angstoms) -------  2984 
Wavelength Increment (Angstroms) --  .25 
Filter Wheel #1 Position ---------- (1) Ground quartz diffuser (ND=2.32)
Filter Wheel #2 Position ---------- (1) Neutral Density 0.494



************************************************************
HS scan start time = 22:40:34
Dark Count =  .6 


Time (GMT)  Wavelength (Ang)  Step Number  Raw Counts  Counts/Second

 1360.81        2950.00           1431         229.00       995.67
 1360.88        2950.25           1434         224.00       973.88
 1360.90        2950.50           1437         215.00       934.64
 1360.93        2950.75           1440         227.00       986.95
 1360.96        2951.00           1444         232.00      1008.75
 1360.98        2951.25           1447         236.00      1026.19
 1361.01        2951.50           1450         230.00      1000.03
 1361.03        2951.75           1454         240.00      1043.63
 1361.06        2952.00           1457         255.00      1109.02
 1361.09        2952.25           1460         243.00      1056.71
 1361.11        2952.50           1464         254.00      1104.66
 1361.14        2952.75           1467         266.00      1156.98
 1361.16        2953.00           1470         261.00      1135.18
 1361.19        2953.25           1473         275.00      1196.21
 1361.22        2953.50           1477         263.00      1143.90
 1361.24        2953.75           1480         281.00      1222.37
 1361.27        2954.00           1483         272.00      1183.13
 1361.30        2954.25           1487         286.00      1244.17
 1361.32        2954.50           1490         303.00      1318.28
 1361.35        2954.75           1493         308.00      1340.08
 1361.37        2955.00           1497         305.00      1327.00
 1361.40        2955.25           1500         301.00      1309.56
 1361.43        2955.50           1503         314.00      1366.23
 1361.45        2955.75           1506         339.00      1475.22
 1361.48        2956.00           1510         331.00      1440.35
 1361.50        2956.25           1513         336.00      1462.15
 1361.53        2956.50           1516         328.00      1427.27
 1361.56        2956.75           1520         354.00      1540.62
 1361.58        2957.00           1523         346.00      1505.74
 1361.61        2957.25           1526         337.00      1466.51
 1361.63        2957.50           1530         351.00      1527.54
 1361.66        2957.75           1533         370.00      1610.37
 1361.69        2958.00           1536         373.00      1623.45
 1361.71        2958.25           1539         374.00      1627.81
 1361.74        2958.50           1543         394.00      1715.01
 1361.77        2958.75           1546         394.00      1715.01
 1361.79        2959.00           1549         409.00      1780.40
 1361.82        2959.25           1553         427.00      1858.88
 1361.84        2959.50           1556         402.00      1749.88
 1361.87        2959.75           1559         441.00      1919.91
 1361.90        2960.00           1563         431.00      1876.32
 1361.93        2960.25           1566         465.00      2024.55
 1361.96        2960.50           1569         470.00      2046.35
 1361.99        2960.75           1572         484.00      2107.38
 1362.01        2961.00           1576         566.00      2464.89
 1362.04        2961.25           1579        1046.00      4557.79
 1362.06        2961.50           1582        3023.00     13180.97
 1362.09        2961.75           1586        8878.00     38747.86
 1362.12        2962.00           1589       14579.00     63683.83
 1362.14        2962.25           1592       21072.00     92134.11
 1362.17        2962.50           1596       29563.00    129419.90
 1362.19        2962.75           1599       36067.00    158042.70
 1362.22        2963.00           1602       42653.00    187081.70
 1362.25        2963.25           1606       50936.00    223682.50
 1362.27        2963.50           1609       57899.00    254519.40
 1362.30        2963.75           1612       64191.00    282438.90
 1362.33        2964.00           1616       72478.00    319289.90
 1362.35        2964.25           1619       78519.00    346210.20
 1362.38        2964.50           1622       84900.00    374697.90
 1362.40        2964.75           1625       91062.00    402259.20
 1362.43        2965.00           1629       99933.00    442026.10
 1362.46        2965.25           1632      106122.00    469832.50
 1362.48        2965.50           1635      112191.00    497149.80
 1362.51        2965.75           1639      120708.00    535569.80
 1362.54        2966.00           1642      126387.00    561242.40
 1362.56        2966.25           1645      131379.00    583845.80
 1362.59        2966.50           1649      135793.00    603860.30
 1362.62        2966.75           1652      137318.00    610781.30
 1362.64        2967.00           1655      137552.00    611843.50
 1362.67        2967.25           1659      137912.00    613478.00
 1362.69        2967.50           1662      137441.00    611339.60
 1362.72        2967.75           1665      136467.00    606918.70
 1362.75        2968.00           1668      133841.00    595006.00
 1362.77        2968.25           1672      127229.00    565052.60
 1362.80        2968.50           1675      121568.00    539454.80
 1362.83        2968.75           1678      115856.00    513670.50
 1362.85        2969.00           1682      107311.00    475180.50
 1362.88        2969.25           1685      100902.00    446376.30
 1362.90        2969.50           1688       94676.00    418447.40
 1362.93        2969.75           1692       86314.00    381018.00
 1362.96        2970.00           1695       79344.00    349890.30
 1362.98        2970.25           1698       72901.00    321173.30
 1363.01        2970.50           1702       64084.00    281963.70
 1363.04        2970.75           1705       57856.00    254328.80
 1363.06        2971.00           1708       51706.00    227089.50
 1363.09        2971.25           1712       43227.00    189615.20
 1363.11        2971.50           1715       36803.00    161285.10
 1363.14        2971.75           1718       30729.00    134547.30
 1363.17        2972.00           1722       22468.00     98257.92
 1363.19        2972.25           1725       16295.00     71197.60
 1363.22        2972.50           1728       10549.00     46052.50
 1363.25        2972.75           1732        4644.00     20255.04
 1363.27        2973.00           1735        2048.00      8927.65
 1363.30        2973.25           1738         935.00      4073.78
 1363.32        2973.50           1741         593.00      2582.61
 1363.35        2973.75           1745         508.00      2212.02
 1363.38        2974.00           1748         464.00      2020.19
 1363.40        2974.25           1751         464.00      2020.19
 1363.43        2974.50           1755         435.00      1893.75
 1363.46        2974.75           1758         437.00      1902.47
 1363.48        2975.00           1761         450.00      1959.15
 1363.51        2975.25           1765         441.00      1919.91
 1363.53        2975.50           1768         412.00      1793.48
 1363.56        2975.75           1771         412.00      1793.48
 1363.59        2976.00           1775         391.00      1701.93
 1363.61        2976.25           1778         389.00      1693.21
 1363.64        2976.50           1781         397.00      1728.08
 1363.66        2976.75           1785         353.00      1536.26
 1363.69        2977.00           1788         371.00      1614.73
 1363.72        2977.25           1791         346.00      1505.74
 1363.74        2977.50           1795         350.00      1523.18
 1363.77        2977.75           1798         357.00      1553.70
 1363.79        2978.00           1801         337.00      1466.51
 1363.82        2978.25           1805         349.00      1518.82
 1363.85        2978.50           1808         338.00      1470.86
 1363.87        2978.75           1811         328.00      1427.27
 1363.90        2979.00           1815         304.00      1322.64
 1363.93        2979.25           1818         319.00      1388.03
 1363.95        2979.50           1821         303.00      1318.28
 1363.98        2979.75           1825         305.00      1327.00
 1364.00        2980.00           1828         305.00      1327.00
 1364.03        2980.25           1831         286.00      1244.17
 1364.06        2980.50           1835         282.00      1226.73
 1364.08        2980.75           1838         294.00      1279.04
 1364.11        2981.00           1841         262.00      1139.54
 1364.13        2981.25           1845         264.00      1148.26
 1364.16        2981.50           1848         267.00      1161.33
 1364.19        2981.75           1851         235.00      1021.83
 1364.21        2982.00           1854         257.00      1117.74
 1364.24        2982.25           1858         240.00      1043.63
 1364.27        2982.50           1861         251.00      1091.58
 1364.29        2982.75           1864         242.00      1052.35
 1364.32        2983.00           1868         242.00      1052.35
 1364.34        2983.25           1871         231.00      1004.39
 1364.37        2983.50           1874         242.00      1052.35
 1364.40        2983.75           1878         242.00      1052.35
 1364.42        2984.00           1881         244.00      1061.07
HS scan finished at 22:44:32
end
