************************************************************
  HS Scan of (1) Internal mercury lamp
************************************************************
Integration time is 0.2294 seconds per sample
dh010617Arenosillo 37.1 6.73 3.233369pr1000
************************************************************
Dead Time -------------------------  3.3E-08 
Number of Cycles Used -------------  4 
Starting Wavelength (Angstroms) ---  2950 
Final Wavelength (Angstoms) -------  2984 
Wavelength Increment (Angstroms) --  .25 
Filter Wheel #1 Position ---------- (1) Ground quartz diffuser (ND=2.32)
Filter Wheel #2 Position ---------- (1) Neutral Density 0.494



************************************************************
HS scan start time = 01:49:41
Dark Count =  3.9 


Time (GMT)  Wavelength (Ang)  Step Number  Raw Counts  Counts/Second

  110.00        2950.00           1431         582.00      2520.26
  110.07        2950.25           1434         573.00      2481.02
  110.10        2950.50           1437         555.00      2402.54
  110.12        2950.75           1440         539.00      2332.79
  110.15        2951.00           1444         550.00      2380.74
  110.18        2951.25           1447         527.00      2280.47
  110.20        2951.50           1450         500.00      2162.75
  110.23        2951.75           1454         488.00      2110.43
  110.25        2952.00           1457         494.00      2136.59
  110.28        2952.25           1460         494.00      2136.59
  110.31        2952.50           1464         458.00      1979.64
  110.33        2952.75           1467         481.00      2079.92
  110.36        2953.00           1470         441.00      1905.53
  110.39        2953.25           1473         444.00      1918.60
  110.41        2953.50           1477         434.00      1875.01
  110.44        2953.75           1480         426.00      1840.13
  110.46        2954.00           1483         405.00      1748.58
  110.49        2954.25           1487         414.00      1787.81
  110.52        2954.50           1490         404.00      1744.22
  110.54        2954.75           1493         395.00      1704.98
  110.57        2955.00           1497         372.00      1604.71
  110.59        2955.25           1500         396.00      1709.34
  110.62        2955.50           1503         378.00      1630.86
  110.65        2955.75           1506         377.00      1626.50
  110.67        2956.00           1510         371.00      1600.35
  110.70        2956.25           1513         361.00      1556.75
  110.73        2956.50           1516         341.00      1469.56
  110.75        2956.75           1520         353.00      1521.87
  110.78        2957.00           1523         354.00      1526.23
  110.80        2957.25           1526         352.00      1517.51
  110.83        2957.50           1530         347.00      1495.71
  110.86        2957.75           1533         336.00      1447.76
  110.88        2958.00           1536         333.00      1434.68
  110.91        2958.25           1539         308.00      1325.69
  110.93        2958.50           1543         318.00      1369.29
  110.96        2958.75           1546         343.00      1478.28
  110.99        2959.00           1549         314.00      1351.85
  111.01        2959.25           1553         315.00      1356.21
  111.04        2959.50           1556         300.00      1290.81
  111.07        2959.75           1559         307.00      1321.33
  111.09        2960.00           1563         292.00      1255.94
  111.12        2960.25           1566         284.00      1221.06
  111.14        2960.50           1569         292.00      1255.94
  111.17        2960.75           1572         295.00      1269.02
  111.20        2961.00           1576         268.00      1151.31
  111.22        2961.25           1579         291.00      1251.58
  111.25        2961.50           1582         278.00      1194.90
  111.27        2961.75           1586         290.00      1247.22
  111.30        2962.00           1589         247.00      1059.76
  111.33        2962.25           1592         275.00      1181.82
  111.35        2962.50           1596         262.00      1125.15
  111.38        2962.75           1599         275.00      1181.82
  111.41        2963.00           1602         261.00      1120.79
  111.43        2963.25           1606         267.00      1146.95
  111.46        2963.50           1609         258.00      1107.71
  111.48        2963.75           1612         255.00      1094.63
  111.51        2964.00           1616         257.00      1103.35
  111.54        2964.25           1619         248.00      1064.12
  111.56        2964.50           1622         240.00      1029.24
  111.59        2964.75           1625         245.00      1051.04
  111.61        2965.00           1629         241.00      1033.60
  111.64        2965.25           1632         239.00      1024.88
  111.67        2965.50           1635         243.00      1042.32
  111.69        2965.75           1639         256.00      1098.99
  111.72        2966.00           1642         240.00      1029.24
  111.75        2966.25           1645         242.00      1037.96
  111.77        2966.50           1649         232.00       994.37
  111.80        2966.75           1652         238.00      1020.52
  111.82        2967.00           1655         227.00       972.57
  111.85        2967.25           1659         231.00       990.01
  111.88        2967.50           1662         232.00       994.37
  111.91        2967.75           1665         238.00      1020.52
  111.93        2968.00           1668         219.00       937.69
  111.96        2968.25           1672         224.00       959.49
  111.99        2968.50           1675         212.00       907.18
  112.02        2968.75           1678         219.00       937.69
  112.04        2969.00           1682         219.00       937.69
  112.07        2969.25           1685         200.00       854.86
  112.10        2969.50           1688         215.00       920.25
  112.12        2969.75           1692         216.00       924.61
  112.15        2970.00           1695         206.00       881.02
  112.17        2970.25           1698         215.00       920.25
  112.20        2970.50           1702         196.00       837.43
  112.23        2970.75           1705         201.00       859.22
  112.25        2971.00           1708         209.00       894.10
  112.28        2971.25           1712         190.00       811.27
  112.31        2971.50           1715         203.00       867.94
  112.33        2971.75           1718         199.00       850.50
  112.36        2972.00           1722         200.00       854.86
  112.38        2972.25           1725         198.00       846.14
  112.41        2972.50           1728         193.00       824.35
  112.44        2972.75           1732         193.00       824.35
  112.46        2973.00           1735         195.00       833.07
  112.49        2973.25           1738         184.00       785.11
  112.52        2973.50           1741         183.00       780.75
  112.54        2973.75           1745         181.00       772.03
  112.57        2974.00           1748         185.00       789.47
  112.59        2974.25           1751         183.00       780.75
  112.62        2974.50           1755         180.00       767.67
  112.65        2974.75           1758         182.00       776.39
  112.67        2975.00           1761         192.00       819.99
  112.70        2975.25           1765         168.00       715.36
  112.72        2975.50           1768         189.00       806.91
  112.75        2975.75           1771         179.00       763.31
  112.78        2976.00           1775         179.00       763.31
  112.80        2976.25           1778         184.00       785.11
  112.83        2976.50           1781         182.00       776.39
  112.86        2976.75           1785         167.00       711.00
  112.88        2977.00           1788         163.00       693.56
  112.91        2977.25           1791         174.00       741.52
  112.93        2977.50           1795         181.00       772.03
  112.96        2977.75           1798         157.00       667.41
  112.99        2978.00           1801         164.00       697.92
  113.01        2978.25           1805         158.00       671.77
  113.04        2978.50           1808         159.00       676.13
  113.07        2978.75           1811         166.00       706.64
  113.09        2979.00           1815         167.00       711.00
  113.12        2979.25           1818         160.00       680.49
  113.14        2979.50           1821         160.00       680.49
  113.17        2979.75           1825         158.00       671.77
  113.20        2980.00           1828         157.00       667.41
  113.22        2980.25           1831         149.00       632.53
  113.25        2980.50           1835         159.00       676.13
  113.27        2980.75           1838         154.00       654.33
  113.30        2981.00           1841         152.00       645.61
  113.33        2981.25           1845         154.00       654.33
  113.35        2981.50           1848         141.00       597.66
  113.38        2981.75           1851         149.00       632.53
  113.41        2982.00           1854         147.00       623.81
  113.43        2982.25           1858         145.00       615.10
  113.46        2982.50           1861         150.00       636.89
  113.48        2982.75           1864         142.00       602.02
  113.51        2983.00           1868         146.00       619.45
  113.54        2983.25           1871         149.00       632.53
  113.56        2983.50           1874         133.00       562.78
  113.59        2983.75           1878         148.00       628.17
  113.61        2984.00           1881         143.00       606.38
HS scan finished at 01:53:43
end
************************************************************
  HS Scan of (1) Internal mercury lamp
************************************************************
Integration time is 0.2294 seconds per sample
dh010617Arenosillo 37.1 6.73 3.233369pr1000
************************************************************
Dead Time -------------------------  3.3E-08 
Number of Cycles Used -------------  4 
Starting Wavelength (Angstroms) ---  2950 
Final Wavelength (Angstoms) -------  2984 
Wavelength Increment (Angstroms) --  .25 
Filter Wheel #1 Position ---------- (1) Ground quartz diffuser (ND=2.32)
Filter Wheel #2 Position ---------- (1) Neutral Density 0.494



************************************************************
HS scan start time = 03:02:43
Dark Count =  .4 


Time (GMT)  Wavelength (Ang)  Step Number  Raw Counts  Counts/Second

  182.95        2950.00           1431         563.00      2452.68
  183.02        2950.25           1434         557.00      2426.52
  183.05        2950.50           1437         535.00      2330.61
  183.07        2950.75           1440         532.00      2317.53
  183.10        2951.00           1444         549.00      2391.64
  183.13        2951.25           1447         525.00      2287.01
  183.15        2951.50           1450         524.00      2282.65
  183.18        2951.75           1454         487.00      2121.33
  183.21        2952.00           1457         486.00      2116.97
  183.24        2952.25           1460         466.00      2029.78
  183.26        2952.50           1464         465.00      2025.42
  183.29        2952.75           1467         460.00      2003.62
  183.31        2953.00           1470         443.00      1929.50
  183.34        2953.25           1473         458.00      1994.90
  183.37        2953.50           1477         419.00      1824.87
  183.39        2953.75           1480         421.00      1833.59
  183.42        2954.00           1483         421.00      1833.59
  183.44        2954.25           1487         418.00      1820.51
  183.47        2954.50           1490         396.00      1724.60
  183.50        2954.75           1493         403.00      1755.11
  183.52        2955.00           1497         383.00      1667.92
  183.55        2955.25           1500         392.00      1707.16
  183.58        2955.50           1503         388.00      1689.72
  183.60        2955.75           1506         372.00      1619.96
  183.63        2956.00           1510         390.00      1698.44
  183.65        2956.25           1513         349.00      1519.69
  183.68        2956.50           1516         341.00      1484.82
  183.71        2956.75           1520         341.00      1484.82
  183.73        2957.00           1523         354.00      1541.49
  183.76        2957.25           1526         343.00      1493.53
  183.78        2957.50           1530         313.00      1362.75
  183.81        2957.75           1533         326.00      1419.42
  183.84        2958.00           1536         339.00      1476.10
  183.86        2958.25           1539         332.00      1445.58
  183.89        2958.50           1543         325.00      1415.06
  183.91        2958.75           1546         310.00      1349.67
  183.94        2959.00           1549         316.00      1375.83
  183.97        2959.25           1553         324.00      1410.70
  183.99        2959.50           1556         310.00      1349.67
  184.02        2959.75           1559         319.00      1388.90
  184.05        2960.00           1563         305.00      1327.87
  184.07        2960.25           1566         281.00      1223.24
  184.10        2960.50           1569         290.00      1262.48
  184.12        2960.75           1572         290.00      1262.48
  184.15        2961.00           1576         293.00      1275.56
  184.18        2961.25           1579         283.00      1231.96
  184.20        2961.50           1582         280.00      1218.88
  184.23        2961.75           1586         274.00      1192.72
  184.25        2962.00           1589         266.00      1157.85
  184.28        2962.25           1592         282.00      1227.60
  184.31        2962.50           1596         266.00      1157.85
  184.33        2962.75           1599         270.00      1175.29
  184.36        2963.00           1602         266.00      1157.85
  184.39        2963.25           1606         259.00      1127.33
  184.41        2963.50           1609         256.00      1114.25
  184.44        2963.75           1612         257.00      1118.61
  184.46        2964.00           1616         256.00      1114.25
  184.49        2964.25           1619         257.00      1118.61
  184.52        2964.50           1622         264.00      1149.13
  184.54        2964.75           1625         275.00      1197.08
  184.57        2965.00           1629         262.00      1140.41
  184.59        2965.25           1632         248.00      1079.38
  184.62        2965.50           1635         238.00      1035.78
  184.65        2965.75           1639         240.00      1044.50
  184.67        2966.00           1642         235.00      1022.70
  184.70        2966.25           1645         246.00      1070.66
  184.73        2966.50           1649         235.00      1022.70
  184.75        2966.75           1652         217.00       944.23
  184.78        2967.00           1655         232.00      1009.62
  184.80        2967.25           1659         242.00      1053.22
  184.83        2967.50           1662         233.00      1013.98
  184.86        2967.75           1665         234.00      1018.34
  184.88        2968.00           1668         233.00      1013.98
  184.91        2968.25           1672         233.00      1013.98
  184.93        2968.50           1675         226.00       983.47
  184.96        2968.75           1678         207.00       900.64
  184.99        2969.00           1682         228.00       992.19
  185.01        2969.25           1685         208.00       905.00
  185.04        2969.50           1688         213.00       926.79
  185.07        2969.75           1692         222.00       966.03
  185.09        2970.00           1695         208.00       905.00
  185.12        2970.25           1698         212.00       922.43
  185.14        2970.50           1702         203.00       883.20
  185.17        2970.75           1705         221.00       961.67
  185.20        2971.00           1708         213.00       926.79
  185.22        2971.25           1712         196.00       852.68
  185.25        2971.50           1715         201.00       874.48
  185.27        2971.75           1718         216.00       939.87
  185.30        2972.00           1722         201.00       874.48
  185.33        2972.25           1725         203.00       883.20
  185.35        2972.50           1728         198.00       861.40
  185.38        2972.75           1732         208.00       905.00
  185.41        2973.00           1735         200.00       870.12
  185.43        2973.25           1738         201.00       874.48
  185.46        2973.50           1741         189.00       822.17
  185.48        2973.75           1745         188.00       817.81
  185.51        2974.00           1748         188.00       817.81
  185.54        2974.25           1751         174.00       756.78
  185.56        2974.50           1755         195.00       848.32
  185.59        2974.75           1758         187.00       813.45
  185.61        2975.00           1761         191.00       830.89
  185.64        2975.25           1765         180.00       782.93
  185.67        2975.50           1768         181.00       787.29
  185.69        2975.75           1771         165.00       717.54
  185.72        2976.00           1775         176.00       765.49
  185.75        2976.25           1778         172.00       748.06
  185.77        2976.50           1781         168.00       730.62
  185.80        2976.75           1785         170.00       739.34
  185.82        2977.00           1788         182.00       791.65
  185.85        2977.25           1791         174.00       756.78
  185.88        2977.50           1795         164.00       713.18
  185.90        2977.75           1798         176.00       765.49
  185.93        2978.00           1801         181.00       787.29
  185.95        2978.25           1805         160.00       695.74
  185.98        2978.50           1808         159.00       691.38
  186.01        2978.75           1811         160.00       695.74
  186.03        2979.00           1815         167.00       726.26
  186.06        2979.25           1818         162.00       704.46
  186.09        2979.50           1821         172.00       748.06
  186.11        2979.75           1825         170.00       739.34
  186.14        2980.00           1828         152.00       660.87
  186.16        2980.25           1831         160.00       695.74
  186.19        2980.50           1835         155.00       673.95
  186.22        2980.75           1838         162.00       704.46
  186.24        2981.00           1841         149.00       647.79
  186.27        2981.25           1845         154.00       669.59
  186.29        2981.50           1848         149.00       647.79
  186.32        2981.75           1851         155.00       673.95
  186.35        2982.00           1854         155.00       673.95
  186.37        2982.25           1858         149.00       647.79
  186.40        2982.50           1861         157.00       682.67
  186.43        2982.75           1864         154.00       669.59
  186.45        2983.00           1868         143.00       621.63
  186.48        2983.25           1871         161.00       700.10
  186.50        2983.50           1874         162.00       704.46
  186.53        2983.75           1878         147.00       639.07
  186.56        2984.00           1881         154.00       669.59
HS scan finished at 03:06:40
end
************************************************************
  HS Scan of (1) Internal mercury lamp
************************************************************
Integration time is 0.2294 seconds per sample
dh010617Arenosillo 37.1 6.73 3.233369pr1000
************************************************************
Dead Time -------------------------  3.3E-08 
Number of Cycles Used -------------  4 
Starting Wavelength (Angstroms) ---  2950 
Final Wavelength (Angstoms) -------  2984 
Wavelength Increment (Angstroms) --  .25 
Filter Wheel #1 Position ---------- (1) Ground quartz diffuser (ND=2.32)
Filter Wheel #2 Position ---------- (1) Neutral Density 0.494



************************************************************
HS scan start time = 04:14:32
Dark Count =  .6 


Time (GMT)  Wavelength (Ang)  Step Number  Raw Counts  Counts/Second

  254.79        2950.00           1431         562.00      2447.45
  254.86        2950.25           1434         547.00      2382.05
  254.89        2950.50           1437         571.00      2486.69
  254.91        2950.75           1440         545.00      2373.33
  254.94        2951.00           1444         537.00      2338.45
  254.96        2951.25           1447         522.00      2273.06
  254.99        2951.50           1450         515.00      2242.54
  255.02        2951.75           1454         502.00      2185.86
  255.04        2952.00           1457         488.00      2124.82
  255.07        2952.25           1460         469.00      2041.99
  255.10        2952.50           1464         449.00      1954.79
  255.12        2952.75           1467         459.00      1998.39
  255.15        2953.00           1470         454.00      1976.59
  255.17        2953.25           1473         439.00      1911.19
  255.20        2953.50           1477         436.00      1898.11
  255.23        2953.75           1480         437.00      1902.47
  255.25        2954.00           1483         426.00      1854.52
  255.28        2954.25           1487         412.00      1793.48
  255.30        2954.50           1490         399.00      1736.80
  255.33        2954.75           1493         393.00      1710.65
  255.36        2955.00           1497         389.00      1693.21
  255.38        2955.25           1500         360.00      1566.78
  255.41        2955.50           1503         371.00      1614.73
  255.44        2955.75           1506         374.00      1627.81
  255.46        2956.00           1510         371.00      1614.73
  255.49        2956.25           1513         361.00      1571.14
  255.51        2956.50           1516         356.00      1549.34
  255.54        2956.75           1520         347.00      1510.10
  255.57        2957.00           1523         346.00      1505.74
  255.59        2957.25           1526         329.00      1431.63
  255.62        2957.50           1530         323.00      1405.47
  255.65        2957.75           1533         338.00      1470.86
  255.67        2958.00           1536         320.00      1392.39
  255.70        2958.25           1539         335.00      1457.79
  255.73        2958.50           1543         322.00      1401.11
  255.76        2958.75           1546         313.00      1361.87
  255.79        2959.00           1549         316.00      1374.95
  255.81        2959.25           1553         315.00      1370.59
  255.84        2959.50           1556         303.00      1318.28
  255.86        2959.75           1559         306.00      1331.36
  255.89        2960.00           1563         297.00      1292.12
  255.92        2960.25           1566         291.00      1265.96
  255.94        2960.50           1569         288.00      1252.89
  255.97        2960.75           1572         302.00      1313.92
  256.00        2961.00           1576         304.00      1322.64
  256.02        2961.25           1579         289.00      1257.24
  256.05        2961.50           1582         285.00      1239.81
  256.07        2961.75           1586         276.00      1200.57
  256.10        2962.00           1589         278.00      1209.29
  256.13        2962.25           1592         258.00      1122.10
  256.15        2962.50           1596         248.00      1078.50
  256.18        2962.75           1599         266.00      1156.98
  256.20        2963.00           1602         265.00      1152.62
  256.23        2963.25           1606         265.00      1152.62
  256.26        2963.50           1609         258.00      1122.10
  256.28        2963.75           1612         263.00      1143.90
  256.31        2964.00           1616         267.00      1161.33
  256.34        2964.25           1619         260.00      1130.82
  256.36        2964.50           1622         243.00      1056.71
  256.39        2964.75           1625         246.00      1069.78
  256.41        2965.00           1629         238.00      1034.91
  256.44        2965.25           1632         243.00      1056.71
  256.47        2965.50           1635         234.00      1017.47
  256.49        2965.75           1639         253.00      1100.30
  256.52        2966.00           1642         237.00      1030.55
  256.54        2966.25           1645         228.00       991.31
  256.57        2966.50           1649         237.00      1030.55
  256.60        2966.75           1652         230.00      1000.03
  256.62        2967.00           1655         235.00      1021.83
  256.65        2967.25           1659         222.00       965.16
  256.68        2967.50           1662         228.00       991.31
  256.70        2967.75           1665         223.00       969.52
  256.73        2968.00           1668         231.00      1004.39
  256.75        2968.25           1672         222.00       965.16
  256.78        2968.50           1675         217.00       943.36
  256.81        2968.75           1678         224.00       973.88
  256.83        2969.00           1682         211.00       917.20
  256.86        2969.25           1685         228.00       991.31
  256.88        2969.50           1688         205.00       891.05
  256.91        2969.75           1692         225.00       978.24
  256.94        2970.00           1695         225.00       978.24
  256.96        2970.25           1698         211.00       917.20
  256.99        2970.50           1702         200.00       869.25
  257.02        2970.75           1705         198.00       860.53
  257.04        2971.00           1708         216.00       939.00
  257.07        2971.25           1712         207.00       899.77
  257.09        2971.50           1715         203.00       882.33
  257.12        2971.75           1718         198.00       860.53
  257.15        2972.00           1722         200.00       869.25
  257.17        2972.25           1725         195.00       847.45
  257.20        2972.50           1728         186.00       808.22
  257.23        2972.75           1732         188.00       816.94
  257.25        2973.00           1735         209.00       908.48
  257.28        2973.25           1738         179.00       777.70
  257.30        2973.50           1741         183.00       795.14
  257.33        2973.75           1745         186.00       808.22
  257.36        2974.00           1748         192.00       834.37
  257.38        2974.25           1751         183.00       795.14
  257.41        2974.50           1755         192.00       834.37
  257.43        2974.75           1758         189.00       821.30
  257.46        2975.00           1761         174.00       755.90
  257.49        2975.25           1765         190.00       825.65
  257.51        2975.50           1768         191.00       830.01
  257.54        2975.75           1771         180.00       782.06
  257.57        2976.00           1775         180.00       782.06
  257.59        2976.25           1778         174.00       755.90
  257.62        2976.50           1781         181.00       786.42
  257.64        2976.75           1785         171.00       742.83
  257.67        2977.00           1788         172.00       747.18
  257.70        2977.25           1791         178.00       773.34
  257.72        2977.50           1795         169.00       734.11
  257.75        2977.75           1798         159.00       690.51
  257.77        2978.00           1801         168.00       729.75
  257.80        2978.25           1805         171.00       742.83
  257.83        2978.50           1808         159.00       690.51
  257.85        2978.75           1811         162.00       703.59
  257.88        2979.00           1815         169.00       734.11
  257.91        2979.25           1818         158.00       686.15
  257.93        2979.50           1821         153.00       664.36
  257.96        2979.75           1825         155.00       673.08
  257.98        2980.00           1828         148.00       642.56
  258.01        2980.25           1831         159.00       690.51
  258.04        2980.50           1835         154.00       668.72
  258.06        2980.75           1838         154.00       668.72
  258.09        2981.00           1841         148.00       642.56
  258.11        2981.25           1845         152.00       660.00
  258.14        2981.50           1848         149.00       646.92
  258.17        2981.75           1851         161.00       699.23
  258.19        2982.00           1854         162.00       703.59
  258.22        2982.25           1858         157.00       681.79
  258.25        2982.50           1861         152.00       660.00
  258.27        2982.75           1864         157.00       681.79
  258.30        2983.00           1868         149.00       646.92
  258.32        2983.25           1871         150.00       651.28
  258.35        2983.50           1874         143.00       620.76
  258.38        2983.75           1878         147.00       638.20
  258.40        2984.00           1881         147.00       638.20
HS scan finished at 04:18:31
end
************************************************************
  HS Scan of (1) Internal mercury lamp
************************************************************
Integration time is 0.2294 seconds per sample
dh010617Arenosillo 37.1 6.73 3.287017pr1000
************************************************************
Dead Time -------------------------  3.3E-08 
Number of Cycles Used -------------  4 
Starting Wavelength (Angstroms) ---  2950 
Final Wavelength (Angstoms) -------  2984 
Wavelength Increment (Angstroms) --  .25 
Filter Wheel #1 Position ---------- (1) Ground quartz diffuser (ND=2.32)
Filter Wheel #2 Position ---------- (1) Neutral Density 0.494



************************************************************
HS scan start time = 21:35:38
Dark Count =  6.7 


Time (GMT)  Wavelength (Ang)  Step Number  Raw Counts  Counts/Second

 1296.03        2950.00           1431         223.00       942.92
 1296.10        2950.25           1434         238.00      1008.32
 1296.13        2950.50           1437         230.00       973.44
 1296.16        2950.75           1440         236.00       999.60
 1296.18        2951.00           1444         240.00      1017.04
 1296.21        2951.25           1447         232.00       982.16
 1296.23        2951.50           1450         260.00      1104.23
 1296.26        2951.75           1454         271.00      1152.18
 1296.29        2952.00           1457         244.00      1034.47
 1296.31        2952.25           1460         266.00      1130.38
 1296.34        2952.50           1464         253.00      1073.71
 1296.37        2952.75           1467         262.00      1112.94
 1296.39        2953.00           1470         270.00      1147.82
 1296.42        2953.25           1473         281.00      1195.78
 1296.44        2953.50           1477         277.00      1178.34
 1296.47        2953.75           1480         288.00      1226.29
 1296.50        2954.00           1483         292.00      1243.73
 1296.52        2954.25           1487         289.00      1230.65
 1296.55        2954.50           1490         301.00      1282.97
 1296.57        2954.75           1493         299.00      1274.25
 1296.60        2955.00           1497         308.00      1313.48
 1296.63        2955.25           1500         337.00      1439.91
 1296.65        2955.50           1503         324.00      1383.24
 1296.68        2955.75           1506         354.00      1514.03
 1296.71        2956.00           1510         359.00      1535.82
 1296.73        2956.25           1513         335.00      1431.19
 1296.76        2956.50           1516         353.00      1509.67
 1296.78        2956.75           1520         357.00      1527.10
 1296.81        2957.00           1523         365.00      1561.98
 1296.84        2957.25           1526         378.00      1618.66
 1296.86        2957.50           1530         375.00      1605.58
 1296.89        2957.75           1533         373.00      1596.86
 1296.91        2958.00           1536         389.00      1666.61
 1296.94        2958.25           1539         411.00      1762.53
 1296.97        2958.50           1543         398.00      1705.85
 1296.99        2958.75           1546         416.00      1784.32
 1297.02        2959.00           1549         418.00      1793.04
 1297.05        2959.25           1553         421.00      1806.12
 1297.07        2959.50           1556         434.00      1862.80
 1297.10        2959.75           1559         428.00      1836.64
 1297.12        2960.00           1563         456.00      1958.71
 1297.15        2960.25           1566         454.00      1949.99
 1297.18        2960.50           1569         498.00      2141.83
 1297.20        2960.75           1572         494.00      2124.39
 1297.23        2961.00           1576         557.00      2399.06
 1297.26        2961.25           1579         912.00      3946.90
 1297.28        2961.50           1582        2696.00     11727.73
 1297.31        2961.75           1586        8242.00     35941.90
 1297.33        2962.00           1589       13985.00     61057.08
 1297.36        2962.25           1592       20155.00     88086.11
 1297.39        2962.50           1596       28857.00    126289.40
 1297.41        2962.75           1599       35167.00    154051.90
 1297.44        2963.00           1602       41329.00    181212.50
 1297.47        2963.25           1606       50262.00    220674.00
 1297.49        2963.50           1609       57048.00    250720.20
 1297.52        2963.75           1612       63255.00    278255.20
 1297.54        2964.00           1616       71439.00    314637.50
 1297.58        2964.25           1619       78010.00    343912.90
 1297.61        2964.50           1622       84087.00    371038.10
 1297.63        2964.75           1625       90155.00    398171.90
 1297.66        2965.00           1629       98636.00    436178.00
 1297.69        2965.25           1632      104893.00    464279.20
 1297.71        2965.50           1635      110755.00    490654.20
 1297.74        2965.75           1639      119242.00    528922.30
 1297.76        2966.00           1642      125206.00    555872.40
 1297.79        2966.25           1645      130564.00    580125.50
 1297.82        2966.50           1649      136289.00    606083.10
 1297.84        2966.75           1652      137670.00    612351.50
 1297.87        2967.00           1655      138357.00    615470.80
 1297.90        2967.25           1659      138541.00    616306.30
 1297.92        2967.50           1662      138805.00    617505.30
 1297.95        2967.75           1665      137830.00    613078.00
 1297.98        2968.00           1668      135226.00    601260.00
 1298.00        2968.25           1672      129536.00    575469.20
 1298.03        2968.50           1675      123096.00    546332.10
 1298.05        2968.75           1678      117284.00    520085.00
 1298.08        2969.00           1682      108880.00    482213.00
 1298.11        2969.25           1685      103292.00    457083.90
 1298.13        2969.50           1688       96982.00    428758.30
 1298.16        2969.75           1692       87538.00    386463.70
 1298.19        2970.00           1695       80855.00    356605.70
 1298.21        2970.25           1698       74591.00    328673.30
 1298.24        2970.50           1702       65342.00    287524.80
 1298.26        2970.75           1705       59181.00    260176.80
 1298.29        2971.00           1708       53205.00    233697.30
 1298.32        2971.25           1712       44544.00    195402.90
 1298.34        2971.50           1715       38561.00    169005.80
 1298.37        2971.75           1718       32224.00    141097.00
 1298.40        2972.00           1722       23793.00    104045.80
 1298.42        2972.25           1725       18041.00     78819.84
 1298.45        2972.50           1728       11731.00     51194.96
 1298.48        2972.75           1732        5323.00     23192.55
 1298.50        2973.00           1735        2327.00     10118.02
 1298.53        2973.25           1738        1053.00      4561.72
 1298.55        2973.50           1741         658.00      2839.41
 1298.58        2973.75           1745         517.00      2224.66
 1298.61        2974.00           1748         509.00      2189.78
 1298.63        2974.25           1751         480.00      2063.35
 1298.66        2974.50           1755         476.00      2045.91
 1298.68        2974.75           1758         448.00      1923.84
 1298.71        2975.00           1761         441.00      1893.32
 1298.74        2975.25           1765         423.00      1814.84
 1298.76        2975.50           1768         426.00      1827.92
 1298.79        2975.75           1771         421.00      1806.12
 1298.81        2976.00           1775         413.00      1771.25
 1298.84        2976.25           1778         422.00      1810.48
 1298.87        2976.50           1781         393.00      1684.05
 1298.89        2976.75           1785         394.00      1688.41
 1298.92        2977.00           1788         380.00      1627.38
 1298.95        2977.25           1791         366.00      1566.34
 1298.97        2977.50           1795         352.00      1505.31
 1299.00        2977.75           1798         340.00      1452.99
 1299.02        2978.00           1801         349.00      1492.23
 1299.05        2978.25           1805         361.00      1544.54
 1299.08        2978.50           1808         346.00      1479.15
 1299.10        2978.75           1811         338.00      1444.27
 1299.13        2979.00           1815         324.00      1383.24
 1299.16        2979.25           1818         333.00      1422.47
 1299.18        2979.50           1821         305.00      1300.40
 1299.21        2979.75           1825         307.00      1309.12
 1299.23        2980.00           1828         333.00      1422.47
 1299.26        2980.25           1831         296.00      1261.17
 1299.29        2980.50           1835         280.00      1191.42
 1299.31        2980.75           1838         280.00      1191.42
 1299.34        2981.00           1841         280.00      1191.42
 1299.36        2981.25           1845         294.00      1252.45
 1299.39        2981.50           1848         270.00      1147.82
 1299.42        2981.75           1851         261.00      1108.58
 1299.44        2982.00           1854         248.00      1051.91
 1299.47        2982.25           1858         255.00      1082.43
 1299.50        2982.50           1861         246.00      1043.19
 1299.52        2982.75           1864         261.00      1108.58
 1299.55        2983.00           1868         251.00      1064.99
 1299.57        2983.25           1871         247.00      1047.55
 1299.60        2983.50           1874         247.00      1047.55
 1299.63        2983.75           1878         235.00       995.24
 1299.65        2984.00           1881         233.00       986.52
HS scan finished at 21:39:46
end
************************************************************
  HS Scan of (1) Internal mercury lamp
************************************************************
Integration time is 0.2294 seconds per sample
dh010617Arenosillo 37.1 6.73 3.340665pr1000
************************************************************
Dead Time -------------------------  3.3E-08 
Number of Cycles Used -------------  4 
Starting Wavelength (Angstroms) ---  2950 
Final Wavelength (Angstoms) -------  2984 
Wavelength Increment (Angstroms) --  .25 
Filter Wheel #1 Position ---------- (1) Ground quartz diffuser (ND=2.32)
Filter Wheel #2 Position ---------- (1) Neutral Density 0.494



************************************************************
HS scan start time = 22:40:33
Dark Count =  7 


Time (GMT)  Wavelength (Ang)  Step Number  Raw Counts  Counts/Second

 1360.93        2950.00           1431         259.00      1098.56
 1361.00        2950.25           1434         255.00      1081.12
 1361.03        2950.50           1437         250.00      1059.32
 1361.06        2950.75           1440         253.00      1072.40
 1361.08        2951.00           1444         260.00      1102.92
 1361.11        2951.25           1447         276.00      1172.67
 1361.13        2951.50           1450         265.00      1124.71
 1361.16        2951.75           1454         275.00      1168.31
 1361.19        2952.00           1457         271.00      1150.87
 1361.21        2952.25           1460         283.00      1203.19
 1361.24        2952.50           1464         275.00      1168.31
 1361.27        2952.75           1467         288.00      1224.98
 1361.29        2953.00           1470         293.00      1246.78
 1361.32        2953.25           1473         327.00      1395.01
 1361.34        2953.50           1477         301.00      1281.66
 1361.37        2953.75           1480         303.00      1290.38
 1361.40        2954.00           1483         325.00      1386.29
 1361.42        2954.25           1487         322.00      1373.21
 1361.45        2954.50           1490         320.00      1364.49
 1361.48        2954.75           1493         333.00      1421.17
 1361.50        2955.00           1497         351.00      1499.64
 1361.53        2955.25           1500         344.00      1469.12
 1361.55        2955.50           1503         357.00      1525.80
 1361.58        2955.75           1506         377.00      1612.99
 1361.61        2956.00           1510         348.00      1486.56
 1361.63        2956.25           1513         379.00      1621.71
 1361.66        2956.50           1516         403.00      1726.34
 1361.68        2956.75           1520         395.00      1691.46
 1361.71        2957.00           1523         402.00      1721.98
 1361.74        2957.25           1526         419.00      1796.10
 1361.76        2957.50           1530         424.00      1817.89
 1361.79        2957.75           1533         423.00      1813.53
 1361.81        2958.00           1536         412.00      1765.58
 1361.84        2958.25           1539         421.00      1804.82
 1361.87        2958.50           1543         449.00      1926.89
 1361.89        2958.75           1546         454.00      1948.69
 1361.92        2959.00           1549         464.00      1992.28
 1361.95        2959.25           1553         492.00      2114.36
 1361.97        2959.50           1556         514.00      2210.27
 1362.00        2959.75           1559         507.00      2179.76
 1362.02        2960.00           1563         512.00      2201.55
 1362.05        2960.25           1566         528.00      2271.31
 1362.08        2960.50           1569         529.00      2275.67
 1362.10        2960.75           1572         576.00      2480.59
 1362.13        2961.00           1576         720.00      3108.43
 1362.16        2961.25           1579        1878.00      8158.26
 1362.18        2961.50           1582        5390.00     23483.76
 1362.21        2961.75           1586       13017.00     56819.61
 1362.23        2962.00           1589       19942.00     87150.89
 1362.26        2962.25           1592       26997.00    118114.30
 1362.29        2962.50           1596       36715.00    160869.20
 1362.31        2962.75           1599       44019.00    193083.40
 1362.34        2963.00           1602       51105.00    224401.90
 1362.37        2963.25           1606       60443.00    265773.30
 1362.39        2963.50           1609       67771.00    298319.10
 1362.42        2963.75           1612       74779.00    329509.60
 1362.44        2964.00           1616       84031.00    370786.50
 1362.47        2964.25           1619       90783.00    400981.60
 1362.50        2964.50           1622       97743.00    432170.30
 1362.52        2964.75           1625      104794.00    463832.90
 1362.55        2965.00           1629      114316.00    506697.60
 1362.58        2965.25           1632      121768.00    540329.50
 1362.60        2965.50           1635      128033.00    568662.60
 1362.63        2965.75           1639      137089.00    609712.80
 1362.65        2966.00           1642      144243.00    642220.80
 1362.68        2966.25           1645      148560.00    661871.70
 1362.71        2966.50           1649      153099.00    682560.80
 1362.73        2966.75           1652      153953.00    686456.60
 1362.76        2967.00           1655      154265.00    687880.30
 1362.79        2967.25           1659      154126.00    687246.00
 1362.81        2967.50           1662      153653.00    685088.00
 1362.84        2967.75           1665      152079.00    677909.00
 1362.87        2968.00           1668      148510.00    661643.90
 1362.89        2968.25           1672      140806.00    626594.20
 1362.92        2968.50           1675      133456.00    593231.20
 1362.94        2968.75           1678      127182.00    564810.80
 1362.97        2969.00           1682      117894.00    522836.20
 1363.00        2969.25           1685      110737.00    490571.90
 1363.02        2969.50           1688      103726.00    459032.80
 1363.05        2969.75           1692       93984.00    415317.60
 1363.08        2970.00           1695       86340.00    381105.60
 1363.10        2970.25           1698       79055.00    348572.50
 1363.13        2970.50           1702       69362.00    305394.50
 1363.15        2970.75           1705       62209.00    273610.20
 1363.18        2971.00           1708       55076.00    241981.30
 1363.21        2971.25           1712       45540.00    199800.40
 1363.23        2971.50           1715       38666.00    169467.30
 1363.26        2971.75           1718       31443.00    137659.70
 1363.29        2972.00           1722       21916.00     95808.11
 1363.31        2972.25           1725       15342.00     66996.27
 1363.34        2972.50           1728        9477.00     41337.96
 1363.37        2972.75           1732        3790.00     16499.83
 1363.39        2973.00           1735        1665.00      7229.27
 1363.42        2973.25           1738         809.00      3496.48
 1363.44        2973.50           1741         618.00      2663.70
 1363.47        2973.75           1745         553.00      2380.31
 1363.50        2974.00           1748         542.00      2332.35
 1363.52        2974.25           1751         529.00      2275.67
 1363.55        2974.50           1755         487.00      2092.56
 1363.57        2974.75           1758         488.00      2096.92
 1363.60        2975.00           1761         475.00      2040.24
 1363.63        2975.25           1765         482.00      2070.76
 1363.65        2975.50           1768         455.00      1953.05
 1363.68        2975.75           1771         446.00      1913.81
 1363.71        2976.00           1775         441.00      1892.01
 1363.73        2976.25           1778         446.00      1913.81
 1363.76        2976.50           1781         410.00      1756.86
 1363.78        2976.75           1785         416.00      1783.02
 1363.81        2977.00           1788         410.00      1756.86
 1363.84        2977.25           1791         393.00      1682.74
 1363.87        2977.50           1795         386.00      1652.23
 1363.89        2977.75           1798         369.00      1578.11
 1363.92        2978.00           1801         384.00      1643.51
 1363.95        2978.25           1805         382.00      1634.79
 1363.97        2978.50           1808         351.00      1499.64
 1364.00        2978.75           1811         363.00      1551.95
 1364.03        2979.00           1815         370.00      1582.47
 1364.05        2979.25           1818         355.00      1517.08
 1364.08        2979.50           1821         341.00      1456.04
 1364.10        2979.75           1825         339.00      1447.32
 1364.13        2980.00           1828         331.00      1412.45
 1364.16        2980.25           1831         318.00      1355.77
 1364.18        2980.50           1835         322.00      1373.21
 1364.21        2980.75           1838         308.00      1312.18
 1364.23        2981.00           1841         299.00      1272.94
 1364.26        2981.25           1845         300.00      1277.30
 1364.29        2981.50           1848         288.00      1224.98
 1364.31        2981.75           1851         295.00      1255.50
 1364.34        2982.00           1854         268.00      1137.79
 1364.37        2982.25           1858         281.00      1194.47
 1364.39        2982.50           1861         285.00      1211.91
 1364.42        2982.75           1864         269.00      1142.15
 1364.44        2983.00           1868         265.00      1124.71
 1364.47        2983.25           1871         254.00      1076.76
 1364.50        2983.50           1874         260.00      1102.92
 1364.52        2983.75           1878         266.00      1129.07
 1364.55        2984.00           1881         242.00      1024.45
HS scan finished at 22:44:39
end
************************************************************
  HS Scan of (1) Internal mercury lamp
************************************************************
Integration time is 0.2294 seconds per sample
dh010617Arenosillo 37.1 6.73 3.287017pr1000
************************************************************
Dead Time -------------------------  3.3E-08 
Number of Cycles Used -------------  4 
Starting Wavelength (Angstroms) ---  2950 
Final Wavelength (Angstoms) -------  2984 
Wavelength Increment (Angstroms) --  .25 
Filter Wheel #1 Position ---------- (1) Ground quartz diffuser (ND=2.32)
Filter Wheel #2 Position ---------- (1) Neutral Density 0.494



************************************************************
HS scan start time = 23:44:26
Dark Count =  7.2 


Time (GMT)  Wavelength (Ang)  Step Number  Raw Counts  Counts/Second

 1424.83        2950.00           1431         249.00      1054.09
 1424.90        2950.25           1434         250.00      1058.45
 1424.92        2950.50           1437         254.00      1075.89
 1424.95        2950.75           1440         266.00      1128.20
 1424.98        2951.00           1444         251.00      1062.81
 1425.00        2951.25           1447         271.00      1150.00
 1425.03        2951.50           1450         260.00      1102.05
 1425.05        2951.75           1454         251.00      1062.81
 1425.08        2952.00           1457         260.00      1102.05
 1425.11        2952.25           1460         263.00      1115.12
 1425.13        2952.50           1464         294.00      1250.27
 1425.16        2952.75           1467         288.00      1224.11
 1425.18        2953.00           1470         296.00      1258.99
 1425.21        2953.25           1473         311.00      1324.38
 1425.24        2953.50           1477         304.00      1293.87
 1425.26        2953.75           1480         312.00      1328.74
 1425.29        2954.00           1483         317.00      1350.54
 1425.32        2954.25           1487         317.00      1350.54
 1425.34        2954.50           1490         338.00      1442.09
 1425.37        2954.75           1493         318.00      1354.90
 1425.39        2955.00           1497         350.00      1494.41
 1425.42        2955.25           1500         358.00      1529.28
 1425.45        2955.50           1503         350.00      1494.41
 1425.47        2955.75           1506         366.00      1564.16
 1425.50        2956.00           1510         369.00      1577.24
 1425.52        2956.25           1513         368.00      1572.88
 1425.55        2956.50           1516         369.00      1577.24
 1425.58        2956.75           1520         378.00      1616.48
 1425.60        2957.00           1523         397.00      1699.31
 1425.63        2957.25           1526         416.00      1782.14
 1425.66        2957.50           1530         403.00      1725.47
 1425.68        2957.75           1533         425.00      1821.38
 1425.71        2958.00           1536         421.00      1803.94
 1425.73        2958.25           1539         443.00      1899.86
 1425.76        2958.50           1543         430.00      1843.18
 1425.79        2958.75           1546         461.00      1978.33
 1425.81        2959.00           1549         452.00      1939.10
 1425.84        2959.25           1553         481.00      2065.53
 1425.86        2959.50           1556         477.00      2048.09
 1425.89        2959.75           1559         497.00      2135.29
 1425.92        2960.00           1563         516.00      2218.12
 1425.94        2960.25           1566         519.00      2231.20
 1425.97        2960.50           1569         520.00      2235.56
 1426.00        2960.75           1572         543.00      2335.84
 1426.02        2961.00           1576         697.00      3007.27
 1426.05        2961.25           1579        1671.00      7254.57
 1426.07        2961.50           1582        4697.00     20457.57
 1426.10        2961.75           1586       11801.00     51498.96
 1426.13        2962.00           1589       18170.00     79382.93
 1426.15        2962.25           1592       25501.00    111542.30
 1426.18        2962.50           1596       34345.00    150430.20
 1426.21        2962.75           1599       41521.00    182057.40
 1426.23        2963.00           1602       49130.00    215665.50
 1426.26        2963.25           1606       58594.00    257571.50
 1426.28        2963.50           1609       65921.00    290095.20
 1426.31        2963.75           1612       72473.00    319238.20
 1426.34        2964.00           1616       82012.00    361768.40
 1426.36        2964.25           1619       88782.00    392025.80
 1426.39        2964.50           1622       95474.00    421994.60
 1426.42        2964.75           1625      101752.00    450163.70
 1426.44        2965.00           1629      110970.00    491620.20
 1426.47        2965.25           1632      117901.00    522866.90
 1426.50        2965.50           1635      125162.00    555671.10
 1426.52        2965.75           1639      134311.00    597107.50
 1426.55        2966.00           1642      140567.00    625507.20
 1426.57        2966.25           1645      146393.00    652003.50
 1426.60        2966.50           1649      150985.00    672920.50
 1426.63        2966.75           1652      152361.00    679194.10
 1426.65        2967.00           1655      152540.00    680010.40
 1426.68        2967.25           1659      152446.00    679581.70
 1426.71        2967.50           1662      152518.00    679910.10
 1426.73        2967.75           1665      151298.00    674347.40
 1426.76        2968.00           1668      147800.00    658409.40
 1426.79        2968.25           1672      140162.00    623667.00
 1426.81        2968.50           1675      134202.00    596613.10
 1426.84        2968.75           1678      127823.00    567711.10
 1426.86        2969.00           1682      118908.00    527412.10
 1426.89        2969.25           1685      111708.00    494944.30
 1426.92        2969.50           1688      104662.00    463238.60
 1426.94        2969.75           1692       95070.00    420183.70
 1426.97        2970.00           1695       87239.00    385124.30
 1427.00        2970.25           1698       80198.00    353671.30
 1427.02        2970.50           1702       70988.00    312628.10
 1427.05        2970.75           1705       64032.00    281703.50
 1427.07        2971.00           1708       57217.00    251467.00
 1427.10        2971.25           1712       47520.00    208548.00
 1427.13        2971.50           1715       40202.00    176239.10
 1427.15        2971.75           1718       33423.00    146371.40
 1427.18        2972.00           1722       24230.00    105961.90
 1427.21        2972.25           1725       17250.00     75351.91
 1427.23        2972.50           1728       10750.00     46902.53
 1427.26        2972.75           1732        4456.00     19405.62
 1427.28        2973.00           1735        1989.00      8641.52
 1427.31        2973.25           1738         952.00      4119.13
 1427.34        2973.50           1741         641.00      2763.11
 1427.36        2973.75           1745         545.00      2344.56
 1427.39        2974.00           1748         545.00      2344.56
 1427.42        2974.25           1751         532.00      2287.88
 1427.44        2974.50           1755         486.00      2087.33
 1427.47        2974.75           1758         483.00      2074.25
 1427.50        2975.00           1761         466.00      2000.13
 1427.53        2975.25           1765         480.00      2061.17
 1427.55        2975.50           1768         459.00      1969.61
 1427.58        2975.75           1771         445.00      1908.58
 1427.60        2976.00           1775         456.00      1956.53
 1427.63        2976.25           1778         432.00      1851.90
 1427.66        2976.50           1781         412.00      1764.71
 1427.68        2976.75           1785         411.00      1760.35
 1427.71        2977.00           1788         412.00      1764.71
 1427.73        2977.25           1791         408.00      1747.27
 1427.76        2977.50           1795         380.00      1625.20
 1427.79        2977.75           1798         388.00      1660.07
 1427.81        2978.00           1801         374.00      1599.04
 1427.84        2978.25           1805         369.00      1577.24
 1427.87        2978.50           1808         356.00      1520.56
 1427.89        2978.75           1811         348.00      1485.69
 1427.92        2979.00           1815         347.00      1481.33
 1427.94        2979.25           1818         364.00      1555.44
 1427.97        2979.50           1821         337.00      1437.73
 1428.00        2979.75           1825         334.00      1424.65
 1428.02        2980.00           1828         323.00      1376.70
 1428.05        2980.25           1831         324.00      1381.06
 1428.08        2980.50           1835         316.00      1346.18
 1428.10        2980.75           1838         321.00      1367.98
 1428.13        2981.00           1841         306.00      1302.58
 1428.15        2981.25           1845         301.00      1280.79
 1428.18        2981.50           1848         294.00      1250.27
 1428.21        2981.75           1851         291.00      1237.19
 1428.23        2982.00           1854         293.00      1245.91
 1428.26        2982.25           1858         294.00      1250.27
 1428.29        2982.50           1861         284.00      1206.67
 1428.31        2982.75           1864         284.00      1206.67
 1428.34        2983.00           1868         261.00      1106.40
 1428.36        2983.25           1871         279.00      1184.88
 1428.39        2983.50           1874         248.00      1049.73
 1428.42        2983.75           1878         256.00      1084.61
 1428.44        2984.00           1881         259.00      1097.69
HS scan finished at 23:48:33
end
