************************************************************
  HS Scan of (1) Internal mercury lamp
************************************************************
Integration time is 0.2294 seconds per sample
dh020617Arenosillo 37.1 6.73 3.287017pr1000
************************************************************
Dead Time -------------------------  3.3E-08 
Number of Cycles Used -------------  4 
Starting Wavelength (Angstroms) ---  2950 
Final Wavelength (Angstoms) -------  2984 
Wavelength Increment (Angstroms) --  .25 
Filter Wheel #1 Position ---------- (1) Ground quartz diffuser (ND=2.32)
Filter Wheel #2 Position ---------- (1) Neutral Density 0.494



************************************************************
HS scan start time = 01:05:47
Dark Count =  7 


Time (GMT)  Wavelength (Ang)  Step Number  Raw Counts  Counts/Second

   66.18        2950.00           1431         661.00      2851.18
   66.25        2950.25           1434         659.00      2842.46
   66.27        2950.50           1437         633.00      2729.10
   66.30        2950.75           1440         635.00      2737.82
   66.32        2951.00           1444         601.00      2589.59
   66.35        2951.25           1447         598.00      2576.51
   66.38        2951.50           1450         622.00      2681.14
   66.40        2951.75           1454         586.00      2524.19
   66.43        2952.00           1457         574.00      2471.87
   66.46        2952.25           1460         574.00      2471.87
   66.48        2952.50           1464         556.00      2393.39
   66.51        2952.75           1467         551.00      2371.59
   66.53        2953.00           1470         541.00      2327.99
   66.56        2953.25           1473         520.00      2236.43
   66.59        2953.50           1477         507.00      2179.76
   66.61        2953.75           1480         487.00      2092.56
   66.64        2954.00           1483         501.00      2153.60
   66.66        2954.25           1487         482.00      2070.76
   66.69        2954.50           1490         479.00      2057.68
   66.72        2954.75           1493         475.00      2040.24
   66.74        2955.00           1497         453.00      1944.33
   66.77        2955.25           1500         451.00      1935.61
   66.80        2955.50           1503         434.00      1861.49
   66.82        2955.75           1506         426.00      1826.61
   66.85        2956.00           1510         429.00      1839.69
   66.87        2956.25           1513         421.00      1804.82
   66.90        2956.50           1516         404.00      1730.70
   66.93        2956.75           1520         404.00      1730.70
   66.95        2957.00           1523         411.00      1761.22
   66.98        2957.25           1526         406.00      1739.42
   67.00        2957.50           1530         378.00      1617.35
   67.03        2957.75           1533         389.00      1665.31
   67.06        2958.00           1536         398.00      1704.54
   67.08        2958.25           1539         363.00      1551.95
   67.11        2958.50           1543         386.00      1652.23
   67.14        2958.75           1546         372.00      1591.19
   67.16        2959.00           1549         362.00      1547.59
   67.19        2959.25           1553         358.00      1530.16
   67.21        2959.50           1556         376.00      1608.63
   67.24        2959.75           1559         352.00      1504.00
   67.27        2960.00           1563         344.00      1469.12
   67.29        2960.25           1566         342.00      1460.40
   67.32        2960.50           1569         321.00      1368.85
   67.35        2960.75           1572         333.00      1421.17
   67.37        2961.00           1576         333.00      1421.17
   67.40        2961.25           1579         329.00      1403.73
   67.42        2961.50           1582         314.00      1338.33
   67.45        2961.75           1586         333.00      1421.17
   67.48        2962.00           1589         321.00      1368.85
   67.50        2962.25           1592         317.00      1351.41
   67.53        2962.50           1596         316.00      1347.05
   67.55        2962.75           1599         316.00      1347.05
   67.58        2963.00           1602         319.00      1360.13
   67.61        2963.25           1606         306.00      1303.46
   67.63        2963.50           1609         303.00      1290.38
   67.66        2963.75           1612         300.00      1277.30
   67.69        2964.00           1616         289.00      1229.34
   67.71        2964.25           1619         296.00      1259.86
   67.74        2964.50           1622         275.00      1168.31
   67.76        2964.75           1625         279.00      1185.75
   67.79        2965.00           1629         285.00      1211.91
   67.82        2965.25           1632         271.00      1150.87
   67.84        2965.50           1635         287.00      1220.62
   67.87        2965.75           1639         278.00      1181.39
   67.89        2966.00           1642         284.00      1207.55
   67.92        2966.25           1645         286.00      1216.27
   67.95        2966.50           1649         277.00      1177.03
   67.97        2966.75           1652         273.00      1159.59
   68.00        2967.00           1655         262.00      1111.64
   68.03        2967.25           1659         276.00      1172.67
   68.05        2967.50           1662         267.00      1133.43
   68.08        2967.75           1665         249.00      1054.96
   68.10        2968.00           1668         273.00      1159.59
   68.13        2968.25           1672         269.00      1142.15
   68.16        2968.50           1675         248.00      1050.60
   68.18        2968.75           1678         248.00      1050.60
   68.21        2969.00           1682         253.00      1072.40
   68.23        2969.25           1685         256.00      1085.48
   68.26        2969.50           1688         249.00      1054.96
   68.29        2969.75           1692         244.00      1033.17
   68.31        2970.00           1695         251.00      1063.68
   68.34        2970.25           1698         230.00       972.13
   68.37        2970.50           1702         247.00      1046.24
   68.39        2970.75           1705         250.00      1059.32
   68.42        2971.00           1708         231.00       976.49
   68.44        2971.25           1712         233.00       985.21
   68.47        2971.50           1715         245.00      1037.52
   68.50        2971.75           1718         233.00       985.21
   68.52        2972.00           1722         230.00       972.13
   68.55        2972.25           1725         233.00       985.21
   68.58        2972.50           1728         221.00       932.90
   68.60        2972.75           1732         235.00       993.93
   68.63        2973.00           1735         227.00       959.05
   68.65        2973.25           1738         228.00       963.41
   68.68        2973.50           1741         221.00       932.90
   68.71        2973.75           1745         228.00       963.41
   68.73        2974.00           1748         210.00       884.94
   68.76        2974.25           1751         213.00       898.02
   68.78        2974.50           1755         213.00       898.02
   68.81        2974.75           1758         206.00       867.51
   68.84        2975.00           1761         214.00       902.38
   68.86        2975.25           1765         218.00       919.82
   68.89        2975.50           1768         205.00       863.15
   68.92        2975.75           1771         207.00       871.86
   68.94        2976.00           1775         212.00       893.66
   68.97        2976.25           1778         200.00       841.35
   68.99        2976.50           1781         212.00       893.66
   69.02        2976.75           1785         191.00       802.11
   69.05        2977.00           1788         212.00       893.66
   69.07        2977.25           1791         198.00       832.63
   69.10        2977.50           1795         206.00       867.51
   69.12        2977.75           1798         197.00       828.27
   69.15        2978.00           1801         197.00       828.27
   69.18        2978.25           1805         193.00       810.83
   69.20        2978.50           1808         191.00       802.11
   69.23        2978.75           1811         189.00       793.39
   69.26        2979.00           1815         191.00       802.11
   69.28        2979.25           1818         183.00       767.24
   69.31        2979.50           1821         189.00       793.39
   69.33        2979.75           1825         189.00       793.39
   69.36        2980.00           1828         189.00       793.39
   69.39        2980.25           1831         169.00       706.21
   69.41        2980.50           1835         186.00       780.32
   69.44        2980.75           1838         184.00       771.60
   69.47        2981.00           1841         176.00       736.72
   69.49        2981.25           1845         177.00       741.08
   69.52        2981.50           1848         195.00       819.55
   69.54        2981.75           1851         169.00       706.21
   69.57        2982.00           1854         179.00       749.80
   69.60        2982.25           1858         172.00       719.28
   69.62        2982.50           1861         176.00       736.72
   69.65        2982.75           1864         184.00       771.60
   69.68        2983.00           1868         170.00       710.57
   69.70        2983.25           1871         166.00       693.13
   69.73        2983.50           1874         174.00       728.00
   69.75        2983.75           1878         162.00       675.69
   69.78        2984.00           1881         175.00       732.36
HS scan finished at 01:09:53
end
************************************************************
  HS Scan of (1) Internal mercury lamp
************************************************************
Integration time is 0.2294 seconds per sample
dh020617Arenosillo 37.1 6.73 3.287017pr1000
************************************************************
Dead Time -------------------------  3.3E-08 
Number of Cycles Used -------------  4 
Starting Wavelength (Angstroms) ---  2950 
Final Wavelength (Angstoms) -------  2984 
Wavelength Increment (Angstroms) --  .25 
Filter Wheel #1 Position ---------- (1) Ground quartz diffuser (ND=2.32)
Filter Wheel #2 Position ---------- (1) Neutral Density 0.494



************************************************************
HS scan start time = 02:09:25
Dark Count =  2.8 


Time (GMT)  Wavelength (Ang)  Step Number  Raw Counts  Counts/Second

  129.71        2950.00           1431         249.00      1073.27
  129.78        2950.25           1434         243.00      1047.12
  129.81        2950.50           1437         260.00      1121.23
  129.83        2950.75           1440         249.00      1073.27
  129.86        2951.00           1444         249.00      1073.27
  129.89        2951.25           1447         261.00      1125.59
  129.91        2951.50           1450         260.00      1121.23
  129.94        2951.75           1454         259.00      1116.87
  129.97        2952.00           1457         274.00      1182.26
  129.99        2952.25           1460         259.00      1116.87
  130.02        2952.50           1464         271.00      1169.18
  130.04        2952.75           1467         278.00      1199.70
  130.07        2953.00           1470         290.00      1252.01
  130.10        2953.25           1473         277.00      1195.34
  130.12        2953.50           1477         308.00      1330.49
  130.15        2953.75           1480         288.00      1243.29
  130.18        2954.00           1483         310.00      1339.20
  130.20        2954.25           1487         307.00      1326.13
  130.23        2954.50           1490         323.00      1395.88
  130.25        2954.75           1493         323.00      1395.88
  130.28        2955.00           1497         325.00      1404.60
  130.31        2955.25           1500         330.00      1426.40
  130.33        2955.50           1503         331.00      1430.76
  130.36        2955.75           1506         336.00      1452.55
  130.38        2956.00           1510         359.00      1552.83
  130.41        2956.25           1513         359.00      1552.83
  130.44        2956.50           1516         361.00      1561.55
  130.46        2956.75           1520         366.00      1583.34
  130.49        2957.00           1523         373.00      1613.86
  130.52        2957.25           1526         365.00      1578.98
  130.54        2957.50           1530         387.00      1674.90
  130.57        2957.75           1533         405.00      1753.37
  130.59        2958.00           1536         400.00      1731.57
  130.62        2958.25           1539         399.00      1727.21
  130.65        2958.50           1543         428.00      1853.64
  130.67        2958.75           1546         416.00      1801.33
  130.70        2959.00           1549         443.00      1919.04
  130.72        2959.25           1553         458.00      1984.44
  130.75        2959.50           1556         445.00      1927.76
  130.78        2959.75           1559         460.00      1993.16
  130.80        2960.00           1563         482.00      2089.07
  130.83        2960.25           1566         480.00      2080.35
  130.86        2960.50           1569         511.00      2215.51
  130.88        2960.75           1572         507.00      2198.07
  130.91        2961.00           1576         612.00      2655.86
  130.93        2961.25           1579        1132.00      4923.21
  130.96        2961.50           1582        3461.00     15082.48
  130.99        2961.75           1586        9488.00     41404.40
  131.01        2962.00           1589       15798.00     69011.40
  131.04        2962.25           1592       22723.00     99367.14
  131.07        2962.50           1596       31506.00    137955.30
  131.09        2962.75           1599       38215.00    167497.80
  131.12        2963.00           1602       45400.00    199200.60
  131.14        2963.25           1606       54337.00    238726.80
  131.17        2963.50           1609       61679.00    271276.40
  131.20        2963.75           1612       68324.00    300796.70
  131.22        2964.00           1616       76326.00    336422.30
  131.25        2964.25           1619       83573.00    368759.30
  131.28        2964.50           1622       89797.00    396587.20
  131.30        2964.75           1625       96612.00    427116.60
  131.33        2965.00           1629      105177.00    465573.60
  131.35        2965.25           1632      111554.00    494270.40
  131.38        2965.50           1635      117906.00    522909.30
  131.41        2965.75           1639      126212.00    560440.80
  131.43        2966.00           1642      132517.00    588993.20
  131.46        2966.25           1645      138011.00    613917.50
  131.49        2966.50           1649      142356.00    633658.50
  131.51        2966.75           1652      143504.00    638878.60
  131.54        2967.00           1655      143752.00    640006.60
  131.56        2967.25           1659      143678.00    639670.00
  131.59        2967.50           1662      143917.00    640757.10
  131.62        2967.75           1665      142229.00    633081.10
  131.64        2968.00           1668      138967.00    618258.80
  131.67        2968.25           1672      132259.00    587823.80
  131.70        2968.50           1675      126390.00    561246.10
  131.72        2968.75           1678      120539.00    534796.60
  131.75        2969.00           1682      111787.00    495320.00
  131.78        2969.25           1685      105699.00    467920.60
  131.80        2969.50           1688       98766.00    436778.80
  131.83        2969.75           1692       89543.00    395450.50
  131.86        2970.00           1695       82065.00    362024.70
  131.88        2970.25           1698       75391.00    332255.20
  131.91        2970.50           1702       66645.00    293332.30
  131.93        2970.75           1705       59553.00    261843.90
  131.96        2971.00           1708       53514.00    235082.60
  131.99        2971.25           1712       44997.00    197420.60
  132.01        2971.50           1715       38171.00    167303.90
  132.04        2971.75           1718       31878.00    139591.90
  132.07        2972.00           1722       23286.00    101837.80
  132.09        2972.25           1725       16575.00     72414.35
  132.12        2972.50           1728       10627.00     46383.94
  132.14        2972.75           1732        4611.00     20101.39
  132.17        2973.00           1735        2059.00      8966.04
  132.20        2973.25           1738         971.00      4221.16
  132.22        2973.50           1741         597.00      2590.46
  132.25        2973.75           1745         493.00      2137.03
  132.28        2974.00           1748         501.00      2171.91
  132.30        2974.25           1751         478.00      2071.63
  132.33        2974.50           1755         485.00      2102.15
  132.35        2974.75           1758         448.00      1940.84
  132.38        2975.00           1761         438.00      1897.24
  132.41        2975.25           1765         431.00      1866.72
  132.43        2975.50           1768         412.00      1783.89
  132.46        2975.75           1771         424.00      1836.21
  132.48        2976.00           1775         407.00      1762.09
  132.51        2976.25           1778         410.00      1775.17
  132.54        2976.50           1781         403.00      1744.65
  132.56        2976.75           1785         379.00      1640.02
  132.59        2977.00           1788         373.00      1613.86
  132.62        2977.25           1791         358.00      1548.47
  132.64        2977.50           1795         356.00      1539.75
  132.67        2977.75           1798         354.00      1531.03
  132.69        2978.00           1801         330.00      1426.40
  132.72        2978.25           1805         329.00      1422.04
  132.75        2978.50           1808         332.00      1435.12
  132.77        2978.75           1811         329.00      1422.04
  132.80        2979.00           1815         318.00      1374.08
  132.82        2979.25           1818         310.00      1339.20
  132.85        2979.50           1821         298.00      1286.89
  132.88        2979.75           1825         301.00      1299.97
  132.90        2980.00           1828         301.00      1299.97
  132.93        2980.25           1831         297.00      1282.53
  132.96        2980.50           1835         292.00      1260.73
  132.98        2980.75           1838         284.00      1225.86
  133.01        2981.00           1841         287.00      1238.93
  133.03        2981.25           1845         276.00      1190.98
  133.06        2981.50           1848         266.00      1147.38
  133.09        2981.75           1851         260.00      1121.23
  133.11        2982.00           1854         274.00      1182.26
  133.14        2982.25           1858         272.00      1173.54
  133.17        2982.50           1861         254.00      1095.07
  133.19        2982.75           1864         258.00      1112.51
  133.22        2983.00           1868         255.00      1099.43
  133.24        2983.25           1871         241.00      1038.40
  133.28        2983.50           1874         249.00      1073.27
  133.31        2983.75           1878         234.00      1007.88
  133.33        2984.00           1881         236.00      1016.60
HS scan finished at 02:13:26
end
************************************************************
  HS Scan of (1) Internal mercury lamp
************************************************************
Integration time is 0.2294 seconds per sample
dh020617Arenosillo 37.1 6.73 3.287017pr1000
************************************************************
Dead Time -------------------------  3.3E-08 
Number of Cycles Used -------------  4 
Starting Wavelength (Angstroms) ---  2950 
Final Wavelength (Angstoms) -------  2984 
Wavelength Increment (Angstroms) --  .25 
Filter Wheel #1 Position ---------- (1) Ground quartz diffuser (ND=2.32)
Filter Wheel #2 Position ---------- (1) Neutral Density 0.494



************************************************************
HS scan start time = 03:13:13
Dark Count =  7.2 


Time (GMT)  Wavelength (Ang)  Step Number  Raw Counts  Counts/Second

  193.60        2950.00           1431         251.00      1062.81
  193.67        2950.25           1434         263.00      1115.12
  193.69        2950.50           1437         260.00      1102.05
  193.72        2950.75           1440         249.00      1054.09
  193.74        2951.00           1444         265.00      1123.84
  193.77        2951.25           1447         265.00      1123.84
  193.80        2951.50           1450         275.00      1167.44
  193.82        2951.75           1454         271.00      1150.00
  193.85        2952.00           1457         294.00      1250.27
  193.87        2952.25           1460         298.00      1267.71
  193.90        2952.50           1464         303.00      1289.51
  193.93        2952.75           1467         303.00      1289.51
  193.95        2953.00           1470         298.00      1267.71
  193.98        2953.25           1473         299.00      1272.07
  194.01        2953.50           1477         305.00      1298.22
  194.03        2953.75           1480         311.00      1324.38
  194.06        2954.00           1483         317.00      1350.54
  194.08        2954.25           1487         318.00      1354.90
  194.11        2954.50           1490         326.00      1389.78
  194.14        2954.75           1493         336.00      1433.37
  194.16        2955.00           1497         356.00      1520.56
  194.19        2955.25           1500         356.00      1520.56
  194.22        2955.50           1503         353.00      1507.49
  194.24        2955.75           1506         364.00      1555.44
  194.27        2956.00           1510         353.00      1507.49
  194.29        2956.25           1513         390.00      1668.79
  194.32        2956.50           1516         401.00      1716.75
  194.35        2956.75           1520         386.00      1651.35
  194.37        2957.00           1523         400.00      1712.39
  194.40        2957.25           1526         398.00      1703.67
  194.43        2957.50           1530         402.00      1721.11
  194.46        2957.75           1533         404.00      1729.83
  194.48        2958.00           1536         420.00      1799.58
  194.51        2958.25           1539         437.00      1873.70
  194.53        2958.50           1543         432.00      1851.90
  194.56        2958.75           1546         437.00      1873.70
  194.59        2959.00           1549         472.00      2026.29
  194.61        2959.25           1553         451.00      1934.74
  194.64        2959.50           1556         467.00      2004.49
  194.66        2959.75           1559         493.00      2117.85
  194.69        2960.00           1563         495.00      2126.57
  194.72        2960.25           1566         525.00      2257.36
  194.74        2960.50           1569         560.00      2409.96
  194.77        2960.75           1572         559.00      2405.60
  194.80        2961.00           1576         738.00      3186.04
  194.82        2961.25           1579        1737.00      7542.42
  194.85        2961.50           1582        4793.00     20876.63
  194.87        2961.75           1586       11939.00     52102.59
  194.90        2962.00           1589       18359.00     80211.18
  194.93        2962.25           1592       25850.00    113075.00
  194.95        2962.50           1596       34913.00    152931.20
  194.98        2962.75           1599       42079.00    184519.50
  195.01        2963.00           1602       49306.00    216443.70
  195.03        2963.25           1606       58594.00    257571.50
  195.06        2963.50           1609       66034.00    290597.30
  195.08        2963.75           1612       72951.00    321366.60
  195.11        2964.00           1616       82002.00    361723.80
  195.14        2964.25           1619       89234.00    394048.10
  195.16        2964.50           1622       95632.00    422702.90
  195.19        2964.75           1625      102284.00    452553.20
  195.22        2965.00           1629      111136.00    492367.90
  195.24        2965.25           1632      118033.00    523462.60
  195.27        2965.50           1635      125210.00    555888.20
  195.29        2965.75           1639      134290.00    597012.20
  195.32        2966.00           1642      140863.00    626852.30
  195.35        2966.25           1645      146325.00    651693.90
  195.37        2966.50           1649      150703.00    671635.10
  195.40        2966.75           1652      152100.00    678003.90
  195.43        2967.00           1655      152112.00    678058.70
  195.45        2967.25           1659      152426.00    679490.50
  195.48        2967.50           1662      152057.00    677807.90
  195.51        2967.75           1665      150516.00    670782.80
  195.53        2968.00           1668      147447.00    656801.90
  195.56        2968.25           1672      139585.00    621045.80
  195.59        2968.50           1675      133551.00    593661.00
  195.61        2968.75           1678      126361.00    561095.00
  195.64        2969.00           1682      117784.00    522338.90
  195.66        2969.25           1685      111015.00    491822.90
  195.69        2969.50           1688      103804.00    459382.30
  195.72        2969.75           1692       93809.00    414532.60
  195.74        2970.00           1695       86610.00    382311.80
  195.77        2970.25           1698       79770.00    351761.50
  195.80        2970.50           1702       70102.00    308685.60
  195.82        2970.75           1705       62686.00    275726.80
  195.85        2971.00           1708       55952.00    245861.20
  195.87        2971.25           1712       46620.00    204570.80
  195.90        2971.50           1715       40094.00    175762.80
  195.93        2971.75           1718       33119.00    145033.40
  195.95        2972.00           1722       23338.00    102046.70
  195.98        2972.25           1725       16519.00     72149.80
  196.01        2972.50           1728       10252.00     44725.07
  196.03        2972.75           1732        4385.00     19095.73
  196.06        2973.00           1735        1900.00      8253.34
  196.08        2973.25           1738         904.00      3909.83
  196.11        2973.50           1741         624.00      2688.99
  196.14        2973.75           1745         551.00      2370.72
  196.16        2974.00           1748         538.00      2314.04
  196.19        2974.25           1751         512.00      2200.68
  196.21        2974.50           1755         493.00      2117.85
  196.24        2974.75           1758         486.00      2087.33
  196.27        2975.00           1761         475.00      2039.37
  196.29        2975.25           1765         485.00      2082.97
  196.32        2975.50           1768         457.00      1960.89
  196.35        2975.75           1771         454.00      1947.81
  196.37        2976.00           1775         447.00      1917.30
  196.40        2976.25           1778         426.00      1825.74
  196.42        2976.50           1781         431.00      1847.54
  196.45        2976.75           1785         412.00      1764.71
  196.48        2977.00           1788         400.00      1712.39
  196.50        2977.25           1791         378.00      1616.48
  196.53        2977.50           1795         376.00      1607.76
  196.56        2977.75           1798         387.00      1655.71
  196.58        2978.00           1801         369.00      1577.24
  196.61        2978.25           1805         377.00      1612.12
  196.63        2978.50           1808         360.00      1538.00
  196.66        2978.75           1811         365.00      1559.80
  196.69        2979.00           1815         359.00      1533.64
  196.71        2979.25           1818         351.00      1498.77
  196.74        2979.50           1821         340.00      1450.81
  196.76        2979.75           1825         332.00      1415.93
  196.79        2980.00           1828         315.00      1341.82
  196.82        2980.25           1831         333.00      1420.29
  196.84        2980.50           1835         317.00      1350.54
  196.87        2980.75           1838         307.00      1306.94
  196.90        2981.00           1841         295.00      1254.63
  196.92        2981.25           1845         277.00      1176.16
  196.95        2981.50           1848         282.00      1197.96
  196.97        2981.75           1851         285.00      1211.03
  197.00        2982.00           1854         294.00      1250.27
  197.03        2982.25           1858         289.00      1228.47
  197.05        2982.50           1861         276.00      1171.80
  197.08        2982.75           1864         269.00      1141.28
  197.11        2983.00           1868         258.00      1093.33
  197.13        2983.25           1871         274.00      1163.08
  197.16        2983.50           1874         263.00      1115.12
  197.18        2983.75           1878         248.00      1049.73
  197.21        2984.00           1881         245.00      1036.65
HS scan finished at 03:17:19
end
************************************************************
  HS Scan of (1) Internal mercury lamp
************************************************************
Integration time is 0.2294 seconds per sample
dh020617Arenosillo 37.1 6.73 3.233369pr1000
************************************************************
Dead Time -------------------------  3.3E-08 
Number of Cycles Used -------------  4 
Starting Wavelength (Angstroms) ---  2950 
Final Wavelength (Angstoms) -------  2984 
Wavelength Increment (Angstroms) --  .25 
Filter Wheel #1 Position ---------- (1) Ground quartz diffuser (ND=2.32)
Filter Wheel #2 Position ---------- (1) Neutral Density 0.494



************************************************************
HS scan start time = 04:18:07
Dark Count =  2.4 


Time (GMT)  Wavelength (Ang)  Step Number  Raw Counts  Counts/Second

  258.41        2950.00           1431         243.00      1048.86
  258.48        2950.25           1434         250.00      1079.38
  258.50        2950.50           1437         258.00      1114.25
  258.53        2950.75           1440         258.00      1114.25
  258.56        2951.00           1444         250.00      1079.38
  258.58        2951.25           1447         262.00      1131.69
  258.61        2951.50           1450         272.00      1175.29
  258.63        2951.75           1454         266.00      1149.13
  258.66        2952.00           1457         285.00      1231.96
  258.69        2952.25           1460         288.00      1245.04
  258.71        2952.50           1464         270.00      1166.57
  258.74        2952.75           1467         272.00      1175.29
  258.76        2953.00           1470         304.00      1314.79
  258.79        2953.25           1473         300.00      1297.35
  258.82        2953.50           1477         306.00      1323.51
  258.84        2953.75           1480         288.00      1245.04
  258.87        2954.00           1483         310.00      1340.95
  258.89        2954.25           1487         325.00      1406.34
  258.92        2954.50           1490         309.00      1336.59
  258.95        2954.75           1493         332.00      1436.86
  258.97        2955.00           1497         323.00      1397.62
  259.00        2955.25           1500         329.00      1423.78
  259.03        2955.50           1503         366.00      1585.09
  259.05        2955.75           1506         358.00      1550.21
  259.08        2956.00           1510         360.00      1558.93
  259.10        2956.25           1513         373.00      1615.60
  259.13        2956.50           1516         385.00      1667.92
  259.16        2956.75           1520         396.00      1715.88
  259.18        2957.00           1523         384.00      1663.56
  259.21        2957.25           1526         393.00      1702.80
  259.24        2957.50           1530         395.00      1711.52
  259.26        2957.75           1533         397.00      1720.24
  259.29        2958.00           1536         419.00      1816.15
  259.31        2958.25           1539         422.00      1829.23
  259.34        2958.50           1543         434.00      1881.55
  259.37        2958.75           1546         433.00      1877.19
  259.39        2959.00           1549         463.00      2007.98
  259.42        2959.25           1553         468.00      2029.78
  259.44        2959.50           1556         482.00      2090.82
  259.47        2959.75           1559         488.00      2116.97
  259.50        2960.00           1563         483.00      2095.18
  259.52        2960.25           1566         497.00      2156.21
  259.55        2960.50           1569         506.00      2195.45
  259.58        2960.75           1572         535.00      2321.89
  259.60        2961.00           1576         659.00      2862.52
  259.63        2961.25           1579        1415.00      6159.05
  259.65        2961.50           1582        4075.00     17763.68
  259.68        2961.75           1586       10277.00     44855.36
  259.71        2962.00           1589       16824.00     73506.78
  259.73        2962.25           1592       23810.00    104139.30
  259.76        2962.50           1596       32810.00    143694.60
  259.79        2962.75           1599       40281.00    176608.70
  259.81        2963.00           1602       47611.00    208971.40
  259.84        2963.25           1606       56540.00    248487.90
  259.86        2963.50           1609       63452.00    279149.10
  259.89        2963.75           1612       69889.00    307759.30
  259.92        2964.00           1616       78877.00    347799.00
  259.94        2964.25           1619       85600.00    377818.30
  259.97        2964.50           1622       92480.00    408600.70
  260.00        2964.75           1625       98808.00    436969.10
  260.02        2965.00           1629      108227.00    479293.70
  260.05        2965.25           1632      114588.00    507944.60
  260.07        2965.50           1635      121225.00    537897.10
  260.10        2965.75           1639      130128.00    578170.00
  260.13        2966.00           1642      136603.00    607527.70
  260.15        2966.25           1645      141980.00    631950.90
  260.18        2966.50           1649      146214.00    651210.50
  260.21        2966.75           1652      148047.00    659556.00
  260.23        2967.00           1655      147988.00    659287.30
  260.26        2967.25           1659      148279.00    660612.70
  260.29        2967.50           1662      147851.00    658663.50
  260.31        2967.75           1665      146804.00    653896.10
  260.34        2968.00           1668      143253.00    637738.90
  260.36        2968.25           1672      135443.00    602264.00
  260.39        2968.50           1675      129605.00    575801.10
  260.42        2968.75           1678      123783.00    549457.10
  260.44        2969.00           1682      114668.00    508305.30
  260.47        2969.25           1685      107208.00    474709.10
  260.50        2969.50           1688      100078.00    442668.90
  260.52        2969.75           1692       90865.00    401369.20
  260.55        2970.00           1695       84114.00    371177.90
  260.57        2970.25           1698       77131.00    340012.60
  260.60        2970.50           1702       67957.00    299166.60
  260.63        2970.75           1705       60723.00    267036.00
  260.65        2971.00           1708       54271.00    238436.30
  260.68        2971.25           1712       45153.00    198111.40
  260.71        2971.50           1715       38524.00    168861.60
  260.73        2971.75           1718       31859.00    139510.00
  260.76        2972.00           1722       23540.00    102954.30
  260.78        2972.25           1725       17431.00     76165.93
  260.81        2972.50           1728       10703.00     46718.01
  260.84        2972.75           1732        4407.00     19212.70
  260.86        2973.00           1735        1846.00      8038.75
  260.89        2973.25           1738         889.00      3865.36
  260.92        2973.50           1741         619.00      2688.12
  260.94        2973.75           1745         540.00      2343.69
  260.97        2974.00           1748         519.00      2252.13
  260.99        2974.25           1751         505.00      2191.09
  261.02        2974.50           1755         478.00      2073.38
  261.05        2974.75           1758         494.00      2143.13
  261.07        2975.00           1761         475.00      2060.30
  261.10        2975.25           1765         454.00      1968.74
  261.13        2975.50           1768         460.00      1994.90
  261.15        2975.75           1771         446.00      1933.86
  261.18        2976.00           1775         433.00      1877.19
  261.20        2976.25           1778         424.00      1837.95
  261.23        2976.50           1781         414.00      1794.35
  261.26        2976.75           1785         412.00      1785.63
  261.28        2977.00           1788         405.00      1755.11
  261.31        2977.25           1791         392.00      1698.44
  261.34        2977.50           1795         398.00      1724.60
  261.36        2977.75           1798         370.00      1602.53
  261.39        2978.00           1801         364.00      1576.37
  261.41        2978.25           1805         353.00      1528.41
  261.44        2978.50           1808         352.00      1524.05
  261.47        2978.75           1811         342.00      1480.46
  261.49        2979.00           1815         335.00      1449.94
  261.52        2979.25           1818         345.00      1493.53
  261.54        2979.50           1821         326.00      1410.70
  261.57        2979.75           1825         319.00      1380.18
  261.60        2980.00           1828         310.00      1340.95
  261.62        2980.25           1831         310.00      1340.95
  261.65        2980.50           1835         309.00      1336.59
  261.67        2980.75           1838         315.00      1362.75
  261.70        2981.00           1841         317.00      1371.47
  261.73        2981.25           1845         291.00      1258.12
  261.75        2981.50           1848         291.00      1258.12
  261.78        2981.75           1851         276.00      1192.72
  261.81        2982.00           1854         291.00      1258.12
  261.83        2982.25           1858         287.00      1240.68
  261.86        2982.50           1861         254.00      1096.81
  261.88        2982.75           1864         261.00      1127.33
  261.91        2983.00           1868         256.00      1105.53
  261.94        2983.25           1871         246.00      1061.94
  261.96        2983.50           1874         253.00      1092.45
  261.99        2983.75           1878         247.00      1066.30
  262.01        2984.00           1881         247.00      1066.30
HS scan finished at 04:22:07
end
************************************************************
  HS Scan of (1) Internal mercury lamp
************************************************************
Integration time is 0.2294 seconds per sample
dh020617Arenosillo 37.1 6.73 3.287017pr1000
************************************************************
Dead Time -------------------------  3.3E-08 
Number of Cycles Used -------------  4 
Starting Wavelength (Angstroms) ---  2950 
Final Wavelength (Angstoms) -------  2984 
Wavelength Increment (Angstroms) --  .25 
Filter Wheel #1 Position ---------- (1) Ground quartz diffuser (ND=2.32)
Filter Wheel #2 Position ---------- (1) Neutral Density 0.494



************************************************************
HS scan start time = 21:32:42
Dark Count =  0 


Time (GMT)  Wavelength (Ang)  Step Number  Raw Counts  Counts/Second

 1292.93        2950.00           1431         710.00      3095.35
 1293.00        2950.25           1434         667.00      2907.86
 1293.03        2950.50           1437         668.00      2912.22
 1293.05        2950.75           1440         651.00      2838.10
 1293.08        2951.00           1444         633.00      2759.62
 1293.11        2951.25           1447         613.00      2672.42
 1293.13        2951.50           1450         592.00      2580.87
 1293.16        2951.75           1454         579.00      2524.19
 1293.19        2952.00           1457         597.00      2602.66
 1293.21        2952.25           1460         565.00      2463.15
 1293.24        2952.50           1464         541.00      2358.51
 1293.26        2952.75           1467         529.00      2306.19
 1293.29        2953.00           1470         539.00      2349.79
 1293.32        2953.25           1473         523.00      2280.03
 1293.34        2953.50           1477         494.00      2153.60
 1293.37        2953.75           1480         509.00      2218.99
 1293.39        2954.00           1483         504.00      2197.20
 1293.42        2954.25           1487         491.00      2140.52
 1293.45        2954.50           1490         484.00      2110.00
 1293.47        2954.75           1493         466.00      2031.52
 1293.50        2955.00           1497         459.00      2001.00
 1293.53        2955.25           1500         463.00      2018.44
 1293.55        2955.50           1503         448.00      1953.05
 1293.58        2955.75           1506         454.00      1979.21
 1293.60        2956.00           1510         424.00      1848.41
 1293.63        2956.25           1513         424.00      1848.41
 1293.66        2956.50           1516         439.00      1913.81
 1293.68        2956.75           1520         411.00      1791.74
 1293.71        2957.00           1523         393.00      1713.26
 1293.73        2957.25           1526         425.00      1852.77
 1293.76        2957.50           1530         400.00      1743.78
 1293.79        2957.75           1533         395.00      1721.98
 1293.81        2958.00           1536         386.00      1682.74
 1293.84        2958.25           1539         373.00      1626.07
 1293.87        2958.50           1543         372.00      1621.71
 1293.89        2958.75           1546         381.00      1660.95
 1293.92        2959.00           1549         366.00      1595.55
 1293.94        2959.25           1553         358.00      1560.67
 1293.97        2959.50           1556         363.00      1582.47
 1294.00        2959.75           1559         374.00      1630.43
 1294.02        2960.00           1563         354.00      1543.23
 1294.05        2960.25           1566         355.00      1547.59
 1294.07        2960.50           1569         345.00      1504.00
 1294.10        2960.75           1572         355.00      1547.59
 1294.13        2961.00           1576         346.00      1508.36
 1294.15        2961.25           1579         336.00      1464.76
 1294.18        2961.50           1582         333.00      1451.68
 1294.21        2961.75           1586         325.00      1416.81
 1294.23        2962.00           1589         322.00      1403.73
 1294.26        2962.25           1592         327.00      1425.52
 1294.28        2962.50           1596         333.00      1451.68
 1294.31        2962.75           1599         320.00      1395.01
 1294.34        2963.00           1602         294.00      1281.66
 1294.36        2963.25           1606         310.00      1351.41
 1294.39        2963.50           1609         310.00      1351.41
 1294.41        2963.75           1612         304.00      1325.25
 1294.44        2964.00           1616         308.00      1342.69
 1294.47        2964.25           1619         299.00      1303.46
 1294.49        2964.50           1622         296.00      1290.38
 1294.52        2964.75           1625         300.00      1307.82
 1294.55        2965.00           1629         295.00      1286.02
 1294.57        2965.25           1632         290.00      1264.22
 1294.60        2965.50           1635         270.00      1177.03
 1294.62        2965.75           1639         280.00      1220.62
 1294.65        2966.00           1642         280.00      1220.62
 1294.68        2966.25           1645         278.00      1211.91
 1294.70        2966.50           1649         274.00      1194.47
 1294.73        2966.75           1652         275.00      1198.83
 1294.75        2967.00           1655         262.00      1142.15
 1294.78        2967.25           1659         251.00      1094.20
 1294.81        2967.50           1662         251.00      1094.20
 1294.83        2967.75           1665         272.00      1185.75
 1294.86        2968.00           1668         259.00      1129.07
 1294.88        2968.25           1672         261.00      1137.79
 1294.91        2968.50           1675         266.00      1159.59
 1294.94        2968.75           1678         270.00      1177.03
 1294.96        2969.00           1682         273.00      1190.11
 1294.99        2969.25           1685         250.00      1089.84
 1295.02        2969.50           1688         271.00      1181.39
 1295.04        2969.75           1692         248.00      1081.12
 1295.07        2970.00           1695         255.00      1111.64
 1295.09        2970.25           1698         245.00      1068.04
 1295.12        2970.50           1702         244.00      1063.68
 1295.15        2970.75           1705         258.00      1124.71
 1295.17        2971.00           1708         243.00      1059.32
 1295.20        2971.25           1712         248.00      1081.12
 1295.22        2971.50           1715         230.00      1002.65
 1295.25        2971.75           1718         235.00      1024.45
 1295.28        2972.00           1722         221.00       963.41
 1295.30        2972.25           1725         221.00       963.41
 1295.33        2972.50           1728         221.00       963.41
 1295.36        2972.75           1732         224.00       976.49
 1295.38        2973.00           1735         216.00       941.62
 1295.41        2973.25           1738         227.00       989.57
 1295.43        2973.50           1741         224.00       976.49
 1295.46        2973.75           1745         207.00       902.38
 1295.49        2974.00           1748         218.00       950.33
 1295.51        2974.25           1751         217.00       945.98
 1295.54        2974.50           1755         238.00      1037.52
 1295.57        2974.75           1758         224.00       976.49
 1295.59        2975.00           1761         208.00       906.74
 1295.62        2975.25           1765         213.00       928.54
 1295.64        2975.50           1768         218.00       950.33
 1295.67        2975.75           1771         204.00       889.30
 1295.70        2976.00           1775         215.00       937.26
 1295.72        2976.25           1778         211.00       919.82
 1295.75        2976.50           1781         211.00       919.82
 1295.77        2976.75           1785         191.00       832.63
 1295.80        2977.00           1788         210.00       915.46
 1295.83        2977.25           1791         202.00       880.58
 1295.85        2977.50           1795         202.00       880.58
 1295.88        2977.75           1798         195.00       850.07
 1295.91        2978.00           1801         193.00       841.35
 1295.93        2978.25           1805         204.00       889.30
 1295.96        2978.50           1808         191.00       832.63
 1295.98        2978.75           1811         177.00       771.60
 1296.01        2979.00           1815         192.00       836.99
 1296.04        2979.25           1818         198.00       863.15
 1296.06        2979.50           1821         177.00       771.60
 1296.09        2979.75           1825         184.00       802.11
 1296.12        2980.00           1828         186.00       810.83
 1296.14        2980.25           1831         182.00       793.39
 1296.17        2980.50           1835         186.00       810.83
 1296.19        2980.75           1838         180.00       784.68
 1296.22        2981.00           1841         170.00       741.08
 1296.25        2981.25           1845         183.00       797.75
 1296.27        2981.50           1848         177.00       771.60
 1296.30        2981.75           1851         184.00       802.11
 1296.32        2982.00           1854         178.00       775.96
 1296.35        2982.25           1858         187.00       815.19
 1296.38        2982.50           1861         172.00       749.80
 1296.40        2982.75           1864         169.00       736.72
 1296.43        2983.00           1868         172.00       749.80
 1296.46        2983.25           1871         163.00       710.57
 1296.48        2983.50           1874         172.00       749.80
 1296.51        2983.75           1878         169.00       736.72
 1296.53        2984.00           1881         157.00       684.41
HS scan finished at 21:36:39
end
