************************************************************
  HS Scan of (1) Internal mercury lamp
************************************************************
Integration time is 0.2294 seconds per sample
dh030617Arenosillo 37.1 6.73 3.179721pr1000
************************************************************
Dead Time -------------------------  3.3E-08 
Number of Cycles Used -------------  4 
Starting Wavelength (Angstroms) ---  2950 
Final Wavelength (Angstoms) -------  2984 
Wavelength Increment (Angstroms) --  .25 
Filter Wheel #1 Position ---------- (1) Ground quartz diffuser (ND=2.32)
Filter Wheel #2 Position ---------- (1) Neutral Density 0.494



************************************************************
HS scan start time = 01:45:02
Dark Count =  .1 


Time (GMT)  Wavelength (Ang)  Step Number  Raw Counts  Counts/Second

  105.28        2950.00           1431         666.00      2903.07
  105.35        2950.25           1434         668.00      2911.79
  105.37        2950.50           1437         634.00      2763.55
  105.40        2950.75           1440         637.00      2776.63
  105.42        2951.00           1444         598.00      2606.59
  105.45        2951.25           1447         616.00      2685.07
  105.48        2951.50           1450         588.00      2562.99
  105.50        2951.75           1454         600.00      2615.31
  105.53        2952.00           1457         561.00      2445.27
  105.55        2952.25           1460         553.00      2410.39
  105.58        2952.50           1464         543.00      2366.79
  105.61        2952.75           1467         539.00      2349.35
  105.63        2953.00           1470         539.00      2349.35
  105.66        2953.25           1473         490.00      2135.72
  105.69        2953.50           1477         510.00      2222.92
  105.71        2953.75           1480         506.00      2205.48
  105.74        2954.00           1483         491.00      2140.08
  105.76        2954.25           1487         499.00      2174.96
  105.79        2954.50           1490         473.00      2061.61
  105.82        2954.75           1493         456.00      1987.49
  105.84        2955.00           1497         445.00      1939.53
  105.87        2955.25           1500         424.00      1847.98
  105.89        2955.50           1503         445.00      1939.53
  105.92        2955.75           1506         425.00      1852.34
  105.95        2956.00           1510         434.00      1891.57
  105.98        2956.25           1513         422.00      1839.26
  106.00        2956.50           1516         401.00      1747.70
  106.03        2956.75           1520         423.00      1843.62
  106.06        2957.00           1523         404.00      1760.78
  106.08        2957.25           1526         381.00      1660.51
  106.11        2957.50           1530         388.00      1691.03
  106.14        2957.75           1533         363.00      1582.04
  106.16        2958.00           1536         371.00      1616.91
  106.19        2958.25           1539         394.00      1717.19
  106.21        2958.50           1543         377.00      1643.07
  106.24        2958.75           1546         363.00      1582.04
  106.27        2959.00           1549         356.00      1551.52
  106.29        2959.25           1553         353.00      1538.44
  106.32        2959.50           1556         363.00      1582.04
  106.34        2959.75           1559         355.00      1547.16
  106.37        2960.00           1563         351.00      1529.72
  106.40        2960.25           1566         332.00      1446.89
  106.42        2960.50           1569         343.00      1494.84
  106.45        2960.75           1572         332.00      1446.89
  106.48        2961.00           1576         333.00      1451.25
  106.50        2961.25           1579         324.00      1412.01
  106.53        2961.50           1582         308.00      1342.26
  106.55        2961.75           1586         288.00      1255.07
  106.58        2962.00           1589         316.00      1377.13
  106.61        2962.25           1592         307.00      1337.90
  106.63        2962.50           1596         310.00      1350.98
  106.66        2962.75           1599         299.00      1303.02
  106.68        2963.00           1602         313.00      1364.05
  106.71        2963.25           1606         306.00      1333.54
  106.74        2963.50           1609         300.00      1307.38
  106.76        2963.75           1612         296.00      1289.94
  106.79        2964.00           1616         303.00      1320.46
  106.82        2964.25           1619         282.00      1228.91
  106.84        2964.50           1622         291.00      1268.14
  106.87        2964.75           1625         293.00      1276.86
  106.89        2965.00           1629         302.00      1316.10
  106.92        2965.25           1632         291.00      1268.14
  106.95        2965.50           1635         278.00      1211.47
  106.97        2965.75           1639         300.00      1307.38
  107.00        2966.00           1642         275.00      1198.39
  107.03        2966.25           1645         271.00      1180.95
  107.05        2966.50           1649         275.00      1198.39
  107.08        2966.75           1652         252.00      1098.12
  107.10        2967.00           1655         262.00      1141.72
  107.13        2967.25           1659         262.00      1141.72
  107.16        2967.50           1662         268.00      1167.87
  107.18        2967.75           1665         257.00      1119.92
  107.21        2968.00           1668         263.00      1146.08
  107.23        2968.25           1672         251.00      1093.76
  107.26        2968.50           1675         248.00      1080.68
  107.29        2968.75           1678         257.00      1119.92
  107.31        2969.00           1682         261.00      1137.36
  107.34        2969.25           1685         239.00      1041.45
  107.37        2969.50           1688         254.00      1106.84
  107.39        2969.75           1692         256.00      1115.56
  107.42        2970.00           1695         258.00      1124.28
  107.44        2970.25           1698         245.00      1067.61
  107.47        2970.50           1702         241.00      1050.17
  107.50        2970.75           1705         246.00      1071.96
  107.52        2971.00           1708         236.00      1028.37
  107.55        2971.25           1712         249.00      1085.04
  107.57        2971.50           1715         224.00       976.06
  107.60        2971.75           1718         226.00       984.77
  107.63        2972.00           1722         225.00       980.42
  107.65        2972.25           1725         230.00      1002.21
  107.68        2972.50           1728         221.00       962.98
  107.70        2972.75           1732         215.00       936.82
  107.73        2973.00           1735         223.00       971.70
  107.76        2973.25           1738         224.00       976.06
  107.78        2973.50           1741         218.00       949.90
  107.81        2973.75           1745         218.00       949.90
  107.84        2974.00           1748         203.00       884.51
  107.86        2974.25           1751         213.00       928.10
  107.89        2974.50           1755         219.00       954.26
  107.91        2974.75           1758         216.00       941.18
  107.94        2975.00           1761         216.00       941.18
  107.97        2975.25           1765         210.00       915.02
  107.99        2975.50           1768         210.00       915.02
  108.02        2975.75           1771         200.00       871.43
  108.04        2976.00           1775         191.00       832.19
  108.07        2976.25           1778         206.00       897.59
  108.10        2976.50           1781         195.00       849.63
  108.12        2976.75           1785         188.00       819.12
  108.15        2977.00           1788         209.00       910.66
  108.18        2977.25           1791         212.00       923.74
  108.20        2977.50           1795         185.00       806.04
  108.23        2977.75           1798         182.00       792.96
  108.25        2978.00           1801         186.00       810.40
  108.28        2978.25           1805         185.00       806.04
  108.31        2978.50           1808         183.00       797.32
  108.33        2978.75           1811         186.00       810.40
  108.36        2979.00           1815         196.00       853.99
  108.38        2979.25           1818         164.00       714.49
  108.41        2979.50           1821         187.00       814.76
  108.44        2979.75           1825         190.00       827.83
  108.46        2980.00           1828         170.00       740.65
  108.49        2980.25           1831         176.00       766.80
  108.52        2980.50           1835         170.00       740.65
  108.54        2980.75           1838         183.00       797.32
  108.57        2981.00           1841         182.00       792.96
  108.59        2981.25           1845         167.00       727.57
  108.62        2981.50           1848         178.00       775.52
  108.65        2981.75           1851         172.00       749.36
  108.67        2982.00           1854         175.00       762.44
  108.70        2982.25           1858         174.00       758.08
  108.72        2982.50           1861         160.00       697.05
  108.75        2982.75           1864         178.00       775.52
  108.78        2983.00           1868         164.00       714.49
  108.80        2983.25           1871         169.00       736.29
  108.83        2983.50           1874         158.00       688.33
  108.86        2983.75           1878         162.00       705.77
  108.88        2984.00           1881         164.00       714.49
HS scan finished at 01:48:59
end
************************************************************
  HS Scan of (1) Internal mercury lamp
************************************************************
Integration time is 0.2294 seconds per sample
dh030617Arenosillo 37.1 6.73 3.179721pr1000
************************************************************
Dead Time -------------------------  3.3E-08 
Number of Cycles Used -------------  4 
Starting Wavelength (Angstroms) ---  2950 
Final Wavelength (Angstoms) -------  2984 
Wavelength Increment (Angstroms) --  .25 
Filter Wheel #1 Position ---------- (1) Ground quartz diffuser (ND=2.32)
Filter Wheel #2 Position ---------- (1) Neutral Density 0.494



************************************************************
HS scan start time = 02:57:59
Dark Count =  6.5 


Time (GMT)  Wavelength (Ang)  Step Number  Raw Counts  Counts/Second

  178.39        2950.00           1431         651.00      2809.76
  178.46        2950.25           1434         638.00      2753.08
  178.48        2950.50           1437         595.00      2565.61
  178.51        2950.75           1440         602.00      2596.12
  178.54        2951.00           1444         599.00      2583.05
  178.56        2951.25           1447         590.00      2543.81
  178.59        2951.50           1450         567.00      2443.53
  178.61        2951.75           1454         560.00      2413.01
  178.64        2952.00           1457         563.00      2426.09
  178.67        2952.25           1460         535.00      2304.01
  178.69        2952.50           1464         545.00      2347.61
  178.72        2952.75           1467         512.00      2203.73
  178.75        2953.00           1470         531.00      2286.57
  178.77        2953.25           1473         484.00      2081.66
  178.80        2953.50           1477         501.00      2155.78
  178.82        2953.75           1480         480.00      2064.22
  178.85        2954.00           1483         484.00      2081.66
  178.88        2954.25           1487         475.00      2042.42
  178.90        2954.50           1490         451.00      1937.79
  178.93        2954.75           1493         454.00      1950.87
  178.96        2955.00           1497         451.00      1937.79
  178.98        2955.25           1500         445.00      1911.63
  179.01        2955.50           1503         427.00      1833.15
  179.03        2955.75           1506         429.00      1841.87
  179.06        2956.00           1510         402.00      1724.16
  179.09        2956.25           1513         415.00      1780.84
  179.11        2956.50           1516         393.00      1684.92
  179.14        2956.75           1520         408.00      1750.32
  179.16        2957.00           1523         386.00      1654.41
  179.19        2957.25           1526         403.00      1728.52
  179.22        2957.50           1530         391.00      1676.20
  179.24        2957.75           1533         395.00      1693.64
  179.27        2958.00           1536         390.00      1671.84
  179.29        2958.25           1539         374.00      1602.09
  179.32        2958.50           1543         372.00      1593.37
  179.35        2958.75           1546         357.00      1527.98
  179.37        2959.00           1549         357.00      1527.98
  179.40        2959.25           1553         357.00      1527.98
  179.43        2959.50           1556         344.00      1471.30
  179.45        2959.75           1559         346.00      1480.02
  179.48        2960.00           1563         340.00      1453.86
  179.50        2960.25           1566         341.00      1458.22
  179.53        2960.50           1569         325.00      1388.47
  179.56        2960.75           1572         334.00      1427.70
  179.58        2961.00           1576         311.00      1327.43
  179.61        2961.25           1579         324.00      1384.11
  179.64        2961.50           1582         312.00      1331.79
  179.66        2961.75           1586         325.00      1388.47
  179.69        2962.00           1589         308.00      1314.36
  179.71        2962.25           1592         298.00      1270.76
  179.74        2962.50           1596         303.00      1292.56
  179.77        2962.75           1599         316.00      1349.23
  179.79        2963.00           1602         302.00      1288.20
  179.82        2963.25           1606         310.00      1323.07
  179.85        2963.50           1609         298.00      1270.76
  179.87        2963.75           1612         288.00      1227.16
  179.90        2964.00           1616         287.00      1222.80
  179.92        2964.25           1619         281.00      1196.65
  179.95        2964.50           1622         279.00      1187.93
  179.98        2964.75           1625         285.00      1214.09
  180.00        2965.00           1629         275.00      1170.49
  180.03        2965.25           1632         270.00      1148.69
  180.05        2965.50           1635         286.00      1218.44
  180.08        2965.75           1639         270.00      1148.69
  180.11        2966.00           1642         277.00      1179.21
  180.13        2966.25           1645         273.00      1161.77
  180.16        2966.50           1649         277.00      1179.21
  180.18        2966.75           1652         280.00      1192.29
  180.21        2967.00           1655         272.00      1157.41
  180.24        2967.25           1659         262.00      1113.82
  180.26        2967.50           1662         258.00      1096.38
  180.29        2967.75           1665         275.00      1170.49
  180.32        2968.00           1668         260.00      1105.10
  180.34        2968.25           1672         263.00      1118.18
  180.37        2968.50           1675         242.00      1026.63
  180.39        2968.75           1678         239.00      1013.55
  180.42        2969.00           1682         260.00      1105.10
  180.45        2969.25           1685         266.00      1131.25
  180.47        2969.50           1688         227.00       961.23
  180.50        2969.75           1692         236.00      1000.47
  180.52        2970.00           1695         237.00      1004.83
  180.55        2970.25           1698         230.00       974.31
  180.58        2970.50           1702         241.00      1022.27
  180.60        2970.75           1705         238.00      1009.19
  180.63        2971.00           1708         239.00      1013.55
  180.66        2971.25           1712         226.00       956.87
  180.68        2971.50           1715         224.00       948.16
  180.71        2971.75           1718         234.00       991.75
  180.73        2972.00           1722         224.00       948.16
  180.76        2972.25           1725         232.00       983.03
  180.79        2972.50           1728         221.00       935.08
  180.81        2972.75           1732         213.00       900.20
  180.85        2973.00           1735         219.00       926.36
  180.88        2973.25           1738         218.00       922.00
  180.90        2973.50           1741         231.00       978.67
  180.93        2973.75           1745         213.00       900.20
  180.95        2974.00           1748         214.00       904.56
  180.98        2974.25           1751         197.00       830.45
  181.01        2974.50           1755         221.00       935.08
  181.03        2974.75           1758         203.00       856.61
  181.06        2975.00           1761         215.00       908.92
  181.08        2975.25           1765         204.00       860.97
  181.11        2975.50           1768         205.00       865.33
  181.14        2975.75           1771         199.00       839.17
  181.16        2976.00           1775         201.00       847.89
  181.19        2976.25           1778         202.00       852.25
  181.21        2976.50           1781         197.00       830.45
  181.24        2976.75           1785         208.00       878.40
  181.27        2977.00           1788         190.00       799.93
  181.29        2977.25           1791         197.00       830.45
  181.32        2977.50           1795         178.00       747.62
  181.35        2977.75           1798         196.00       826.09
  181.37        2978.00           1801         196.00       826.09
  181.40        2978.25           1805         182.00       765.06
  181.42        2978.50           1808         194.00       817.37
  181.45        2978.75           1811         182.00       765.06
  181.48        2979.00           1815         186.00       782.50
  181.50        2979.25           1818         179.00       751.98
  181.53        2979.50           1821         186.00       782.50
  181.55        2979.75           1825         187.00       786.86
  181.58        2980.00           1828         185.00       778.14
  181.61        2980.25           1831         191.00       804.29
  181.63        2980.50           1835         184.00       773.78
  181.66        2980.75           1838         183.00       769.42
  181.69        2981.00           1841         171.00       717.11
  181.71        2981.25           1845         166.00       695.31
  181.74        2981.50           1848         167.00       699.67
  181.76        2981.75           1851         179.00       751.98
  181.79        2982.00           1854         170.00       712.75
  181.82        2982.25           1858         171.00       717.11
  181.84        2982.50           1861         171.00       717.11
  181.87        2982.75           1864         178.00       747.62
  181.89        2983.00           1868         169.00       708.39
  181.92        2983.25           1871         158.00       660.43
  181.95        2983.50           1874         166.00       695.31
  181.97        2983.75           1878         167.00       699.67
  182.00        2984.00           1881         170.00       712.75
HS scan finished at 03:02:06
end
************************************************************
  HS Scan of (1) Internal mercury lamp
************************************************************
Integration time is 0.2294 seconds per sample
dh030617Arenosillo 37.1 6.73 3.126073pr1000
************************************************************
Dead Time -------------------------  3.3E-08 
Number of Cycles Used -------------  4 
Starting Wavelength (Angstroms) ---  2950 
Final Wavelength (Angstoms) -------  2984 
Wavelength Increment (Angstroms) --  .25 
Filter Wheel #1 Position ---------- (1) Ground quartz diffuser (ND=2.32)
Filter Wheel #2 Position ---------- (1) Neutral Density 0.494



************************************************************
HS scan start time = 04:11:06
Dark Count =  .8 


Time (GMT)  Wavelength (Ang)  Step Number  Raw Counts  Counts/Second

  251.35        2950.00           1431         651.00      2834.62
  251.42        2950.25           1434         652.00      2838.98
  251.45        2950.50           1437         602.00      2620.98
  251.47        2950.75           1440         616.00      2682.02
  251.50        2951.00           1444         578.00      2516.34
  251.53        2951.25           1447         575.00      2503.26
  251.55        2951.50           1450         579.00      2520.70
  251.58        2951.75           1454         561.00      2442.22
  251.60        2952.00           1457         526.00      2289.62
  251.63        2952.25           1460         530.00      2307.06
  251.66        2952.50           1464         507.00      2206.79
  251.68        2952.75           1467         539.00      2346.30
  251.71        2953.00           1470         500.00      2176.27
  251.73        2953.25           1473         509.00      2215.51
  251.76        2953.50           1477         484.00      2106.51
  251.79        2953.75           1480         492.00      2141.39
  251.81        2954.00           1483         487.00      2119.59
  251.84        2954.25           1487         449.00      1953.92
  251.86        2954.50           1490         467.00      2032.39
  251.89        2954.75           1493         440.00      1914.68
  251.92        2955.00           1497         417.00      1814.41
  251.95        2955.25           1500         438.00      1905.96
  251.98        2955.50           1503         430.00      1871.08
  252.00        2955.75           1506         411.00      1788.25
  252.03        2956.00           1510         408.00      1775.17
  252.05        2956.25           1513         413.00      1796.97
  252.08        2956.50           1516         401.00      1744.65
  252.11        2956.75           1520         406.00      1766.45
  252.13        2957.00           1523         398.00      1731.57
  252.16        2957.25           1526         367.00      1596.42
  252.18        2957.50           1530         387.00      1683.62
  252.21        2957.75           1533         371.00      1613.86
  252.24        2958.00           1536         377.00      1640.02
  252.26        2958.25           1539         364.00      1583.34
  252.29        2958.50           1543         356.00      1548.47
  252.31        2958.75           1546         344.00      1496.15
  252.34        2959.00           1549         357.00      1552.83
  252.37        2959.25           1553         351.00      1526.67
  252.39        2959.50           1556         343.00      1491.79
  252.42        2959.75           1559         345.00      1500.51
  252.45        2960.00           1563         329.00      1430.76
  252.47        2960.25           1566         331.00      1439.48
  252.50        2960.50           1569         338.00      1469.99
  252.52        2960.75           1572         325.00      1413.32
  252.55        2961.00           1576         323.00      1404.60
  252.58        2961.25           1579         312.00      1356.64
  252.60        2961.50           1582         304.00      1321.77
  252.63        2961.75           1586         306.00      1330.49
  252.66        2962.00           1589         301.00      1308.69
  252.68        2962.25           1592         322.00      1400.24
  252.71        2962.50           1596         310.00      1347.92
  252.73        2962.75           1599         295.00      1282.53
  252.76        2963.00           1602         302.00      1313.05
  252.79        2963.25           1606         291.00      1265.09
  252.81        2963.50           1609         297.00      1291.25
  252.84        2963.75           1612         285.00      1238.93
  252.87        2964.00           1616         283.00      1230.22
  252.89        2964.25           1619         278.00      1208.42
  252.92        2964.50           1622         285.00      1238.93
  252.94        2964.75           1625         286.00      1243.29
  252.97        2965.00           1629         280.00      1217.14
  253.00        2965.25           1632         272.00      1182.26
  253.02        2965.50           1635         273.00      1186.62
  253.05        2965.75           1639         268.00      1164.82
  253.07        2966.00           1642         273.00      1186.62
  253.10        2966.25           1645         271.00      1177.90
  253.13        2966.50           1649         275.00      1195.34
  253.16        2966.75           1652         278.00      1208.42
  253.18        2967.00           1655         274.00      1190.98
  253.21        2967.25           1659         245.00      1064.55
  253.24        2967.50           1662         262.00      1138.67
  253.26        2967.75           1665         256.00      1112.51
  253.29        2968.00           1668         265.00      1151.74
  253.31        2968.25           1672         247.00      1073.27
  253.34        2968.50           1675         240.00      1042.76
  253.37        2968.75           1678         258.00      1121.23
  253.39        2969.00           1682         246.00      1068.91
  253.42        2969.25           1685         245.00      1064.55
  253.45        2969.50           1688         243.00      1055.83
  253.47        2969.75           1692         241.00      1047.12
  253.50        2970.00           1695         238.00      1034.04
  253.52        2970.25           1698         241.00      1047.12
  253.55        2970.50           1702         242.00      1051.48
  253.58        2970.75           1705         234.00      1016.60
  253.60        2971.00           1708         227.00       986.08
  253.63        2971.25           1712         235.00      1020.96
  253.65        2971.50           1715         237.00      1029.68
  253.68        2971.75           1718         222.00       964.29
  253.71        2972.00           1722         215.00       933.77
  253.73        2972.25           1725         231.00      1003.52
  253.76        2972.50           1728         231.00      1003.52
  253.79        2972.75           1732         219.00       951.21
  253.81        2973.00           1735         221.00       959.93
  253.84        2973.25           1738         215.00       933.77
  253.86        2973.50           1741         233.00      1012.24
  253.89        2973.75           1745         227.00       986.08
  253.92        2974.00           1748         208.00       903.25
  253.94        2974.25           1751         207.00       898.89
  253.97        2974.50           1755         211.00       916.33
  253.99        2974.75           1758         215.00       933.77
  254.02        2975.00           1761         217.00       942.49
  254.05        2975.25           1765         198.00       859.66
  254.07        2975.50           1768         202.00       877.10
  254.10        2975.75           1771         201.00       872.74
  254.13        2976.00           1775         197.00       855.30
  254.15        2976.25           1778         222.00       964.29
  254.18        2976.50           1781         196.00       850.94
  254.21        2976.75           1785         200.00       868.38
  254.23        2977.00           1788         196.00       850.94
  254.26        2977.25           1791         203.00       881.46
  254.29        2977.50           1795         190.00       824.78
  254.31        2977.75           1798         182.00       789.91
  254.34        2978.00           1801         190.00       824.78
  254.37        2978.25           1805         198.00       859.66
  254.39        2978.50           1808         197.00       855.30
  254.42        2978.75           1811         180.00       781.19
  254.44        2979.00           1815         194.00       842.22
  254.47        2979.25           1818         190.00       824.78
  254.50        2979.50           1821         177.00       768.11
  254.52        2979.75           1825         185.00       802.99
  254.55        2980.00           1828         184.00       798.63
  254.57        2980.25           1831         186.00       807.35
  254.60        2980.50           1835         167.00       724.52
  254.63        2980.75           1838         172.00       746.31
  254.65        2981.00           1841         168.00       728.88
  254.68        2981.25           1845         183.00       794.27
  254.71        2981.50           1848         180.00       781.19
  254.73        2981.75           1851         168.00       728.88
  254.76        2982.00           1854         171.00       741.95
  254.78        2982.25           1858         160.00       694.00
  254.81        2982.50           1861         174.00       755.03
  254.84        2982.75           1864         161.00       698.36
  254.86        2983.00           1868         170.00       737.59
  254.89        2983.25           1871         161.00       698.36
  254.92        2983.50           1874         155.00       672.20
  254.94        2983.75           1878         162.00       702.72
  254.97        2984.00           1881         164.00       711.44
HS scan finished at 04:15:05
end
************************************************************
  HS Scan of (1) Internal mercury lamp
************************************************************
Integration time is 0.2294 seconds per sample
dh030617Arenosillo 37.1 6.73 3.233369pr1000
************************************************************
Dead Time -------------------------  3.3E-08 
Number of Cycles Used -------------  4 
Starting Wavelength (Angstroms) ---  2950 
Final Wavelength (Angstoms) -------  2984 
Wavelength Increment (Angstroms) --  .25 
Filter Wheel #1 Position ---------- (1) Ground quartz diffuser (ND=2.32)
Filter Wheel #2 Position ---------- (1) Neutral Density 0.494



************************************************************
HS scan start time = 20:34:42
Dark Count =  7.3 


Time (GMT)  Wavelength (Ang)  Step Number  Raw Counts  Counts/Second

 1235.10        2950.00           1431         714.00      3080.96
 1235.17        2950.25           1434         694.00      2993.76
 1235.20        2950.50           1437         681.00      2937.08
 1235.22        2950.75           1440         664.00      2862.96
 1235.25        2951.00           1444         662.00      2854.24
 1235.27        2951.25           1447         635.00      2736.52
 1235.30        2951.50           1450         633.00      2727.80
 1235.33        2951.75           1454         617.00      2658.04
 1235.35        2952.00           1457         610.00      2627.52
 1235.38        2952.25           1460         616.00      2653.68
 1235.41        2952.50           1464         581.00      2501.08
 1235.43        2952.75           1467         578.00      2488.00
 1235.46        2953.00           1470         555.00      2387.72
 1235.48        2953.25           1473         561.00      2413.88
 1235.51        2953.50           1477         539.00      2317.96
 1235.54        2953.75           1480         512.00      2200.25
 1235.56        2954.00           1483         538.00      2313.60
 1235.59        2954.25           1487         501.00      2152.29
 1235.61        2954.50           1490         494.00      2121.77
 1235.64        2954.75           1493         471.00      2021.50
 1235.67        2955.00           1497         480.00      2060.73
 1235.69        2955.25           1500         495.00      2126.13
 1235.72        2955.50           1503         473.00      2030.21
 1235.75        2955.75           1506         448.00      1921.22
 1235.77        2956.00           1510         456.00      1956.10
 1235.80        2956.25           1513         428.00      1834.03
 1235.82        2956.50           1516         443.00      1899.42
 1235.85        2956.75           1520         430.00      1842.75
 1235.88        2957.00           1523         437.00      1873.26
 1235.90        2957.25           1526         438.00      1877.62
 1235.93        2957.50           1530         406.00      1738.11
 1235.95        2957.75           1533         414.00      1772.99
 1235.98        2958.00           1536         396.00      1694.52
 1236.01        2958.25           1539         400.00      1711.95
 1236.03        2958.50           1543         396.00      1694.52
 1236.06        2958.75           1546         410.00      1755.55
 1236.09        2959.00           1549         372.00      1589.88
 1236.11        2959.25           1553         384.00      1642.20
 1236.14        2959.50           1556         385.00      1646.56
 1236.16        2959.75           1559         376.00      1607.32
 1236.19        2960.00           1563         374.00      1598.60
 1236.22        2960.25           1566         353.00      1507.05
 1236.24        2960.50           1569         368.00      1572.44
 1236.27        2960.75           1572         362.00      1546.29
 1236.29        2961.00           1576         361.00      1541.93
 1236.32        2961.25           1579         364.00      1555.01
 1236.35        2961.50           1582         367.00      1568.08
 1236.37        2961.75           1586         339.00      1446.02
 1236.40        2962.00           1589         338.00      1441.66
 1236.43        2962.25           1592         345.00      1472.17
 1236.45        2962.50           1596         339.00      1446.02
 1236.48        2962.75           1599         317.00      1350.10
 1236.50        2963.00           1602         327.00      1393.70
 1236.53        2963.25           1606         326.00      1389.34
 1236.56        2963.50           1609         323.00      1376.26
 1236.58        2963.75           1612         321.00      1367.54
 1236.61        2964.00           1616         317.00      1350.10
 1236.63        2964.25           1619         301.00      1280.35
 1236.66        2964.50           1622         307.00      1306.51
 1236.69        2964.75           1625         308.00      1310.87
 1236.71        2965.00           1629         301.00      1280.35
 1236.74        2965.25           1632         319.00      1358.82
 1236.76        2965.50           1635         310.00      1319.59
 1236.79        2965.75           1639         288.00      1223.68
 1236.82        2966.00           1642         301.00      1280.35
 1236.84        2966.25           1645         289.00      1228.04
 1236.87        2966.50           1649         297.00      1262.91
 1236.90        2966.75           1652         289.00      1228.04
 1236.92        2967.00           1655         300.00      1275.99
 1236.95        2967.25           1659         290.00      1232.40
 1236.97        2967.50           1662         295.00      1254.19
 1237.00        2967.75           1665         270.00      1145.20
 1237.03        2968.00           1668         270.00      1145.20
 1237.05        2968.25           1672         279.00      1184.44
 1237.08        2968.50           1675         274.00      1162.64
 1237.10        2968.75           1678         277.00      1175.72
 1237.13        2969.00           1682         273.00      1158.28
 1237.16        2969.25           1685         281.00      1193.16
 1237.18        2969.50           1688         273.00      1158.28
 1237.21        2969.75           1692         272.00      1153.92
 1237.24        2970.00           1695         276.00      1171.36
 1237.26        2970.25           1698         256.00      1084.17
 1237.29        2970.50           1702         267.00      1132.13
 1237.31        2970.75           1705         276.00      1171.36
 1237.34        2971.00           1708         243.00      1027.50
 1237.37        2971.25           1712         245.00      1036.22
 1237.39        2971.50           1715         238.00      1005.70
 1237.42        2971.75           1718         254.00      1075.45
 1237.44        2972.00           1722         260.00      1101.61
 1237.47        2972.25           1725         250.00      1058.01
 1237.50        2972.50           1728         257.00      1088.53
 1237.52        2972.75           1732         257.00      1088.53
 1237.55        2973.00           1735         243.00      1027.50
 1237.58        2973.25           1738         245.00      1036.22
 1237.61        2973.50           1741         240.00      1014.42
 1237.63        2973.75           1745         244.00      1031.86
 1237.66        2974.00           1748         248.00      1049.30
 1237.69        2974.25           1751         236.00       996.98
 1237.71        2974.50           1755         231.00       975.18
 1237.74        2974.75           1758         222.00       935.95
 1237.76        2975.00           1761         234.00       988.26
 1237.79        2975.25           1765         231.00       975.18
 1237.82        2975.50           1768         236.00       996.98
 1237.84        2975.75           1771         220.00       927.23
 1237.87        2976.00           1775         218.00       918.51
 1237.89        2976.25           1778         218.00       918.51
 1237.92        2976.50           1781         198.00       831.32
 1237.95        2976.75           1785         215.00       905.43
 1237.97        2977.00           1788         212.00       892.35
 1238.00        2977.25           1791         216.00       909.79
 1238.03        2977.50           1795         214.00       901.07
 1238.05        2977.75           1798         212.00       892.35
 1238.08        2978.00           1801         209.00       879.28
 1238.10        2978.25           1805         216.00       909.79
 1238.13        2978.50           1808         198.00       831.32
 1238.16        2978.75           1811         205.00       861.84
 1238.18        2979.00           1815         208.00       874.92
 1238.21        2979.25           1818         210.00       883.64
 1238.23        2979.50           1821         190.00       796.45
 1238.26        2979.75           1825         201.00       844.40
 1238.29        2980.00           1828         211.00       887.99
 1238.31        2980.25           1831         203.00       853.12
 1238.34        2980.50           1835         203.00       853.12
 1238.37        2980.75           1838         197.00       826.96
 1238.39        2981.00           1841         198.00       831.32
 1238.42        2981.25           1845         197.00       826.96
 1238.44        2981.50           1848         201.00       844.40
 1238.47        2981.75           1851         179.00       748.49
 1238.50        2982.00           1854         190.00       796.45
 1238.52        2982.25           1858         189.00       792.09
 1238.55        2982.50           1861         180.00       752.85
 1238.57        2982.75           1864         192.00       805.17
 1238.60        2983.00           1868         183.00       765.93
 1238.63        2983.25           1871         178.00       744.13
 1238.65        2983.50           1874         188.00       787.73
 1238.68        2983.75           1878         198.00       831.32
 1238.71        2984.00           1881         192.00       805.17
HS scan finished at 20:38:49
end
