************************************************************
  HS Scan of (1) Internal mercury lamp
************************************************************
Integration time is 0.2294 seconds per sample
dh310517Arenosillo 37.1 6.73 3.179721pr1000
************************************************************
Dead Time -------------------------  3.3E-08 
Number of Cycles Used -------------  4 
Starting Wavelength (Angstroms) ---  2950 
Final Wavelength (Angstoms) -------  2984 
Wavelength Increment (Angstroms) --  .25 
Filter Wheel #1 Position ---------- (1) Ground quartz diffuser (ND=2.32)
Filter Wheel #2 Position ---------- (1) Neutral Density 0.494



************************************************************
HS scan start time = 02:04:10
Dark Count =  0 


Time (GMT)  Wavelength (Ang)  Step Number  Raw Counts  Counts/Second

  124.40        2950.00           1431         556.00      2423.91
  124.46        2950.25           1434         564.00      2458.79
  124.49        2950.50           1437         530.00      2310.55
  124.52        2950.75           1440         539.00      2349.79
  124.54        2951.00           1444         502.00      2188.48
  124.57        2951.25           1447         520.00      2266.95
  124.59        2951.50           1450         527.00      2297.47
  124.62        2951.75           1454         486.00      2118.72
  124.65        2952.00           1457         496.00      2162.32
  124.67        2952.25           1460         468.00      2040.24
  124.70        2952.50           1464         461.00      2009.72
  124.73        2952.75           1467         456.00      1987.92
  124.75        2953.00           1470         441.00      1922.53
  124.78        2953.25           1473         431.00      1878.93
  124.80        2953.50           1477         435.00      1896.37
  124.83        2953.75           1480         418.00      1822.25
  124.86        2954.00           1483         436.00      1900.73
  124.88        2954.25           1487         418.00      1822.25
  124.91        2954.50           1490         384.00      1674.02
  124.93        2954.75           1493         405.00      1765.58
  124.96        2955.00           1497         388.00      1691.46
  124.99        2955.25           1500         368.00      1604.27
  125.01        2955.50           1503         391.00      1704.54
  125.04        2955.75           1506         377.00      1643.51
  125.07        2956.00           1510         363.00      1582.47
  125.09        2956.25           1513         357.00      1556.31
  125.12        2956.50           1516         355.00      1547.59
  125.14        2956.75           1520         344.00      1499.64
  125.17        2957.00           1523         336.00      1464.76
  125.20        2957.25           1526         352.00      1534.52
  125.22        2957.50           1530         324.00      1412.45
  125.25        2957.75           1533         340.00      1482.20
  125.27        2958.00           1536         325.00      1416.81
  125.30        2958.25           1539         324.00      1412.45
  125.33        2958.50           1543         317.00      1381.93
  125.35        2958.75           1546         320.00      1395.01
  125.38        2959.00           1549         316.00      1377.57
  125.41        2959.25           1553         315.00      1373.21
  125.43        2959.50           1556         304.00      1325.25
  125.46        2959.75           1559         300.00      1307.82
  125.48        2960.00           1563         298.00      1299.10
  125.51        2960.25           1566         294.00      1281.66
  125.54        2960.50           1569         295.00      1286.02
  125.56        2960.75           1572         283.00      1233.70
  125.59        2961.00           1576         288.00      1255.50
  125.61        2961.25           1579         294.00      1281.66
  125.64        2961.50           1582         291.00      1268.58
  125.67        2961.75           1586         260.00      1133.43
  125.69        2962.00           1589         268.00      1168.31
  125.72        2962.25           1592         263.00      1146.51
  125.75        2962.50           1596         266.00      1159.59
  125.77        2962.75           1599         266.00      1159.59
  125.80        2963.00           1602         260.00      1133.43
  125.82        2963.25           1606         259.00      1129.07
  125.85        2963.50           1609         257.00      1120.36
  125.88        2963.75           1612         249.00      1085.48
  125.90        2964.00           1616         267.00      1163.95
  125.93        2964.25           1619         270.00      1177.03
  125.95        2964.50           1622         256.00      1116.00
  125.98        2964.75           1625         239.00      1041.88
  126.01        2965.00           1629         246.00      1072.40
  126.03        2965.25           1632         240.00      1046.24
  126.06        2965.50           1635         252.00      1098.56
  126.09        2965.75           1639         238.00      1037.52
  126.11        2966.00           1642         245.00      1068.04
  126.14        2966.25           1645         238.00      1037.52
  126.16        2966.50           1649         242.00      1054.96
  126.19        2966.75           1652         247.00      1076.76
  126.22        2967.00           1655         229.00       998.29
  126.24        2967.25           1659         225.00       980.85
  126.27        2967.50           1662         230.00      1002.65
  126.29        2967.75           1665         234.00      1020.09
  126.32        2968.00           1668         219.00       954.69
  126.35        2968.25           1672         227.00       989.57
  126.37        2968.50           1675         224.00       976.49
  126.40        2968.75           1678         201.00       876.22
  126.43        2969.00           1682         233.00      1015.73
  126.45        2969.25           1685         223.00       972.13
  126.48        2969.50           1688         203.00       884.94
  126.50        2969.75           1692         212.00       924.18
  126.53        2970.00           1695         216.00       941.62
  126.56        2970.25           1698         214.00       932.90
  126.58        2970.50           1702         222.00       967.77
  126.61        2970.75           1705         229.00       998.29
  126.63        2971.00           1708         202.00       880.58
  126.66        2971.25           1712         205.00       893.66
  126.69        2971.50           1715         196.00       854.43
  126.71        2971.75           1718         204.00       889.30
  126.74        2972.00           1722         194.00       845.71
  126.77        2972.25           1725         208.00       906.74
  126.79        2972.50           1728         194.00       845.71
  126.82        2972.75           1732         192.00       836.99
  126.84        2973.00           1735         197.00       858.79
  126.87        2973.25           1738         198.00       863.15
  126.90        2973.50           1741         184.00       802.11
  126.92        2973.75           1745         190.00       828.27
  126.95        2974.00           1748         186.00       810.83
  126.97        2974.25           1751         180.00       784.68
  127.00        2974.50           1755         180.00       784.68
  127.03        2974.75           1758         191.00       832.63
  127.05        2975.00           1761         181.00       789.04
  127.08        2975.25           1765         186.00       810.83
  127.11        2975.50           1768         186.00       810.83
  127.13        2975.75           1771         172.00       749.80
  127.16        2976.00           1775         162.00       706.21
  127.18        2976.25           1778         175.00       762.88
  127.21        2976.50           1781         178.00       775.96
  127.24        2976.75           1785         177.00       771.60
  127.26        2977.00           1788         175.00       762.88
  127.29        2977.25           1791         171.00       745.44
  127.31        2977.50           1795         170.00       741.08
  127.34        2977.75           1798         162.00       706.21
  127.37        2978.00           1801         168.00       732.36
  127.39        2978.25           1805         175.00       762.88
  127.42        2978.50           1808         175.00       762.88
  127.45        2978.75           1811         160.00       697.49
  127.47        2979.00           1815         162.00       706.21
  127.50        2979.25           1818         149.00       649.53
  127.52        2979.50           1821         174.00       758.52
  127.55        2979.75           1825         162.00       706.21
  127.58        2980.00           1828         159.00       693.13
  127.60        2980.25           1831         159.00       693.13
  127.63        2980.50           1835         158.00       688.77
  127.65        2980.75           1838         163.00       710.57
  127.68        2981.00           1841         147.00       640.82
  127.71        2981.25           1845         152.00       662.61
  127.73        2981.50           1848         148.00       645.18
  127.76        2981.75           1851         163.00       710.57
  127.79        2982.00           1854         142.00       619.02
  127.81        2982.25           1858         149.00       649.53
  127.84        2982.50           1861         152.00       662.61
  127.87        2982.75           1864         160.00       697.49
  127.90        2983.00           1868         149.00       649.53
  127.92        2983.25           1871         143.00       623.38
  127.95        2983.50           1874         142.00       619.02
  127.97        2983.75           1878         156.00       680.05
  128.00        2984.00           1881         153.00       666.97
HS scan finished at 02:08:06
end
************************************************************
  HS Scan of (1) Internal mercury lamp
************************************************************
Integration time is 0.2294 seconds per sample
dh310517Arenosillo 37.1 6.73 3.179721pr1000
************************************************************
Dead Time -------------------------  3.3E-08 
Number of Cycles Used -------------  4 
Starting Wavelength (Angstroms) ---  2950 
Final Wavelength (Angstoms) -------  2984 
Wavelength Increment (Angstroms) --  .25 
Filter Wheel #1 Position ---------- (1) Ground quartz diffuser (ND=2.32)
Filter Wheel #2 Position ---------- (1) Neutral Density 0.494



************************************************************
HS scan start time = 04:35:50
Dark Count =  4.4 


Time (GMT)  Wavelength (Ang)  Step Number  Raw Counts  Counts/Second

  276.17        2950.00           1431         556.00      2404.72
  276.24        2950.25           1434         557.00      2409.08
  276.27        2950.50           1437         513.00      2217.25
  276.30        2950.75           1440         532.00      2300.09
  276.32        2951.00           1444         511.00      2208.53
  276.35        2951.25           1447         518.00      2239.05
  276.37        2951.50           1450         493.00      2130.05
  276.40        2951.75           1454         492.00      2125.69
  276.43        2952.00           1457         468.00      2021.06
  276.45        2952.25           1460         464.00      2003.62
  276.48        2952.50           1464         464.00      2003.62
  276.50        2952.75           1467         451.00      1946.94
  276.53        2953.00           1470         431.00      1859.75
  276.56        2953.25           1473         441.00      1903.35
  276.58        2953.50           1477         412.00      1776.91
  276.61        2953.75           1480         435.00      1877.19
  276.64        2954.00           1483         414.00      1785.63
  276.66        2954.25           1487         387.00      1667.92
  276.69        2954.50           1490         417.00      1798.71
  276.71        2954.75           1493         376.00      1619.96
  276.74        2955.00           1497         379.00      1633.04
  276.77        2955.25           1500         386.00      1663.56
  276.79        2955.50           1503         372.00      1602.53
  276.82        2955.75           1506         357.00      1537.13
  276.85        2956.00           1510         362.00      1558.93
  276.87        2956.25           1513         380.00      1637.40
  276.90        2956.50           1516         333.00      1432.50
  276.92        2956.75           1520         347.00      1493.53
  276.95        2957.00           1523         334.00      1436.86
  276.98        2957.25           1526         338.00      1454.30
  277.00        2957.50           1530         321.00      1380.18
  277.03        2957.75           1533         328.00      1410.70
  277.05        2958.00           1536         325.00      1397.62
  277.08        2958.25           1539         319.00      1371.47
  277.11        2958.50           1543         311.00      1336.59
  277.13        2958.75           1546         307.00      1319.15
  277.16        2959.00           1549         306.00      1314.79
  277.19        2959.25           1553         293.00      1258.12
  277.21        2959.50           1556         309.00      1327.87
  277.24        2959.75           1559         312.00      1340.95
  277.26        2960.00           1563         296.00      1271.20
  277.29        2960.25           1566         292.00      1253.76
  277.32        2960.50           1569         294.00      1262.48
  277.34        2960.75           1572         292.00      1253.76
  277.37        2961.00           1576         270.00      1157.85
  277.39        2961.25           1579         291.00      1249.40
  277.42        2961.50           1582         282.00      1210.16
  277.45        2961.75           1586         257.00      1101.17
  277.47        2962.00           1589         276.00      1184.00
  277.50        2962.25           1592         257.00      1101.17
  277.52        2962.50           1596         274.00      1175.29
  277.55        2962.75           1599         267.00      1144.77
  277.58        2963.00           1602         263.00      1127.33
  277.60        2963.25           1606         267.00      1144.77
  277.63        2963.50           1609         263.00      1127.33
  277.66        2963.75           1612         261.00      1118.61
  277.68        2964.00           1616         263.00      1127.33
  277.71        2964.25           1619         261.00      1118.61
  277.73        2964.50           1622         228.00       974.75
  277.76        2964.75           1625         255.00      1092.45
  277.79        2965.00           1629         246.00      1053.22
  277.81        2965.25           1632         246.00      1053.22
  277.84        2965.50           1635         228.00       974.75
  277.86        2965.75           1639         236.00      1009.62
  277.89        2966.00           1642         242.00      1035.78
  277.92        2966.25           1645         244.00      1044.50
  277.94        2966.50           1649         222.00       948.59
  277.97        2966.75           1652         221.00       944.23
  278.00        2967.00           1655         222.00       948.59
  278.02        2967.25           1659         225.00       961.67
  278.05        2967.50           1662         235.00      1005.26
  278.07        2967.75           1665         220.00       939.87
  278.10        2968.00           1668         215.00       918.07
  278.13        2968.25           1672         224.00       957.31
  278.15        2968.50           1675         214.00       913.72
  278.18        2968.75           1678         214.00       913.72
  278.20        2969.00           1682         220.00       939.87
  278.23        2969.25           1685         217.00       926.79
  278.26        2969.50           1688         210.00       896.28
  278.28        2969.75           1692         208.00       887.56
  278.31        2970.00           1695         198.00       843.96
  278.34        2970.25           1698         205.00       874.48
  278.36        2970.50           1702         211.00       900.64
  278.39        2970.75           1705         197.00       839.60
  278.41        2971.00           1708         205.00       874.48
  278.44        2971.25           1712         198.00       843.96
  278.47        2971.50           1715         203.00       865.76
  278.49        2971.75           1718         205.00       874.48
  278.52        2972.00           1722         176.00       748.06
  278.54        2972.25           1725         191.00       813.45
  278.57        2972.50           1728         207.00       883.20
  278.60        2972.75           1732         191.00       813.45
  278.62        2973.00           1735         202.00       861.40
  278.65        2973.25           1738         194.00       826.53
  278.68        2973.50           1741         184.00       782.93
  278.70        2973.75           1745         184.00       782.93
  278.73        2974.00           1748         183.00       778.57
  278.76        2974.25           1751         186.00       791.65
  278.79        2974.50           1755         179.00       761.14
  278.82        2974.75           1758         180.00       765.49
  278.84        2975.00           1761         178.00       756.78
  278.87        2975.25           1765         182.00       774.21
  278.89        2975.50           1768         180.00       765.49
  278.92        2975.75           1771         168.00       713.18
  278.95        2976.00           1775         179.00       761.14
  278.97        2976.25           1778         172.00       730.62
  279.00        2976.50           1781         155.00       656.51
  279.02        2976.75           1785         172.00       730.62
  279.05        2977.00           1788         170.00       721.90
  279.08        2977.25           1791         167.00       708.82
  279.10        2977.50           1795         168.00       713.18
  279.13        2977.75           1798         157.00       665.23
  279.16        2978.00           1801         170.00       721.90
  279.18        2978.25           1805         164.00       695.74
  279.21        2978.50           1808         167.00       708.82
  279.23        2978.75           1811         171.00       726.26
  279.26        2979.00           1815         168.00       713.18
  279.29        2979.25           1818         166.00       704.46
  279.31        2979.50           1821         155.00       656.51
  279.34        2979.75           1825         156.00       660.87
  279.36        2980.00           1828         158.00       669.59
  279.39        2980.25           1831         161.00       682.67
  279.42        2980.50           1835         154.00       652.15
  279.44        2980.75           1838         161.00       682.67
  279.47        2981.00           1841         154.00       652.15
  279.50        2981.25           1845         158.00       669.59
  279.52        2981.50           1848         155.00       656.51
  279.55        2981.75           1851         150.00       634.71
  279.57        2982.00           1854         156.00       660.87
  279.60        2982.25           1858         135.00       569.32
  279.63        2982.50           1861         151.00       639.07
  279.65        2982.75           1864         152.00       643.43
  279.68        2983.00           1868         145.00       612.92
  279.70        2983.25           1871         143.00       604.20
  279.73        2983.50           1874         143.00       604.20
  279.76        2983.75           1878         144.00       608.56
  279.78        2984.00           1881         147.00       621.63
HS scan finished at 04:39:53
end
************************************************************
  HS Scan of (1) Internal mercury lamp
************************************************************
Integration time is 0.2294 seconds per sample
dh310517Arenosillo 37.1 6.73 3.287017pr1000
************************************************************
Dead Time -------------------------  3.3E-08 
Number of Cycles Used -------------  4 
Starting Wavelength (Angstroms) ---  2950 
Final Wavelength (Angstoms) -------  2984 
Wavelength Increment (Angstroms) --  .25 
Filter Wheel #1 Position ---------- (1) Ground quartz diffuser (ND=2.32)
Filter Wheel #2 Position ---------- (1) Neutral Density 0.494



************************************************************
HS scan start time = 20:11:31
Dark Count =  4.5 


Time (GMT)  Wavelength (Ang)  Step Number  Raw Counts  Counts/Second

 1211.85        2950.00           1431         548.00      2369.41
 1211.92        2950.25           1434         555.00      2399.93
 1211.94        2950.50           1437         533.00      2304.01
 1211.97        2950.75           1440         536.00      2317.09
 1212.00        2951.00           1444         514.00      2221.17
 1212.02        2951.25           1447         493.00      2129.62
 1212.05        2951.50           1450         492.00      2125.26
 1212.07        2951.75           1454         492.00      2125.26
 1212.10        2952.00           1457         457.00      1972.67
 1212.13        2952.25           1460         460.00      1985.74
 1212.15        2952.50           1464         450.00      1942.15
 1212.18        2952.75           1467         442.00      1907.27
 1212.20        2953.00           1470         415.00      1789.56
 1212.23        2953.25           1473         438.00      1889.83
 1212.26        2953.50           1477         411.00      1772.12
 1212.28        2953.75           1480         408.00      1759.04
 1212.31        2954.00           1483         418.00      1802.64
 1212.34        2954.25           1487         399.00      1719.80
 1212.36        2954.50           1490         416.00      1793.92
 1212.39        2954.75           1493         387.00      1667.49
 1212.41        2955.00           1497         400.00      1724.16
 1212.44        2955.25           1500         365.00      1571.57
 1212.47        2955.50           1503         349.00      1501.82
 1212.49        2955.75           1506         357.00      1536.70
 1212.52        2956.00           1510         361.00      1554.13
 1212.54        2956.25           1513         360.00      1549.77
 1212.57        2956.50           1516         370.00      1593.37
 1212.60        2956.75           1520         338.00      1453.86
 1212.62        2957.00           1523         333.00      1432.06
 1212.65        2957.25           1526         334.00      1436.42
 1212.68        2957.50           1530         336.00      1445.14
 1212.70        2957.75           1533         338.00      1453.86
 1212.73        2958.00           1536         322.00      1384.11
 1212.75        2958.25           1539         320.00      1375.39
 1212.78        2958.50           1543         312.00      1340.51
 1212.81        2958.75           1546         313.00      1344.87
 1212.83        2959.00           1549         288.00      1235.88
 1212.86        2959.25           1553         298.00      1279.48
 1212.88        2959.50           1556         295.00      1266.40
 1212.91        2959.75           1559         292.00      1253.32
 1212.94        2960.00           1563         293.00      1257.68
 1212.96        2960.25           1566         286.00      1227.16
 1212.99        2960.50           1569         292.00      1253.32
 1213.02        2960.75           1572         274.00      1174.85
 1213.04        2961.00           1576         269.00      1153.05
 1213.07        2961.25           1579         269.00      1153.05
 1213.09        2961.50           1582         270.00      1157.41
 1213.12        2961.75           1586         282.00      1209.73
 1213.15        2962.00           1589         270.00      1157.41
 1213.17        2962.25           1592         275.00      1179.21
 1213.20        2962.50           1596         265.00      1135.61
 1213.23        2962.75           1599         265.00      1135.61
 1213.25        2963.00           1602         270.00      1157.41
 1213.28        2963.25           1606         260.00      1113.82
 1213.30        2963.50           1609         249.00      1065.86
 1213.33        2963.75           1612         250.00      1070.22
 1213.36        2964.00           1616         237.00      1013.55
 1213.38        2964.25           1619         253.00      1083.30
 1213.41        2964.50           1622         250.00      1070.22
 1213.43        2964.75           1625         260.00      1113.82
 1213.46        2965.00           1629         241.00      1030.99
 1213.49        2965.25           1632         248.00      1061.50
 1213.51        2965.50           1635         260.00      1113.82
 1213.54        2965.75           1639         232.00       991.75
 1213.57        2966.00           1642         238.00      1017.91
 1213.59        2966.25           1645         233.00       996.11
 1213.62        2966.50           1649         214.00       913.28
 1213.64        2966.75           1652         240.00      1026.63
 1213.67        2967.00           1655         212.00       904.56
 1213.70        2967.25           1659         229.00       978.67
 1213.72        2967.50           1662         225.00       961.23
 1213.75        2967.75           1665         222.00       948.16
 1213.78        2968.00           1668         224.00       956.87
 1213.80        2968.25           1672         208.00       887.12
 1213.83        2968.50           1675         220.00       939.44
 1213.85        2968.75           1678         211.00       900.20
 1213.88        2969.00           1682         216.00       922.00
 1213.91        2969.25           1685         209.00       891.48
 1213.93        2969.50           1688         213.00       908.92
 1213.96        2969.75           1692         211.00       900.20
 1213.98        2970.00           1695         207.00       882.76
 1214.01        2970.25           1698         199.00       847.89
 1214.04        2970.50           1702         190.00       808.65
 1214.06        2970.75           1705         209.00       891.48
 1214.09        2971.00           1708         199.00       847.89
 1214.12        2971.25           1712         197.00       839.17
 1214.14        2971.50           1715         211.00       900.20
 1214.17        2971.75           1718         186.00       791.22
 1214.19        2972.00           1722         204.00       869.69
 1214.22        2972.25           1725         198.00       843.53
 1214.25        2972.50           1728         187.00       795.57
 1214.27        2972.75           1732         185.00       786.86
 1214.30        2973.00           1735         200.00       852.25
 1214.32        2973.25           1738         192.00       817.37
 1214.35        2973.50           1741         181.00       769.42
 1214.38        2973.75           1745         181.00       769.42
 1214.40        2974.00           1748         186.00       791.22
 1214.43        2974.25           1751         181.00       769.42
 1214.45        2974.50           1755         183.00       778.14
 1214.48        2974.75           1758         186.00       791.22
 1214.51        2975.00           1761         169.00       717.11
 1214.53        2975.25           1765         163.00       690.95
 1214.56        2975.50           1768         166.00       704.03
 1214.59        2975.75           1771         170.00       721.46
 1214.61        2976.00           1775         156.00       660.43
 1214.64        2976.25           1778         170.00       721.46
 1214.66        2976.50           1781         170.00       721.46
 1214.69        2976.75           1785         171.00       725.82
 1214.72        2977.00           1788         169.00       717.11
 1214.74        2977.25           1791         173.00       734.54
 1214.77        2977.50           1795         161.00       682.23
 1214.80        2977.75           1798         163.00       690.95
 1214.82        2978.00           1801         156.00       660.43
 1214.85        2978.25           1805         168.00       712.75
 1214.87        2978.50           1808         163.00       690.95
 1214.90        2978.75           1811         160.00       677.87
 1214.93        2979.00           1815         168.00       712.75
 1214.95        2979.25           1818         150.00       634.28
 1214.98        2979.50           1821         145.00       612.48
 1215.01        2979.75           1825         166.00       704.03
 1215.03        2980.00           1828         140.00       590.68
 1215.06        2980.25           1831         159.00       673.51
 1215.08        2980.50           1835         145.00       612.48
 1215.11        2980.75           1838         149.00       629.92
 1215.14        2981.00           1841         152.00       643.00
 1215.16        2981.25           1845         151.00       638.64
 1215.19        2981.50           1848         149.00       629.92
 1215.21        2981.75           1851         142.00       599.40
 1215.24        2982.00           1854         149.00       629.92
 1215.27        2982.25           1858         144.00       608.12
 1215.29        2982.50           1861         150.00       634.28
 1215.32        2982.75           1864         136.00       573.25
 1215.35        2983.00           1868         150.00       634.28
 1215.37        2983.25           1871         138.00       581.96
 1215.40        2983.50           1874         133.00       560.17
 1215.42        2983.75           1878         139.00       586.32
 1215.45        2984.00           1881         128.00       538.37
HS scan finished at 20:15:34
end
