************************************************************
  HS Scan of (1) Internal mercury lamp
************************************************************
Integration time is 0.2294 seconds per sample
dh300517Arenosillo 37.1 6.73 3.072425pr1000
************************************************************
Dead Time -------------------------  3.3E-08 
Number of Cycles Used -------------  4 
Starting Wavelength (Angstroms) ---  2950 
Final Wavelength (Angstoms) -------  2984 
Wavelength Increment (Angstroms) --  .25 
Filter Wheel #1 Position ---------- (1) Ground quartz diffuser (ND=2.32)
Filter Wheel #2 Position ---------- (1) Neutral Density 0.494



************************************************************
HS scan start time = 03:26:35
Dark Count =  .7 


Time (GMT)  Wavelength (Ang)  Step Number  Raw Counts  Counts/Second

  206.83        2950.00           1431         209.00       908.05
  206.90        2950.25           1434         200.00       868.81
  206.93        2950.50           1437         212.00       921.13
  206.95        2950.75           1440         225.00       977.80
  206.98        2951.00           1444         226.00       982.16
  207.01        2951.25           1447         211.00       916.77
  207.03        2951.50           1450         231.00      1003.96
  207.06        2951.75           1454         234.00      1017.04
  207.09        2952.00           1457         228.00       990.88
  207.11        2952.25           1460         235.00      1021.39
  207.14        2952.50           1464         242.00      1051.91
  207.16        2952.75           1467         252.00      1095.51
  207.19        2953.00           1470         238.00      1034.47
  207.22        2953.25           1473         252.00      1095.51
  207.24        2953.50           1477         277.00      1204.49
  207.27        2953.75           1480         254.00      1104.23
  207.29        2954.00           1483         263.00      1143.46
  207.32        2954.25           1487         279.00      1213.21
  207.35        2954.50           1490         267.00      1160.90
  207.37        2954.75           1493         283.00      1230.65
  207.40        2955.00           1497         292.00      1269.89
  207.43        2955.25           1500         291.00      1265.53
  207.45        2955.50           1503         306.00      1330.92
  207.48        2955.75           1506         302.00      1313.48
  207.50        2956.00           1510         310.00      1348.36
  207.53        2956.25           1513         306.00      1330.92
  207.56        2956.50           1516         311.00      1352.72
  207.58        2956.75           1520         334.00      1452.99
  207.61        2957.00           1523         321.00      1396.32
  207.64        2957.25           1526         325.00      1413.75
  207.67        2957.50           1530         347.00      1509.67
  207.69        2957.75           1533         331.00      1439.91
  207.72        2958.00           1536         364.00      1583.78
  207.75        2958.25           1539         374.00      1627.38
  207.77        2958.50           1543         372.00      1618.66
  207.80        2958.75           1546         375.00      1631.74
  207.83        2959.00           1549         379.00      1649.17
  207.85        2959.25           1553         387.00      1684.05
  207.88        2959.50           1556         391.00      1701.49
  207.91        2959.75           1559         413.00      1797.40
  207.93        2960.00           1563         413.00      1797.40
  207.96        2960.25           1566         421.00      1832.28
  207.98        2960.50           1569         459.00      1997.95
  208.01        2960.75           1572         457.00      1989.23
  208.04        2961.00           1576         509.00      2215.94
  208.06        2961.25           1579         808.00      3519.59
  208.09        2961.50           1582        2409.00     10501.90
  208.12        2961.75           1586        8088.00     35295.23
  208.14        2962.00           1589       13898.00     60702.56
  208.17        2962.25           1592       19582.00     85600.24
  208.19        2962.50           1596       27935.00    122263.50
  208.22        2962.75           1599       33731.00    147755.80
  208.25        2963.00           1602       39921.00    175028.50
  208.27        2963.25           1606       48208.00    211617.80
  208.30        2963.50           1609       53902.00    236809.80
  208.32        2963.75           1612       59539.00    261791.20
  208.35        2964.00           1616       66881.00    294390.60
  208.38        2964.25           1619       72419.00    319026.80
  208.40        2964.50           1622       79113.00    348859.40
  208.43        2964.75           1625       85013.00    375202.50
  208.46        2965.00           1629       93085.00    411318.20
  208.48        2965.25           1632       98801.00    436945.30
  208.51        2965.50           1635      104227.00    461312.60
  208.53        2965.75           1639      112205.00    497212.50
  208.56        2966.00           1642      117668.00    521844.80
  208.59        2966.25           1645      122224.00    542418.30
  208.61        2966.50           1649      126191.00    560355.30
  208.64        2966.75           1652      127956.00    568342.60
  208.67        2967.00           1655      128409.00    570393.30
  208.69        2967.25           1659      128159.00    569261.50
  208.72        2967.50           1662      128047.00    568754.60
  208.75        2967.75           1665      127218.00    565002.30
  208.77        2968.00           1668      124411.00    552304.30
  208.80        2968.25           1672      118858.00    527215.80
  208.82        2968.50           1675      113190.00    501650.80
  208.85        2968.75           1678      107587.00    476421.70
  208.88        2969.00           1682      100429.00    444252.30
  208.90        2969.25           1685       94693.00    418523.10
  208.93        2969.50           1688       89132.00    393620.80
  208.96        2969.75           1692       80186.00    353646.80
  208.98        2970.00           1695       74360.00    327671.00
  209.01        2970.25           1698       68166.00    300103.50
  209.03        2970.50           1702       60080.00    264190.90
  209.06        2970.75           1705       53977.00    237142.00
  209.09        2971.00           1708       47875.00    210145.90
  209.11        2971.25           1712       40524.00    177688.00
  209.14        2971.50           1715       34782.00    152382.90
  209.17        2971.75           1718       28508.00    124781.70
  209.19        2972.00           1722       21089.00     92208.22
  209.22        2972.25           1725       15076.00     65859.20
  209.24        2972.50           1728        9583.00     41828.84
  209.27        2972.75           1732        4290.00     18709.46
  209.30        2973.00           1735        1887.00      8224.99
  209.32        2973.25           1738         871.00      3794.29
  209.35        2973.50           1741         554.00      2412.14
  209.38        2973.75           1745         493.00      2146.19
  209.40        2974.00           1748         468.00      2037.19
  209.43        2974.25           1751         448.00      1949.99
  209.45        2974.50           1755         436.00      1897.68
  209.48        2974.75           1758         428.00      1862.80
  209.51        2975.00           1761         407.00      1771.25
  209.53        2975.25           1765         389.00      1692.77
  209.56        2975.50           1768         392.00      1705.85
  209.58        2975.75           1771         383.00      1666.61
  209.61        2976.00           1775         373.00      1623.02
  209.64        2976.25           1778         371.00      1614.30
  209.66        2976.50           1781         358.00      1557.62
  209.69        2976.75           1785         345.00      1500.95
  209.71        2977.00           1788         356.00      1548.90
  209.74        2977.25           1791         333.00      1448.63
  209.77        2977.50           1795         345.00      1500.95
  209.79        2977.75           1798         326.00      1418.11
  209.82        2978.00           1801         310.00      1348.36
  209.85        2978.25           1805         316.00      1374.52
  209.87        2978.50           1808         305.00      1326.56
  209.90        2978.75           1811         310.00      1348.36
  209.92        2979.00           1815         302.00      1313.48
  209.95        2979.25           1818         286.00      1243.73
  209.98        2979.50           1821         284.00      1235.01
  210.00        2979.75           1825         282.00      1226.29
  210.03        2980.00           1828         265.00      1152.18
  210.05        2980.25           1831         265.00      1152.18
  210.08        2980.50           1835         279.00      1213.21
  210.11        2980.75           1838         252.00      1095.51
  210.13        2981.00           1841         256.00      1112.94
  210.16        2981.25           1845         267.00      1160.90
  210.19        2981.50           1848         250.00      1086.79
  210.21        2981.75           1851         247.00      1073.71
  210.24        2982.00           1854         234.00      1017.04
  210.26        2982.25           1858         232.00      1008.32
  210.29        2982.50           1861         245.00      1064.99
  210.32        2982.75           1864         216.00       938.56
  210.34        2983.00           1868         222.00       964.72
  210.37        2983.25           1871         217.00       942.92
  210.39        2983.50           1874         210.00       912.41
  210.42        2983.75           1878         218.00       947.28
  210.45        2984.00           1881         215.00       934.20
HS scan finished at 03:30:33
end
************************************************************
  HS Scan of (1) Internal mercury lamp
************************************************************
Integration time is 0.2294 seconds per sample
dh300517Arenosillo 37.1 6.73 3.287017pr1000
************************************************************
Dead Time -------------------------  3.3E-08 
Number of Cycles Used -------------  4 
Starting Wavelength (Angstroms) ---  2950 
Final Wavelength (Angstoms) -------  2984 
Wavelength Increment (Angstroms) --  .25 
Filter Wheel #1 Position ---------- (1) Ground quartz diffuser (ND=2.32)
Filter Wheel #2 Position ---------- (1) Neutral Density 0.494



************************************************************
HS scan start time = 20:12:34
Dark Count =  7.3 


Time (GMT)  Wavelength (Ang)  Step Number  Raw Counts  Counts/Second

 1212.95        2950.00           1431         553.00      2379.00
 1213.02        2950.25           1434         540.00      2322.32
 1213.05        2950.50           1437         542.00      2331.04
 1213.07        2950.75           1440         523.00      2248.21
 1213.10        2951.00           1444         531.00      2283.08
 1213.12        2951.25           1447         516.00      2217.69
 1213.15        2951.50           1450         510.00      2191.53
 1213.18        2951.75           1454         489.00      2099.97
 1213.20        2952.00           1457         495.00      2126.13
 1213.23        2952.25           1460         475.00      2038.93
 1213.25        2952.50           1464         456.00      1956.10
 1213.28        2952.75           1467         442.00      1895.06
 1213.31        2953.00           1470         445.00      1908.14
 1213.33        2953.25           1473         457.00      1960.46
 1213.36        2953.50           1477         441.00      1890.70
 1213.39        2953.75           1480         432.00      1851.46
 1213.41        2954.00           1483         442.00      1895.06
 1213.44        2954.25           1487         400.00      1711.95
 1213.46        2954.50           1490         399.00      1707.59
 1213.49        2954.75           1493         384.00      1642.20
 1213.52        2955.00           1497         383.00      1637.84
 1213.54        2955.25           1500         377.00      1611.68
 1213.57        2955.50           1503         373.00      1594.24
 1213.60        2955.75           1506         359.00      1533.21
 1213.62        2956.00           1510         367.00      1568.08
 1213.65        2956.25           1513         357.00      1524.49
 1213.67        2956.50           1516         348.00      1485.25
 1213.70        2956.75           1520         354.00      1511.41
 1213.73        2957.00           1523         340.00      1450.37
 1213.75        2957.25           1526         350.00      1493.97
 1213.78        2957.50           1530         336.00      1432.94
 1213.80        2957.75           1533         323.00      1376.26
 1213.83        2958.00           1536         323.00      1376.26
 1213.86        2958.25           1539         315.00      1341.38
 1213.88        2958.50           1543         308.00      1310.87
 1213.91        2958.75           1546         311.00      1323.95
 1213.94        2959.00           1549         295.00      1254.19
 1213.96        2959.25           1553         325.00      1384.98
 1213.99        2959.50           1556         311.00      1323.95
 1214.01        2959.75           1559         308.00      1310.87
 1214.04        2960.00           1563         291.00      1236.76
 1214.07        2960.25           1566         294.00      1249.83
 1214.09        2960.50           1569         288.00      1223.68
 1214.12        2960.75           1572         284.00      1206.24
 1214.14        2961.00           1576         283.00      1201.88
 1214.17        2961.25           1579         277.00      1175.72
 1214.20        2961.50           1582         285.00      1210.60
 1214.22        2961.75           1586         280.00      1188.80
 1214.25        2962.00           1589         282.00      1197.52
 1214.28        2962.25           1592         267.00      1132.13
 1214.30        2962.50           1596         261.00      1105.97
 1214.33        2962.75           1599         261.00      1105.97
 1214.35        2963.00           1602         267.00      1132.13
 1214.38        2963.25           1606         264.00      1119.05
 1214.41        2963.50           1609         246.00      1040.58
 1214.43        2963.75           1612         241.00      1018.78
 1214.46        2964.00           1616         252.00      1066.73
 1214.48        2964.25           1619         231.00       975.18
 1214.51        2964.50           1622         257.00      1088.53
 1214.54        2964.75           1625         241.00      1018.78
 1214.56        2965.00           1629         232.00       979.54
 1214.59        2965.25           1632         237.00      1001.34
 1214.62        2965.50           1635         246.00      1040.58
 1214.64        2965.75           1639         247.00      1044.94
 1214.67        2966.00           1642         237.00      1001.34
 1214.69        2966.25           1645         236.00       996.98
 1214.72        2966.50           1649         240.00      1014.42
 1214.75        2966.75           1652         225.00       949.03
 1214.77        2967.00           1655         218.00       918.51
 1214.80        2967.25           1659         218.00       918.51
 1214.82        2967.50           1662         220.00       927.23
 1214.85        2967.75           1665         213.00       896.71
 1214.88        2968.00           1668         236.00       996.98
 1214.90        2968.25           1672         228.00       962.11
 1214.93        2968.50           1675         217.00       914.15
 1214.96        2968.75           1678         209.00       879.28
 1214.98        2969.00           1682         214.00       901.07
 1215.01        2969.25           1685         209.00       879.28
 1215.03        2969.50           1688         202.00       848.76
 1215.06        2969.75           1692         204.00       857.48
 1215.09        2970.00           1695         205.00       861.84
 1215.11        2970.25           1698         186.00       779.01
 1215.14        2970.50           1702         211.00       887.99
 1215.16        2970.75           1705         198.00       831.32
 1215.19        2971.00           1708         208.00       874.92
 1215.22        2971.25           1712         199.00       835.68
 1215.24        2971.50           1715         205.00       861.84
 1215.27        2971.75           1718         186.00       779.01
 1215.30        2972.00           1722         196.00       822.60
 1215.32        2972.25           1725         195.00       818.24
 1215.35        2972.50           1728         182.00       761.57
 1215.37        2972.75           1732         198.00       831.32
 1215.40        2973.00           1735         186.00       779.01
 1215.43        2973.25           1738         198.00       831.32
 1215.45        2973.50           1741         191.00       800.81
 1215.48        2973.75           1745         189.00       792.09
 1215.50        2974.00           1748         182.00       761.57
 1215.53        2974.25           1751         166.00       691.82
 1215.56        2974.50           1755         188.00       787.73
 1215.58        2974.75           1758         183.00       765.93
 1215.61        2975.00           1761         190.00       796.45
 1215.64        2975.25           1765         185.00       774.65
 1215.66        2975.50           1768         175.00       731.06
 1215.69        2975.75           1771         179.00       748.49
 1215.71        2976.00           1775         169.00       704.90
 1215.74        2976.25           1778         175.00       731.06
 1215.77        2976.50           1781         166.00       691.82
 1215.79        2976.75           1785         168.00       700.54
 1215.82        2977.00           1788         157.00       652.59
 1215.84        2977.25           1791         165.00       687.46
 1215.87        2977.50           1795         168.00       700.54
 1215.90        2977.75           1798         170.00       709.26
 1215.92        2978.00           1801         163.00       678.74
 1215.95        2978.25           1805         163.00       678.74
 1215.98        2978.50           1808         157.00       652.59
 1216.00        2978.75           1811         153.00       635.15
 1216.03        2979.00           1815         144.00       595.91
 1216.05        2979.25           1818         155.00       643.87
 1216.08        2979.50           1821         158.00       656.95
 1216.11        2979.75           1825         153.00       635.15
 1216.13        2980.00           1828         149.00       617.71
 1216.16        2980.25           1831         146.00       604.63
 1216.18        2980.50           1835         162.00       674.38
 1216.21        2980.75           1838         156.00       648.23
 1216.24        2981.00           1841         150.00       622.07
 1216.26        2981.25           1845         149.00       617.71
 1216.29        2981.50           1848         152.00       630.79
 1216.32        2981.75           1851         146.00       604.63
 1216.34        2982.00           1854         153.00       635.15
 1216.37        2982.25           1858         145.00       600.27
 1216.40        2982.50           1861         150.00       622.07
 1216.42        2982.75           1864         136.00       561.04
 1216.45        2983.00           1868         142.00       587.20
 1216.48        2983.25           1871         141.00       582.84
 1216.50        2983.50           1874         148.00       613.35
 1216.53        2983.75           1878         139.00       574.12
 1216.56        2984.00           1881         132.00       543.60
HS scan finished at 20:16:40
end
