************************************************************
  HS Scan of (1) Internal mercury lamp
************************************************************
Integration time is 0.2294 seconds per sample
dh040617Arenosillo 37.1 6.73 2.965129pr1000
************************************************************
Dead Time -------------------------  3.3E-08 
Number of Cycles Used -------------  4 
Starting Wavelength (Angstroms) ---  2950 
Final Wavelength (Angstoms) -------  2984 
Wavelength Increment (Angstroms) --  .25 
Filter Wheel #1 Position ---------- (1) Ground quartz diffuser (ND=2.32)
Filter Wheel #2 Position ---------- (1) Neutral Density 0.494



************************************************************
HS scan start time = 01:52:42
Dark Count =  2.2 


Time (GMT)  Wavelength (Ang)  Step Number  Raw Counts  Counts/Second

  113.00        2950.00           1431         695.00      3020.35
  113.07        2950.25           1434         676.00      2937.51
  113.09        2950.50           1437         681.00      2959.31
  113.12        2950.75           1440         689.00      2994.19
  113.14        2951.00           1444         643.00      2793.63
  113.17        2951.25           1447         657.00      2854.67
  113.20        2951.50           1450         608.00      2641.03
  113.22        2951.75           1454         610.00      2649.75
  113.25        2952.00           1457         607.00      2636.67
  113.27        2952.25           1460         595.00      2584.35
  113.30        2952.50           1464         560.00      2431.76
  113.33        2952.75           1467         561.00      2436.12
  113.35        2953.00           1470         568.00      2466.63
  113.38        2953.25           1473         517.00      2244.28
  113.41        2953.50           1477         537.00      2331.48
  113.43        2953.75           1480         533.00      2314.04
  113.46        2954.00           1483         520.00      2257.36
  113.48        2954.25           1487         492.00      2135.29
  113.51        2954.50           1490         489.00      2122.21
  113.54        2954.75           1493         487.00      2113.49
  113.56        2955.00           1497         475.00      2061.17
  113.59        2955.25           1500         459.00      1991.41
  113.61        2955.50           1503         465.00      2017.57
  113.64        2955.75           1506         456.00      1978.33
  113.67        2956.00           1510         439.00      1904.22
  113.69        2956.25           1513         452.00      1960.89
  113.72        2956.50           1516         418.00      1812.66
  113.75        2956.75           1520         420.00      1821.38
  113.77        2957.00           1523         415.00      1799.58
  113.80        2957.25           1526         419.00      1817.02
  113.82        2957.50           1530         429.00      1860.62
  113.85        2957.75           1533         408.00      1769.07
  113.88        2958.00           1536         414.00      1795.22
  113.90        2958.25           1539         404.00      1751.63
  113.93        2958.50           1543         392.00      1699.31
  113.95        2958.75           1546         395.00      1712.39
  113.99        2959.00           1549         381.00      1651.35
  114.02        2959.25           1553         382.00      1655.71
  114.04        2959.50           1556         373.00      1616.48
  114.07        2959.75           1559         375.00      1625.20
  114.10        2960.00           1563         378.00      1638.28
  114.12        2960.25           1566         358.00      1551.08
  114.15        2960.50           1569         363.00      1572.88
  114.17        2960.75           1572         357.00      1546.72
  114.20        2961.00           1576         353.00      1529.28
  114.23        2961.25           1579         350.00      1516.21
  114.25        2961.50           1582         346.00      1498.77
  114.28        2961.75           1586         335.00      1450.81
  114.30        2962.00           1589         327.00      1415.93
  114.33        2962.25           1592         337.00      1459.53
  114.36        2962.50           1596         348.00      1507.49
  114.38        2962.75           1599         325.00      1407.21
  114.41        2963.00           1602         338.00      1463.89
  114.44        2963.25           1606         335.00      1450.81
  114.46        2963.50           1609         323.00      1398.50
  114.49        2963.75           1612         313.00      1354.90
  114.51        2964.00           1616         315.00      1363.62
  114.54        2964.25           1619         316.00      1367.98
  114.57        2964.50           1622         291.00      1258.99
  114.59        2964.75           1625         311.00      1346.18
  114.62        2965.00           1629         289.00      1250.27
  114.64        2965.25           1632         307.00      1328.74
  114.67        2965.50           1635         299.00      1293.87
  114.70        2965.75           1639         311.00      1346.18
  114.72        2966.00           1642         285.00      1232.83
  114.75        2966.25           1645         284.00      1228.47
  114.78        2966.50           1649         291.00      1258.99
  114.80        2966.75           1652         272.00      1176.16
  114.83        2967.00           1655         285.00      1232.83
  114.85        2967.25           1659         264.00      1141.28
  114.88        2967.50           1662         277.00      1197.96
  114.91        2967.75           1665         273.00      1180.52
  114.93        2968.00           1668         282.00      1219.75
  114.96        2968.25           1672         280.00      1211.03
  114.98        2968.50           1675         282.00      1219.75
  115.01        2968.75           1678         283.00      1224.11
  115.04        2969.00           1682         275.00      1189.24
  115.07        2969.25           1685         275.00      1189.24
  115.09        2969.50           1688         271.00      1171.80
  115.12        2969.75           1692         274.00      1184.88
  115.15        2970.00           1695         260.00      1123.84
  115.17        2970.25           1698         263.00      1136.92
  115.20        2970.50           1702         258.00      1115.12
  115.22        2970.75           1705         262.00      1132.56
  115.25        2971.00           1708         253.00      1093.33
  115.28        2971.25           1712         253.00      1093.33
  115.30        2971.50           1715         264.00      1141.28
  115.33        2971.75           1718         247.00      1067.17
  115.36        2972.00           1722         236.00      1019.21
  115.38        2972.25           1725         250.00      1080.25
  115.41        2972.50           1728         238.00      1027.93
  115.43        2972.75           1732         236.00      1019.21
  115.46        2973.00           1735         240.00      1036.65
  115.49        2973.25           1738         242.00      1045.37
  115.51        2973.50           1741         234.00      1010.50
  115.54        2973.75           1745         230.00       993.06
  115.56        2974.00           1748         248.00      1071.53
  115.59        2974.25           1751         216.00       932.03
  115.62        2974.50           1755         227.00       979.98
  115.64        2974.75           1758         232.00      1001.78
  115.67        2975.00           1761         230.00       993.06
  115.70        2975.25           1765         218.00       940.74
  115.72        2975.50           1768         215.00       927.67
  115.75        2975.75           1771         221.00       953.82
  115.77        2976.00           1775         218.00       940.74
  115.80        2976.25           1778         213.00       918.95
  115.83        2976.50           1781         215.00       927.67
  115.85        2976.75           1785         217.00       936.38
  115.88        2977.00           1788         219.00       945.10
  115.90        2977.25           1791         196.00       844.84
  115.93        2977.50           1795         208.00       897.15
  115.96        2977.75           1798         198.00       853.56
  115.98        2978.00           1801         212.00       914.59
  116.01        2978.25           1805         196.00       844.84
  116.03        2978.50           1808         211.00       910.23
  116.06        2978.75           1811         200.00       862.27
  116.09        2979.00           1815         208.00       897.15
  116.11        2979.25           1818         198.00       853.56
  116.14        2979.50           1821         205.00       884.07
  116.17        2979.75           1825         197.00       849.20
  116.19        2980.00           1828         191.00       823.04
  116.22        2980.25           1831         196.00       844.84
  116.24        2980.50           1835         208.00       897.15
  116.27        2980.75           1838         197.00       849.20
  116.30        2981.00           1841         194.00       836.12
  116.32        2981.25           1845         198.00       853.56
  116.35        2981.50           1848         191.00       823.04
  116.37        2981.75           1851         185.00       796.88
  116.40        2982.00           1854         185.00       796.88
  116.43        2982.25           1858         192.00       827.40
  116.45        2982.50           1861         186.00       801.24
  116.48        2982.75           1864         182.00       783.80
  116.51        2983.00           1868         167.00       718.41
  116.53        2983.25           1871         165.00       709.69
  116.56        2983.50           1874         183.00       788.16
  116.58        2983.75           1878         187.00       805.60
  116.61        2984.00           1881         203.00       875.35
HS scan finished at 01:56:43
end
************************************************************
  HS Scan of (1) Internal mercury lamp
************************************************************
Integration time is 0.2294 seconds per sample
dh040617Arenosillo 37.1 6.73 2.965129pr1000
************************************************************
Dead Time -------------------------  3.3E-08 
Number of Cycles Used -------------  4 
Starting Wavelength (Angstroms) ---  2950 
Final Wavelength (Angstoms) -------  2984 
Wavelength Increment (Angstroms) --  .25 
Filter Wheel #1 Position ---------- (1) Ground quartz diffuser (ND=2.32)
Filter Wheel #2 Position ---------- (1) Neutral Density 0.494



************************************************************
HS scan start time = 02:53:13
Dark Count =  0 


Time (GMT)  Wavelength (Ang)  Step Number  Raw Counts  Counts/Second

  173.45        2950.00           1431         683.00      2977.62
  173.52        2950.25           1434         702.00      3060.47
  173.54        2950.50           1437         686.00      2990.71
  173.57        2950.75           1440         669.00      2916.58
  173.60        2951.00           1444         653.00      2846.82
  173.62        2951.25           1447         651.00      2838.10
  173.65        2951.50           1450         617.00      2689.86
  173.67        2951.75           1454         614.00      2676.78
  173.70        2952.00           1457         601.00      2620.10
  173.73        2952.25           1460         572.00      2493.67
  173.75        2952.50           1464         574.00      2502.39
  173.78        2952.75           1467         566.00      2467.51
  173.80        2953.00           1470         551.00      2402.11
  173.83        2953.25           1473         542.00      2362.87
  173.86        2953.50           1477         531.00      2314.91
  173.88        2953.75           1480         520.00      2266.95
  173.91        2954.00           1483         500.00      2179.76
  173.94        2954.25           1487         490.00      2136.16
  173.96        2954.50           1490         496.00      2162.32
  173.99        2954.75           1493         488.00      2127.44
  174.01        2955.00           1497         479.00      2088.20
  174.04        2955.25           1500         464.00      2022.80
  174.07        2955.50           1503         456.00      1987.92
  174.09        2955.75           1506         455.00      1983.56
  174.12        2956.00           1510         439.00      1913.81
  174.15        2956.25           1513         422.00      1839.69
  174.17        2956.50           1516         445.00      1939.97
  174.20        2956.75           1520         436.00      1900.73
  174.22        2957.00           1523         433.00      1887.65
  174.25        2957.25           1526         421.00      1835.33
  174.28        2957.50           1530         422.00      1839.69
  174.30        2957.75           1533         410.00      1787.38
  174.33        2958.00           1536         395.00      1721.98
  174.35        2958.25           1539         399.00      1739.42
  174.38        2958.50           1543         408.00      1778.66
  174.41        2958.75           1546         388.00      1691.46
  174.43        2959.00           1549         399.00      1739.42
  174.46        2959.25           1553         386.00      1682.74
  174.49        2959.50           1556         377.00      1643.51
  174.51        2959.75           1559         372.00      1621.71
  174.54        2960.00           1563         359.00      1565.03
  174.56        2960.25           1566         354.00      1543.23
  174.59        2960.50           1569         345.00      1504.00
  174.62        2960.75           1572         352.00      1534.52
  174.64        2961.00           1576         351.00      1530.16
  174.67        2961.25           1579         347.00      1512.72
  174.69        2961.50           1582         348.00      1517.08
  174.72        2961.75           1586         329.00      1434.24
  174.75        2962.00           1589         335.00      1460.40
  174.77        2962.25           1592         334.00      1456.04
  174.80        2962.50           1596         333.00      1451.68
  174.83        2962.75           1599         320.00      1395.01
  174.85        2963.00           1602         305.00      1329.61
  174.88        2963.25           1606         355.00      1547.59
  174.90        2963.50           1609         321.00      1399.37
  174.93        2963.75           1612         302.00      1316.53
  174.96        2964.00           1616         321.00      1399.37
  174.98        2964.25           1619         318.00      1386.29
  175.01        2964.50           1622         306.00      1333.97
  175.03        2964.75           1625         293.00      1277.30
  175.06        2965.00           1629         314.00      1368.85
  175.09        2965.25           1632         308.00      1342.69
  175.11        2965.50           1635         314.00      1368.85
  175.14        2965.75           1639         293.00      1277.30
  175.17        2966.00           1642         286.00      1246.78
  175.19        2966.25           1645         290.00      1264.22
  175.22        2966.50           1649         292.00      1272.94
  175.24        2966.75           1652         278.00      1211.91
  175.27        2967.00           1655         284.00      1238.06
  175.30        2967.25           1659         285.00      1242.42
  175.32        2967.50           1662         274.00      1194.47
  175.35        2967.75           1665         287.00      1251.14
  175.37        2968.00           1668         283.00      1233.70
  175.40        2968.25           1672         270.00      1177.03
  175.43        2968.50           1675         284.00      1238.06
  175.45        2968.75           1678         281.00      1224.98
  175.48        2969.00           1682         256.00      1116.00
  175.51        2969.25           1685         273.00      1190.11
  175.53        2969.50           1688         266.00      1159.59
  175.56        2969.75           1692         264.00      1150.87
  175.58        2970.00           1695         272.00      1185.75
  175.61        2970.25           1698         260.00      1133.43
  175.64        2970.50           1702         259.00      1129.07
  175.66        2970.75           1705         255.00      1111.64
  175.69        2971.00           1708         258.00      1124.71
  175.71        2971.25           1712         246.00      1072.40
  175.74        2971.50           1715         262.00      1142.15
  175.77        2971.75           1718         252.00      1098.56
  175.79        2972.00           1722         230.00      1002.65
  175.82        2972.25           1725         233.00      1015.73
  175.85        2972.50           1728         236.00      1028.81
  175.87        2972.75           1732         227.00       989.57
  175.90        2973.00           1735         241.00      1050.60
  175.92        2973.25           1738         223.00       972.13
  175.95        2973.50           1741         230.00      1002.65
  175.98        2973.75           1745         227.00       989.57
  176.00        2974.00           1748         229.00       998.29
  176.03        2974.25           1751         220.00       959.05
  176.05        2974.50           1755         231.00      1007.01
  176.08        2974.75           1758         228.00       993.93
  176.11        2975.00           1761         210.00       915.46
  176.13        2975.25           1765         226.00       985.21
  176.16        2975.50           1768         212.00       924.18
  176.18        2975.75           1771         232.00      1011.37
  176.21        2976.00           1775         212.00       924.18
  176.24        2976.25           1778         207.00       902.38
  176.26        2976.50           1781         200.00       871.86
  176.29        2976.75           1785         212.00       924.18
  176.32        2977.00           1788         204.00       889.30
  176.34        2977.25           1791         197.00       858.79
  176.37        2977.50           1795         203.00       884.94
  176.39        2977.75           1798         216.00       941.62
  176.42        2978.00           1801         199.00       867.51
  176.45        2978.25           1805         202.00       880.58
  176.47        2978.50           1808         212.00       924.18
  176.50        2978.75           1811         214.00       932.90
  176.52        2979.00           1815         200.00       871.86
  176.55        2979.25           1818         186.00       810.83
  176.58        2979.50           1821         193.00       841.35
  176.60        2979.75           1825         194.00       845.71
  176.63        2980.00           1828         190.00       828.27
  176.66        2980.25           1831         193.00       841.35
  176.68        2980.50           1835         184.00       802.11
  176.71        2980.75           1838         188.00       819.55
  176.73        2981.00           1841         187.00       815.19
  176.76        2981.25           1845         188.00       819.55
  176.79        2981.50           1848         185.00       806.47
  176.81        2981.75           1851         184.00       802.11
  176.84        2982.00           1854         182.00       793.39
  176.86        2982.25           1858         180.00       784.68
  176.89        2982.50           1861         180.00       784.68
  176.92        2982.75           1864         176.00       767.24
  176.94        2983.00           1868         179.00       780.32
  176.97        2983.25           1871         177.00       771.60
  176.99        2983.50           1874         187.00       815.19
  177.02        2983.75           1878         188.00       819.55
  177.05        2984.00           1881         179.00       780.32
HS scan finished at 02:57:09
end
************************************************************
  HS Scan of (1) Internal mercury lamp
************************************************************
Integration time is 0.2294 seconds per sample
dh040617Arenosillo 37.1 6.73 2.965129pr1000
************************************************************
Dead Time -------------------------  3.3E-08 
Number of Cycles Used -------------  4 
Starting Wavelength (Angstroms) ---  2950 
Final Wavelength (Angstoms) -------  2984 
Wavelength Increment (Angstroms) --  .25 
Filter Wheel #1 Position ---------- (1) Ground quartz diffuser (ND=2.32)
Filter Wheel #2 Position ---------- (1) Neutral Density 0.494



************************************************************
HS scan start time = 03:53:44
Dark Count =  .9 


Time (GMT)  Wavelength (Ang)  Step Number  Raw Counts  Counts/Second

  234.00        2950.00           1431         690.00      3004.22
  234.07        2950.25           1434         677.00      2947.54
  234.09        2950.50           1437         661.00      2877.78
  234.12        2950.75           1440         651.00      2834.18
  234.15        2951.00           1444         640.00      2786.22
  234.17        2951.25           1447         625.00      2720.82
  234.20        2951.50           1450         606.00      2637.98
  234.22        2951.75           1454         594.00      2585.66
  234.25        2952.00           1457         597.00      2598.74
  234.28        2952.25           1460         576.00      2507.18
  234.30        2952.50           1464         580.00      2524.62
  234.33        2952.75           1467         563.00      2450.50
  234.35        2953.00           1470         537.00      2337.15
  234.38        2953.25           1473         545.00      2372.03
  234.41        2953.50           1477         508.00      2210.71
  234.43        2953.75           1480         539.00      2345.87
  234.46        2954.00           1483         520.00      2263.03
  234.49        2954.25           1487         484.00      2106.08
  234.51        2954.50           1490         481.00      2093.00
  234.54        2954.75           1493         467.00      2031.96
  234.56        2955.00           1497         461.00      2005.80
  234.59        2955.25           1500         446.00      1940.40
  234.62        2955.50           1503         464.00      2018.88
  234.64        2955.75           1506         449.00      1953.48
  234.67        2956.00           1510         459.00      1997.08
  234.69        2956.25           1513         438.00      1905.53
  234.72        2956.50           1516         438.00      1905.53
  234.75        2956.75           1520         437.00      1901.17
  234.77        2957.00           1523         417.00      1813.97
  234.80        2957.25           1526         421.00      1831.41
  234.82        2957.50           1530         405.00      1761.65
  234.85        2957.75           1533         393.00      1709.34
  234.88        2958.00           1536         401.00      1744.22
  234.90        2958.25           1539         403.00      1752.93
  234.93        2958.50           1543         386.00      1678.82
  234.96        2958.75           1546         368.00      1600.35
  234.98        2959.00           1549         372.00      1617.78
  235.01        2959.25           1553         385.00      1674.46
  235.03        2959.50           1556         380.00      1652.66
  235.06        2959.75           1559         365.00      1587.27
  235.09        2960.00           1563         356.00      1548.03
  235.11        2960.25           1566         360.00      1565.47
  235.14        2960.50           1569         351.00      1526.23
  235.16        2960.75           1572         350.00      1521.87
  235.19        2961.00           1576         340.00      1478.28
  235.22        2961.25           1579         342.00      1487.00
  235.24        2961.50           1582         332.00      1443.40
  235.27        2961.75           1586         336.00      1460.84
  235.30        2962.00           1589         320.00      1391.08
  235.32        2962.25           1592         332.00      1443.40
  235.35        2962.50           1596         338.00      1469.56
  235.37        2962.75           1599         318.00      1382.36
  235.40        2963.00           1602         325.00      1412.88
  235.43        2963.25           1606         310.00      1347.49
  235.45        2963.50           1609         309.00      1343.13
  235.48        2963.75           1612         307.00      1334.41
  235.50        2964.00           1616         319.00      1386.72
  235.53        2964.25           1619         316.00      1373.65
  235.56        2964.50           1622         310.00      1347.49
  235.58        2964.75           1625         305.00      1325.69
  235.61        2965.00           1629         286.00      1242.86
  235.64        2965.25           1632         312.00      1356.21
  235.66        2965.50           1635         301.00      1308.25
  235.69        2965.75           1639         294.00      1277.73
  235.71        2966.00           1642         273.00      1186.18
  235.74        2966.25           1645         280.00      1216.70
  235.77        2966.50           1649         287.00      1247.22
  235.79        2966.75           1652         265.00      1151.31
  235.82        2967.00           1655         283.00      1229.78
  235.85        2967.25           1659         286.00      1242.86
  235.87        2967.50           1662         269.00      1168.75
  235.90        2967.75           1665         270.00      1173.11
  235.92        2968.00           1668         289.00      1255.94
  235.95        2968.25           1672         282.00      1225.42
  235.98        2968.50           1675         271.00      1177.47
  236.00        2968.75           1678         272.00      1181.82
  236.03        2969.00           1682         255.00      1107.71
  236.05        2969.25           1685         268.00      1164.39
  236.08        2969.50           1688         264.00      1146.95
  236.11        2969.75           1692         267.00      1160.03
  236.13        2970.00           1695         261.00      1133.87
  236.16        2970.25           1698         253.00      1098.99
  236.18        2970.50           1702         262.00      1138.23
  236.21        2970.75           1705         250.00      1085.92
  236.24        2971.00           1708         242.00      1051.04
  236.26        2971.25           1712         244.00      1059.76
  236.29        2971.50           1715         242.00      1051.04
  236.32        2971.75           1718         245.00      1064.12
  236.34        2972.00           1722         241.00      1046.68
  236.37        2972.25           1725         250.00      1085.92
  236.39        2972.50           1728         227.00       985.65
  236.42        2972.75           1732         232.00      1007.44
  236.45        2973.00           1735         236.00      1024.88
  236.47        2973.25           1738         230.00       998.73
  236.50        2973.50           1741         224.00       972.57
  236.52        2973.75           1745         214.00       928.97
  236.55        2974.00           1748         225.00       976.93
  236.58        2974.25           1751         226.00       981.29
  236.60        2974.50           1755         231.00      1003.08
  236.63        2974.75           1758         227.00       985.65
  236.65        2975.00           1761         221.00       959.49
  236.68        2975.25           1765         212.00       920.25
  236.71        2975.50           1768         224.00       972.57
  236.73        2975.75           1771         212.00       920.25
  236.76        2976.00           1775         232.00      1007.44
  236.79        2976.25           1778         216.00       937.69
  236.81        2976.50           1781         198.00       859.22
  236.84        2976.75           1785         208.00       902.82
  236.86        2977.00           1788         207.00       898.46
  236.89        2977.25           1791         204.00       885.38
  236.92        2977.50           1795         204.00       885.38
  236.94        2977.75           1798         198.00       859.22
  236.97        2978.00           1801         191.00       828.71
  236.99        2978.25           1805         198.00       859.22
  237.02        2978.50           1808         194.00       841.78
  237.05        2978.75           1811         198.00       859.22
  237.07        2979.00           1815         213.00       924.61
  237.10        2979.25           1818         205.00       889.74
  237.12        2979.50           1821         187.00       811.27
  237.15        2979.75           1825         184.00       798.19
  237.18        2980.00           1828         188.00       815.63
  237.20        2980.25           1831         190.00       824.35
  237.23        2980.50           1835         191.00       828.71
  237.26        2980.75           1838         184.00       798.19
  237.28        2981.00           1841         186.00       806.91
  237.31        2981.25           1845         201.00       872.30
  237.33        2981.50           1848         179.00       776.39
  237.36        2981.75           1851         196.00       850.50
  237.39        2982.00           1854         177.00       767.67
  237.41        2982.25           1858         189.00       819.99
  237.44        2982.50           1861         189.00       819.99
  237.46        2982.75           1864         178.00       772.03
  237.49        2983.00           1868         186.00       806.91
  237.52        2983.25           1871         175.00       758.96
  237.54        2983.50           1874         178.00       772.03
  237.57        2983.75           1878         168.00       728.44
  237.60        2984.00           1881         184.00       798.19
HS scan finished at 03:57:42
end
