************************************************************
  HS Scan of (1) Internal mercury lamp
************************************************************
Integration time is 0.2294 seconds per sample
dh180619El Arenosillo 37.1 6.73 3.018777pr1000
************************************************************
Dead Time -------------------------  3.3E-08 
Number of Cycles Used -------------  4 
Starting Wavelength (Angstroms) ---  2950 
Final Wavelength (Angstoms) -------  2984 
Wavelength Increment (Angstroms) --  .25 
Filter Wheel #1 Position ---------- (1) Ground quartz diffuser (ND=2.32)
Filter Wheel #2 Position ---------- (1) Neutral Density 0.494



************************************************************
HS scan start time = 21:41:10
Dark Count =  1.3 


Time (GMT)  Wavelength (Ang)  Step Number  Raw Counts  Counts/Second

 1301.55        2950.00           1431         294.00      1275.99
 1301.62        2950.25           1434         287.00      1245.47
 1301.65        2950.50           1437         306.00      1328.31
 1301.68        2950.75           1440         331.00      1437.30
 1301.70        2951.00           1444         323.00      1402.42
 1301.73        2951.25           1447         319.00      1384.98
 1301.75        2951.50           1450         328.00      1424.22
 1301.78        2951.75           1454         332.00      1441.66
 1301.81        2952.00           1457         337.00      1463.45
 1301.83        2952.25           1460         343.00      1489.61
 1301.86        2952.50           1464         352.00      1528.85
 1301.88        2952.75           1467         370.00      1607.32
 1301.91        2953.00           1470         352.00      1528.85
 1301.94        2953.25           1473         368.00      1598.60
 1301.96        2953.50           1477         357.00      1550.65
 1301.99        2953.75           1480         369.00      1602.96
 1302.02        2954.00           1483         392.00      1703.23
 1302.04        2954.25           1487         385.00      1672.72
 1302.07        2954.50           1490         400.00      1738.11
 1302.09        2954.75           1493         419.00      1820.95
 1302.12        2955.00           1497         403.00      1751.19
 1302.15        2955.25           1500         404.00      1755.55
 1302.17        2955.50           1503         415.00      1803.51
 1302.20        2955.75           1506         428.00      1860.18
 1302.23        2956.00           1510         451.00      1960.46
 1302.25        2956.25           1513         419.00      1820.95
 1302.28        2956.50           1516         457.00      1986.62
 1302.31        2956.75           1520         470.00      2043.29
 1302.33        2957.00           1523         474.00      2060.73
 1302.36        2957.25           1526         483.00      2099.97
 1302.39        2957.50           1530         494.00      2147.93
 1302.41        2957.75           1533         518.00      2252.57
 1302.44        2958.00           1536         503.00      2187.17
 1302.47        2958.25           1539         539.00      2344.12
 1302.49        2958.50           1543         532.00      2313.60
 1302.52        2958.75           1546         537.00      2335.40
 1302.55        2959.00           1549         533.00      2317.96
 1302.57        2959.25           1553         573.00      2492.36
 1302.60        2959.50           1556         575.00      2501.08
 1302.63        2959.75           1559         570.00      2479.28
 1302.65        2960.00           1563         615.00      2675.48
 1302.68        2960.25           1566         626.00      2723.44
 1302.71        2960.50           1569         664.00      2889.12
 1302.73        2960.75           1572         681.00      2963.24
 1302.76        2961.00           1576        1207.00      5256.80
 1302.79        2961.25           1579        3359.00     14643.95
 1302.81        2961.50           1582        8427.00     36773.90
 1302.84        2961.75           1586       17856.00     78032.85
 1302.86        2962.00           1589       25602.00    112011.80
 1302.89        2962.25           1592       33575.00    147066.40
 1302.92        2962.50           1596       43705.00    191722.30
 1302.94        2962.75           1599       51492.00    226139.50
 1302.97        2963.00           1602       59213.00    260342.60
 1303.00        2963.25           1606       69490.00    305989.30
 1303.02        2963.50           1609       77583.00    342032.90
 1303.05        2963.75           1612       85658.00    378082.50
 1303.08        2964.00           1616       95994.00    424352.20
 1303.10        2964.25           1619      103461.00    457867.60
 1303.13        2964.50           1622      111645.00    494687.10
 1303.16        2964.75           1625      119271.00    529077.50
 1303.18        2965.00           1629      129640.00    575964.60
 1303.21        2965.25           1632      137706.00    612539.50
 1303.24        2965.50           1635      144665.00    644166.60
 1303.26        2965.75           1639      155047.00    691474.80
 1303.29        2966.00           1642      161714.00    721933.60
 1303.32        2966.25           1645      166563.00    744125.80
 1303.34        2966.50           1649      169477.00    757478.00
 1303.37        2966.75           1652      170193.00    760760.60
 1303.40        2967.00           1655      170651.00    762860.80
 1303.42        2967.25           1659      170767.00    763392.60
 1303.45        2967.50           1662      169478.00    757482.50
 1303.48        2967.75           1665      166031.00    741689.50
 1303.50        2968.00           1668      160663.00    717128.00
 1303.53        2968.25           1672      150607.00    671224.50
 1303.56        2968.50           1675      142558.00    634583.60
 1303.58        2968.75           1678      134844.00    599551.80
 1303.61        2969.00           1682      125134.00    555571.20
 1303.64        2969.25           1685      117345.00    520384.60
 1303.66        2969.50           1688      109671.00    485797.80
 1303.69        2969.75           1692       98643.00    436233.60
 1303.72        2970.00           1695       90835.00    401239.90
 1303.74        2970.25           1698       83159.00    366916.90
 1303.77        2970.50           1702       72360.00    318761.50
 1303.80        2970.75           1705       65054.00    286269.20
 1303.82        2971.00           1708       57300.00    251861.00
 1303.85        2971.25           1712       46972.00    206152.30
 1303.87        2971.50           1715       39239.00    172018.60
 1303.90        2971.75           1718       31425.00    137605.60
 1303.93        2972.00           1722       21129.00     92381.02
 1303.96        2972.25           1725       13727.00     59951.54
 1303.98        2972.50           1728        7251.00     31635.89
 1304.01        2972.75           1732        2620.00     11419.74
 1304.03        2973.00           1735        1244.00      5418.14
 1304.06        2973.25           1738         750.00      3264.08
 1304.09        2973.50           1741         693.00      3015.56
 1304.11        2973.75           1745         668.00      2906.56
 1304.14        2974.00           1748         634.00      2758.32
 1304.16        2974.25           1751         616.00      2679.84
 1304.19        2974.50           1755         616.00      2679.84
 1304.22        2974.75           1758         573.00      2492.36
 1304.24        2975.00           1761         585.00      2544.68
 1304.27        2975.25           1765         577.00      2509.80
 1304.30        2975.50           1768         555.00      2413.88
 1304.32        2975.75           1771         557.00      2422.60
 1304.35        2976.00           1775         530.00      2304.88
 1304.38        2976.25           1778         512.00      2226.41
 1304.40        2976.50           1781         519.00      2256.93
 1304.43        2976.75           1785         505.00      2195.89
 1304.45        2977.00           1788         489.00      2126.13
 1304.48        2977.25           1791         485.00      2108.69
 1304.51        2977.50           1795         464.00      2017.14
 1304.53        2977.75           1798         466.00      2025.85
 1304.56        2978.00           1801         469.00      2038.93
 1304.59        2978.25           1805         443.00      1925.58
 1304.61        2978.50           1808         425.00      1847.10
 1304.64        2978.75           1811         439.00      1908.14
 1304.67        2979.00           1815         439.00      1908.14
 1304.69        2979.25           1818         413.00      1794.79
 1304.72        2979.50           1821         409.00      1777.35
 1304.75        2979.75           1825         418.00      1816.59
 1304.77        2980.00           1828         410.00      1781.71
 1304.80        2980.25           1831         401.00      1742.47
 1304.83        2980.50           1835         388.00      1685.80
 1304.85        2980.75           1838         382.00      1659.64
 1304.88        2981.00           1841         388.00      1685.80
 1304.91        2981.25           1845         355.00      1541.93
 1304.93        2981.50           1848         345.00      1498.33
 1304.96        2981.75           1851         361.00      1568.08
 1304.98        2982.00           1854         358.00      1555.01
 1305.01        2982.25           1858         339.00      1472.17
 1305.04        2982.50           1861         333.00      1446.02
 1305.06        2982.75           1864         348.00      1511.41
 1305.10        2983.00           1868         324.00      1406.78
 1305.13        2983.25           1871         328.00      1424.22
 1305.16        2983.50           1874         329.00      1428.58
 1305.18        2983.75           1878         322.00      1398.06
 1305.21        2984.00           1881         295.00      1280.35
HS scan finished at 21:45:19
end
