************************************************************
  HS Scan of (1) Internal mercury lamp
************************************************************
Integration time is 0.2294 seconds per sample
dh170619El Arenosillo 37.1 6.73 2.804185pr1000
************************************************************
Dead Time -------------------------  3.3E-08 
Number of Cycles Used -------------  4 
Starting Wavelength (Angstroms) ---  2950 
Final Wavelength (Angstoms) -------  2984 
Wavelength Increment (Angstroms) --  .25 
Filter Wheel #1 Position ---------- (1) Ground quartz diffuser (ND=2.32)
Filter Wheel #2 Position ---------- (1) Neutral Density 0.494



************************************************************
HS scan start time = 21:50:47
Dark Count =  1 


Time (GMT)  Wavelength (Ang)  Step Number  Raw Counts  Counts/Second

 1311.17        2950.00           1431         308.00      1338.33
 1311.23        2950.25           1434         306.00      1329.61
 1311.26        2950.50           1437         305.00      1325.25
 1311.29        2950.75           1440         307.00      1333.97
 1311.31        2951.00           1444         317.00      1377.57
 1311.34        2951.25           1447         309.00      1342.69
 1311.37        2951.50           1450         310.00      1347.05
 1311.39        2951.75           1454         307.00      1333.97
 1311.42        2952.00           1457         337.00      1464.76
 1311.45        2952.25           1460         346.00      1504.00
 1311.47        2952.50           1464         351.00      1525.80
 1311.50        2952.75           1467         340.00      1477.84
 1311.52        2953.00           1470         340.00      1477.84
 1311.55        2953.25           1473         369.00      1604.27
 1311.58        2953.50           1477         358.00      1556.31
 1311.60        2953.75           1480         384.00      1669.66
 1311.63        2954.00           1483         378.00      1643.51
 1311.66        2954.25           1487         394.00      1713.26
 1311.68        2954.50           1490         374.00      1626.07
 1311.71        2954.75           1493         380.00      1652.23
 1311.74        2955.00           1497         405.00      1761.22
 1311.76        2955.25           1500         410.00      1783.02
 1311.79        2955.50           1503         426.00      1852.77
 1311.82        2955.75           1506         439.00      1909.45
 1311.84        2956.00           1510         461.00      2005.36
 1311.87        2956.25           1513         438.00      1905.09
 1311.89        2956.50           1516         453.00      1970.49
 1311.92        2956.75           1520         458.00      1992.28
 1311.95        2957.00           1523         465.00      2022.80
 1311.97        2957.25           1526         467.00      2031.52
 1312.00        2957.50           1530         480.00      2088.20
 1312.03        2957.75           1533         484.00      2105.64
 1312.05        2958.00           1536         494.00      2149.24
 1312.08        2958.25           1539         500.00      2175.40
 1312.11        2958.50           1543         507.00      2205.91
 1312.13        2958.75           1546         530.00      2306.19
 1312.16        2959.00           1549         531.00      2310.55
 1312.18        2959.25           1553         545.00      2371.59
 1312.21        2959.50           1556         560.00      2436.99
 1312.23        2959.75           1559         557.00      2423.91
 1312.26        2960.00           1563         607.00      2641.90
 1312.29        2960.25           1566         603.00      2624.46
 1312.31        2960.50           1569         629.00      2737.82
 1312.34        2960.75           1572         677.00      2947.10
 1312.37        2961.00           1576        1216.00      5297.35
 1312.39        2961.25           1579        3801.00     16574.02
 1312.42        2961.50           1582        8904.00     38859.74
 1312.45        2961.75           1586       18035.00     78818.52
 1312.47        2962.00           1589       25449.00    111341.20
 1312.50        2962.25           1592       32820.00    143744.80
 1312.53        2962.50           1596       42990.00    188567.30
 1312.55        2962.75           1599       50514.00    221813.90
 1312.58        2963.00           1602       58299.00    256291.00
 1312.61        2963.25           1606       68150.00    300031.00
 1312.63        2963.50           1609       75574.00    333078.70
 1312.66        2963.75           1612       82897.00    365748.00
 1312.69        2964.00           1616       93074.00    411267.60
 1312.71        2964.25           1619      100861.00    446190.40
 1312.74        2964.50           1622      108221.00    479273.00
 1312.77        2964.75           1625      115450.00    511837.70
 1312.79        2965.00           1629      125633.00    557829.60
 1312.82        2965.25           1632      133098.00    591635.20
 1312.85        2965.50           1635      140487.00    625171.90
 1312.87        2965.75           1639      149676.00    666983.10
 1312.90        2966.00           1642      156578.00    698465.20
 1312.93        2966.25           1645      160447.00    716141.80
 1312.95        2966.50           1649      163601.00    730567.30
 1312.98        2966.75           1652      163689.00    730969.80
 1313.01        2967.00           1655      163925.00    732050.00
 1313.03        2967.25           1659      163854.00    731725.00
 1313.06        2967.50           1662      162746.00    726655.40
 1313.09        2967.75           1665      159499.00    711808.70
 1313.11        2968.00           1668      153967.00    686547.90
 1313.14        2968.25           1672      145092.00    646110.70
 1313.17        2968.50           1675      137857.00    613226.50
 1313.19        2968.75           1678      131102.00    582588.80
 1313.22        2969.00           1682      120993.00    536855.40
 1313.25        2969.25           1685      113737.00    504114.70
 1313.27        2969.50           1688      106391.00    471040.50
 1313.30        2969.75           1692       96047.00    424591.20
 1313.33        2970.00           1695       88458.00    390604.20
 1313.35        2970.25           1698       81099.00    357720.20
 1313.38        2970.50           1702       71267.00    313897.40
 1313.41        2970.75           1705       63572.00    279688.10
 1313.43        2971.00           1708       55769.00    245077.90
 1313.46        2971.25           1712       45428.00    199332.20
 1313.48        2971.50           1715       38144.00    167192.80
 1313.51        2971.75           1718       30734.00    134567.50
 1313.54        2972.00           1722       20831.00     91075.41
 1313.56        2972.25           1725       13666.00     59685.89
 1313.59        2972.50           1728        7274.00     31737.67
 1313.62        2972.75           1732        2643.00     11521.38
 1313.64        2973.00           1735        1315.00      5729.07
 1313.67        2973.25           1738         810.00      3527.00
 1313.70        2973.50           1741         662.00      2881.70
 1313.72        2973.75           1745         635.00      2763.98
 1313.75        2974.00           1748         624.00      2716.02
 1313.78        2974.25           1751         615.00      2676.78
 1313.80        2974.50           1755         592.00      2576.51
 1313.83        2974.75           1758         576.00      2506.75
 1313.86        2975.00           1761         552.00      2402.11
 1313.88        2975.25           1765         539.00      2345.43
 1313.91        2975.50           1768         549.00      2389.03
 1313.94        2975.75           1771         533.00      2319.27
 1313.96        2976.00           1775         533.00      2319.27
 1313.99        2976.25           1778         507.00      2205.91
 1314.02        2976.50           1781         480.00      2088.20
 1314.04        2976.75           1785         486.00      2114.36
 1314.07        2977.00           1788         493.00      2144.88
 1314.10        2977.25           1791         482.00      2096.92
 1314.12        2977.50           1795         463.00      2014.08
 1314.15        2977.75           1798         445.00      1935.61
 1314.17        2978.00           1801         450.00      1957.41
 1314.20        2978.25           1805         442.00      1922.53
 1314.23        2978.50           1808         456.00      1983.56
 1314.26        2978.75           1811         435.00      1892.01
 1314.28        2979.00           1815         418.00      1817.89
 1314.31        2979.25           1818         409.00      1778.66
 1314.33        2979.50           1821         415.00      1804.82
 1314.36        2979.75           1825         400.00      1739.42
 1314.39        2980.00           1828         392.00      1704.54
 1314.41        2980.25           1831         376.00      1634.79
 1314.44        2980.50           1835         370.00      1608.63
 1314.47        2980.75           1838         382.00      1660.95
 1314.49        2981.00           1841         360.00      1565.03
 1314.52        2981.25           1845         338.00      1469.12
 1314.54        2981.50           1848         359.00      1560.67
 1314.57        2981.75           1851         350.00      1521.44
 1314.60        2982.00           1854         330.00      1434.24
 1314.62        2982.25           1858         339.00      1473.48
 1314.65        2982.50           1861         343.00      1490.92
 1314.68        2982.75           1864         339.00      1473.48
 1314.70        2983.00           1868         330.00      1434.24
 1314.73        2983.25           1871         324.00      1408.09
 1314.76        2983.50           1874         326.00      1416.81
 1314.78        2983.75           1878         311.00      1351.41
 1314.81        2984.00           1881         291.00      1264.22
HS scan finished at 21:54:55
end
