************************************************************
  HS Scan of (1) Internal mercury lamp
************************************************************
Integration time is 0.2294 seconds per sample
dh090619Madrid 40.45 3.717 2.857833pr940
************************************************************
Dead Time -------------------------  3.3E-08 
Number of Cycles Used -------------  4 
Starting Wavelength (Angstroms) ---  2950 
Final Wavelength (Angstoms) -------  2984 
Wavelength Increment (Angstroms) --  .25 
Filter Wheel #1 Position ---------- (1) Ground quartz diffuser (ND=2.32)
Filter Wheel #2 Position ---------- (1) Neutral Density 0.494



************************************************************
HS scan start time = 00:55:18
Dark Count =  .9 


Time (GMT)  Wavelength (Ang)  Step Number  Raw Counts  Counts/Second

   55.69        2950.00           1431         306.00      1330.05
   55.76        2950.25           1434         306.00      1330.05
   55.78        2950.50           1437         318.00      1382.36
   55.81        2950.75           1440         314.00      1364.93
   55.84        2951.00           1444         311.00      1351.85
   55.86        2951.25           1447         318.00      1382.36
   55.89        2951.50           1450         321.00      1395.44
   55.92        2951.75           1454         332.00      1443.40
   55.94        2952.00           1457         338.00      1469.56
   55.97        2952.25           1460         339.00      1473.92
   55.99        2952.50           1464         350.00      1521.87
   56.02        2952.75           1467         345.00      1500.07
   56.05        2953.00           1470         356.00      1548.03
   56.07        2953.25           1473         370.00      1609.07
   56.10        2953.50           1477         363.00      1578.55
   56.13        2953.75           1480         376.00      1635.22
   56.15        2954.00           1483         389.00      1691.90
   56.18        2954.25           1487         387.00      1683.18
   56.21        2954.50           1490         398.00      1731.14
   56.23        2954.75           1493         421.00      1831.41
   56.26        2955.00           1497         420.00      1827.05
   56.28        2955.25           1500         428.00      1861.93
   56.31        2955.50           1503         420.00      1827.05
   56.34        2955.75           1506         416.00      1809.61
   56.36        2956.00           1510         461.00      2005.80
   56.39        2956.25           1513         421.00      1831.41
   56.42        2956.50           1516         458.00      1992.72
   56.44        2956.75           1520         458.00      1992.72
   56.47        2957.00           1523         469.00      2040.68
   56.50        2957.25           1526         494.00      2149.67
   56.52        2957.50           1530         478.00      2079.92
   56.55        2957.75           1533         511.00      2223.79
   56.57        2958.00           1536         517.00      2249.95
   56.60        2958.25           1539         505.00      2197.63
   56.63        2958.50           1543         535.00      2328.43
   56.65        2958.75           1546         535.00      2328.43
   56.68        2959.00           1549         545.00      2372.03
   56.71        2959.25           1553         552.00      2402.54
   56.73        2959.50           1556         601.00      2616.18
   56.76        2959.75           1559         567.00      2467.94
   56.79        2960.00           1563         609.00      2651.06
   56.81        2960.25           1566         636.00      2768.78
   56.84        2960.50           1569         646.00      2812.38
   56.87        2960.75           1572         683.00      2973.70
   56.89        2961.00           1576         857.00      3732.37
   56.92        2961.25           1579        1946.00      8481.45
   56.94        2961.50           1582        5702.00     24872.63
   56.97        2961.75           1586       14300.00     62461.23
   57.00        2962.00           1589       21920.00     95852.41
   57.02        2962.25           1592       29601.00    129585.70
   57.05        2962.50           1596       40400.00    177140.20
   57.08        2962.75           1599       48541.00    213089.10
   57.10        2963.00           1602       56238.00    247156.30
   57.13        2963.25           1606       66955.00    294718.60
   57.16        2963.50           1609       74885.00    330009.00
   57.18        2963.75           1612       82789.00    365266.10
   57.21        2964.00           1616       93749.00    414292.10
   57.24        2964.25           1619      101612.00    449563.20
   57.27        2964.50           1622      109701.00    485934.70
   57.29        2964.75           1625      117774.00    522322.20
   57.32        2965.00           1629      128636.00    571420.10
   57.34        2965.25           1632      135770.00    603754.50
   57.37        2965.50           1635      143714.00    639842.30
   57.40        2965.75           1639      154415.00    688592.50
   57.42        2966.00           1642      161448.00    720719.00
   57.45        2966.25           1645      167804.00    749812.50
   57.48        2966.50           1649      172110.00    769554.60
   57.50        2966.75           1652      173441.00    775662.30
   57.53        2967.00           1655      173775.00    777195.30
   57.56        2967.25           1659      173773.00    777186.10
   57.58        2967.50           1662      172934.00    773335.50
   57.61        2967.75           1665      171306.00    765866.50
   57.64        2968.00           1668      166468.00    743692.50
   57.66        2968.25           1672      157085.00    700780.80
   57.69        2968.50           1675      149171.00    664682.80
   57.72        2968.75           1678      141756.00    630939.50
   57.74        2969.00           1682      130996.00    582108.90
   57.77        2969.25           1685      122798.00    545011.50
   57.80        2969.50           1688      115223.00    510814.60
   57.82        2969.75           1692      104493.00    462507.30
   57.85        2970.00           1695       96401.00    426178.90
   57.88        2970.25           1698       88648.00    391454.60
   57.90        2970.50           1702       77736.00    342716.90
   57.93        2970.75           1705       69511.00    306084.50
   57.95        2971.00           1708       62077.00    273051.40
   57.98        2971.25           1712       51791.00    227464.40
   58.01        2971.50           1715       43850.00    192364.20
   58.03        2971.75           1718       35365.00    154949.40
   58.06        2972.00           1722       24306.00    106323.10
   58.09        2972.25           1725       16942.00     74030.25
   58.11        2972.50           1728        9954.00     43449.79
   58.14        2972.75           1732        3717.00     16207.88
   58.17        2973.00           1735        1683.00      7334.38
   58.19        2973.25           1738         891.00      3880.62
   58.22        2973.50           1741         703.00      3060.90
   58.25        2973.75           1745         661.00      2877.78
   58.27        2974.00           1748         676.00      2943.18
   58.30        2974.25           1751         636.00      2768.78
   58.33        2974.50           1755         628.00      2733.90
   58.35        2974.75           1758         619.00      2694.66
   58.38        2975.00           1761         563.00      2450.50
   58.41        2975.25           1765         579.00      2520.26
   58.43        2975.50           1768         581.00      2528.98
   58.46        2975.75           1771         541.00      2354.59
   58.49        2976.00           1775         546.00      2376.39
   58.51        2976.25           1778         523.00      2276.11
   58.54        2976.50           1781         515.00      2241.23
   58.57        2976.75           1785         499.00      2171.47
   58.59        2977.00           1788         518.00      2254.31
   58.62        2977.25           1791         498.00      2167.11
   58.64        2977.50           1795         489.00      2127.87
   58.67        2977.75           1798         479.00      2084.28
   58.70        2978.00           1801         451.00      1962.20
   58.72        2978.25           1805         450.00      1957.84
   58.75        2978.50           1808         446.00      1940.40
   58.78        2978.75           1811         450.00      1957.84
   58.80        2979.00           1815         419.00      1822.69
   58.83        2979.25           1818         429.00      1866.29
   58.86        2979.50           1821         442.00      1922.96
   58.88        2979.75           1825         406.00      1766.01
   58.91        2980.00           1828         408.00      1774.73
   58.93        2980.25           1831         397.00      1726.78
   58.96        2980.50           1835         387.00      1683.18
   58.99        2980.75           1838         379.00      1648.30
   59.01        2981.00           1841         399.00      1735.50
   59.04        2981.25           1845         381.00      1657.02
   59.06        2981.50           1848         377.00      1639.58
   59.09        2981.75           1851         363.00      1578.55
   59.12        2982.00           1854         351.00      1526.23
   59.14        2982.25           1858         360.00      1565.47
   59.17        2982.50           1861         376.00      1635.22
   59.19        2982.75           1864         353.00      1534.95
   59.22        2983.00           1868         341.00      1482.64
   59.25        2983.25           1871         341.00      1482.64
   59.27        2983.50           1874         328.00      1425.96
   59.30        2983.75           1878         335.00      1456.48
   59.32        2984.00           1881         337.00      1465.20
HS scan finished at 00:59:26
end
