************************************************************
  HS Scan of (1) Internal mercury lamp
************************************************************
Integration time is 0.2294 seconds per sample
dh190619El Arenosillo 37.1 6.73 3.072425pr1000
************************************************************
Dead Time -------------------------  3.3E-08 
Number of Cycles Used -------------  4 
Starting Wavelength (Angstroms) ---  2950 
Final Wavelength (Angstoms) -------  2984 
Wavelength Increment (Angstroms) --  .25 
Filter Wheel #1 Position ---------- (1) Ground quartz diffuser (ND=2.32)
Filter Wheel #2 Position ---------- (1) Neutral Density 0.494



************************************************************
HS scan start time = 02:08:35
Dark Count =  1.6 


Time (GMT)  Wavelength (Ang)  Step Number  Raw Counts  Counts/Second

  128.98        2950.00           1431         301.00      1305.20
  129.04        2950.25           1434         305.00      1322.64
  129.07        2950.50           1437         321.00      1392.39
  129.10        2950.75           1440         318.00      1379.31
  129.12        2951.00           1444         318.00      1379.31
  129.15        2951.25           1447         309.00      1340.08
  129.18        2951.50           1450         309.00      1340.08
  129.20        2951.75           1454         331.00      1435.99
  129.23        2952.00           1457         352.00      1527.54
  129.25        2952.25           1460         334.00      1449.07
  129.28        2952.50           1464         352.00      1527.54
  129.31        2952.75           1467         333.00      1444.71
  129.33        2953.00           1470         347.00      1505.74
  129.36        2953.25           1473         388.00      1684.49
  129.38        2953.50           1477         383.00      1662.69
  129.41        2953.75           1480         379.00      1645.25
  129.44        2954.00           1483         411.00      1784.76
  129.46        2954.25           1487         389.00      1688.85
  129.49        2954.50           1490         383.00      1662.69
  129.52        2954.75           1493         420.00      1824.00
  129.54        2955.00           1497         423.00      1837.08
  129.57        2955.25           1500         412.00      1789.12
  129.59        2955.50           1503         404.00      1754.24
  129.62        2955.75           1506         423.00      1837.08
  129.65        2956.00           1510         440.00      1911.19
  129.67        2956.25           1513         458.00      1989.67
  129.70        2956.50           1516         449.00      1950.43
  129.73        2956.75           1520         469.00      2037.63
  129.75        2957.00           1523         463.00      2011.47
  129.78        2957.25           1526         495.00      2150.98
  129.81        2957.50           1530         505.00      2194.58
  129.83        2957.75           1533         481.00      2089.94
  129.86        2958.00           1536         496.00      2155.34
  129.89        2958.25           1539         513.00      2229.46
  129.91        2958.50           1543         521.00      2264.34
  129.94        2958.75           1546         536.00      2329.73
  129.97        2959.00           1549         563.00      2447.45
  129.99        2959.25           1553         567.00      2464.89
  130.02        2959.50           1556         573.00      2491.05
  130.04        2959.75           1559         577.00      2508.49
  130.07        2960.00           1563         610.00      2652.37
  130.10        2960.25           1566         623.00      2709.05
  130.12        2960.50           1569         643.00      2796.25
  130.15        2960.75           1572         697.00      3031.69
  130.18        2961.00           1576        1306.00      5687.21
  130.20        2961.25           1579        3805.00     16588.85
  130.23        2961.50           1582        8921.00     38931.42
  130.26        2961.75           1586       18488.00     80801.05
  130.28        2962.00           1589       26614.00    116455.40
  130.31        2962.25           1592       34638.00    151744.90
  130.34        2962.50           1596       45397.00    199192.60
  130.36        2962.75           1599       53309.00    234180.30
  130.39        2963.00           1602       61221.00    269249.20
  130.42        2963.25           1606       72235.00    318203.60
  130.44        2963.50           1609       79950.00    352589.70
  130.47        2963.75           1612       87978.00    388454.40
  130.50        2964.00           1616       98562.00    435868.80
  130.52        2964.25           1619      106454.00    471321.20
  130.55        2964.50           1622      114841.00    509088.90
  130.58        2964.75           1625      122764.00    544854.70
  130.60        2965.00           1629      133639.00    594085.50
  130.63        2965.25           1632      141789.00    631086.40
  130.65        2965.50           1635      148913.00    663504.30
  130.68        2965.75           1639      159746.00    712934.80
  130.71        2966.00           1642      166581.00    744206.90
  130.74        2966.25           1645      171288.00    765780.80
  130.76        2966.50           1649      173559.00    776200.80
  130.79        2966.75           1652      174063.00    778514.20
  130.82        2967.00           1655      173914.00    777830.20
  130.84        2967.25           1659      173883.00    777688.00
  130.87        2967.50           1662      173151.00    774328.20
  130.89        2967.75           1665      169290.00    756619.40
  130.92        2968.00           1668      162880.00    727265.70
  130.95        2968.25           1672      152937.00    681846.60
  130.97        2968.50           1675      145082.00    646062.60
  131.00        2968.75           1678      136903.00    608893.00
  131.03        2969.00           1682      126510.00    561794.50
  131.05        2969.25           1685      118275.00    524580.10
  131.08        2969.50           1688      110495.00    489506.50
  131.11        2969.75           1692      100033.00    442470.50
  131.13        2970.00           1695       92290.00    407753.40
  131.16        2970.25           1698       84653.00    373589.80
  131.18        2970.50           1702       74463.00    328125.80
  131.21        2970.75           1705       66619.00    293222.10
  131.24        2971.00           1708       58175.00    255738.60
  131.26        2971.25           1712       47372.00    207918.70
  131.29        2971.50           1715       39806.00    174517.40
  131.32        2971.75           1718       31773.00    139135.20
  131.34        2972.00           1722       21539.00     94178.03
  131.37        2972.25           1725       14300.00     62458.16
  131.40        2972.50           1728        7892.00     34434.93
  131.42        2972.75           1732        2844.00     12395.65
  131.45        2973.00           1735        1306.00      5687.21
  131.47        2973.25           1738         839.00      3650.83
  131.50        2973.50           1741         730.00      3175.57
  131.53        2973.75           1745         670.00      2913.97
  131.55        2974.00           1748         670.00      2913.97
  131.58        2974.25           1751         617.00      2682.89
  131.60        2974.50           1755         607.00      2639.29
  131.63        2974.75           1758         602.00      2617.49
  131.66        2975.00           1761         590.00      2565.17
  131.68        2975.25           1765         585.00      2543.37
  131.71        2975.50           1768         567.00      2464.89
  131.74        2975.75           1771         537.00      2334.09
  131.76        2976.00           1775         529.00      2299.22
  131.79        2976.25           1778         526.00      2286.14
  131.82        2976.50           1781         532.00      2312.30
  131.84        2976.75           1785         524.00      2277.42
  131.87        2977.00           1788         517.00      2246.90
  131.90        2977.25           1791         488.00      2120.46
  131.92        2977.50           1795         457.00      1985.31
  131.95        2977.75           1798         493.00      2142.26
  131.98        2978.00           1801         496.00      2155.34
  132.00        2978.25           1805         452.00      1963.51
  132.03        2978.50           1808         470.00      2041.99
  132.06        2978.75           1811         439.00      1906.83
  132.08        2979.00           1815         448.00      1946.07
  132.11        2979.25           1818         432.00      1876.32
  132.14        2979.50           1821         425.00      1845.80
  132.16        2979.75           1825         406.00      1762.96
  132.19        2980.00           1828         426.00      1850.16
  132.21        2980.25           1831         391.00      1697.57
  132.24        2980.50           1835         377.00      1636.53
  132.27        2980.75           1838         384.00      1667.05
  132.29        2981.00           1841         390.00      1693.21
  132.32        2981.25           1845         369.00      1601.65
  132.34        2981.50           1848         363.00      1575.50
  132.37        2981.75           1851         369.00      1601.65
  132.40        2982.00           1854         346.00      1501.38
  132.42        2982.25           1858         360.00      1562.42
  132.45        2982.50           1861         343.00      1488.30
  132.47        2982.75           1864         345.00      1497.02
  132.50        2983.00           1868         334.00      1449.07
  132.53        2983.25           1871         344.00      1492.66
  132.55        2983.50           1874         323.00      1401.11
  132.58        2983.75           1878         321.00      1392.39
  132.61        2984.00           1881         311.00      1348.80
HS scan finished at 02:12:43
end
************************************************************
  HS Scan of (1) Internal mercury lamp
************************************************************
Integration time is 0.2294 seconds per sample
dh190619El Arenosillo 37.1 6.73 2.965129pr1000
************************************************************
Dead Time -------------------------  3.3E-08 
Number of Cycles Used -------------  4 
Starting Wavelength (Angstroms) ---  2950 
Final Wavelength (Angstoms) -------  2984 
Wavelength Increment (Angstroms) --  .25 
Filter Wheel #1 Position ---------- (1) Ground quartz diffuser (ND=2.32)
Filter Wheel #2 Position ---------- (1) Neutral Density 0.494



************************************************************
HS scan start time = 21:54:43
Dark Count =  1.1 


Time (GMT)  Wavelength (Ang)  Step Number  Raw Counts  Counts/Second

 1315.11        2950.00           1431         302.00      1311.74
 1315.17        2950.25           1434         305.00      1324.82
 1315.20        2950.50           1437         306.00      1329.18
 1315.23        2950.75           1440         308.00      1337.90
 1315.25        2951.00           1444         325.00      1412.01
 1315.28        2951.25           1447         330.00      1433.81
 1315.31        2951.50           1450         335.00      1455.61
 1315.33        2951.75           1454         333.00      1446.89
 1315.36        2952.00           1457         347.00      1507.92
 1315.38        2952.25           1460         320.00      1390.21
 1315.41        2952.50           1464         345.00      1499.20
 1315.44        2952.75           1467         362.00      1573.32
 1315.46        2953.00           1470         353.00      1534.08
 1315.49        2953.25           1473         356.00      1547.16
 1315.52        2953.50           1477         382.00      1660.51
 1315.54        2953.75           1480         372.00      1616.91
 1315.57        2954.00           1483         386.00      1677.95
 1315.60        2954.25           1487         400.00      1738.98
 1315.62        2954.50           1490         398.00      1730.26
 1315.65        2954.75           1493         395.00      1717.19
 1315.68        2955.00           1497         426.00      1852.34
 1315.70        2955.25           1500         408.00      1773.86
 1315.73        2955.50           1503         424.00      1843.62
 1315.75        2955.75           1506         442.00      1922.09
 1315.78        2956.00           1510         428.00      1861.06
 1315.81        2956.25           1513         447.00      1943.89
 1315.83        2956.50           1516         452.00      1965.69
 1315.86        2956.75           1520         462.00      2009.29
 1315.89        2957.00           1523         464.00      2018.01
 1315.91        2957.25           1526         464.00      2018.01
 1315.94        2957.50           1530         477.00      2074.68
 1315.97        2957.75           1533         497.00      2161.88
 1315.99        2958.00           1536         521.00      2266.52
 1316.02        2958.25           1539         504.00      2192.40
 1316.05        2958.50           1543         525.00      2283.96
 1316.07        2958.75           1546         515.00      2240.36
 1316.10        2959.00           1549         554.00      2410.39
 1316.13        2959.25           1553         555.00      2414.75
 1316.15        2959.50           1556         547.00      2379.87
 1316.18        2959.75           1559         590.00      2567.35
 1316.21        2960.00           1563         594.00      2584.79
 1316.23        2960.25           1566         623.00      2711.23
 1316.26        2960.50           1569         646.00      2811.51
 1316.28        2960.75           1572         694.00      3020.79
 1316.31        2961.00           1576        1003.00      4368.11
 1316.34        2961.25           1579        2600.00     11333.36
 1316.36        2961.50           1582        6800.00     29666.78
 1316.39        2961.75           1586       15594.00     68125.53
 1316.41        2962.00           1589       23541.00    102964.30
 1316.44        2962.25           1592       31537.00    138099.20
 1316.47        2962.50           1596       41869.00    183619.70
 1316.49        2962.75           1599       49470.00    217195.90
 1316.52        2963.00           1602       57350.00    252083.50
 1316.55        2963.25           1606       68034.00    299514.70
 1316.57        2963.50           1609       75742.00    333826.90
 1316.60        2963.75           1612       83746.00    369539.70
 1316.63        2964.00           1616       93943.00    415160.40
 1316.65        2964.25           1619      101803.00    450420.10
 1316.68        2964.50           1622      109975.00    487167.40
 1316.70        2964.75           1625      117435.00    520791.60
 1316.73        2965.00           1629      128161.00    569268.80
 1316.76        2965.25           1632      135738.00    603608.50
 1316.78        2965.50           1635      144148.00    641815.60
 1316.81        2965.75           1639      154281.00    687980.20
 1316.84        2966.00           1642      160976.00    718560.00
 1316.86        2966.25           1645      166367.00    743229.10
 1316.89        2966.50           1649      169752.00    758739.60
 1316.92        2966.75           1652      170579.00    762531.50
 1316.94        2967.00           1655      170442.00    761903.30
 1316.97        2967.25           1659      170431.00    761852.80
 1317.00        2967.50           1662      170313.00    761311.70
 1317.02        2967.75           1665      167347.00    747717.90
 1317.05        2968.00           1668      162294.00    724587.40
 1317.08        2968.25           1672      152615.00    680380.30
 1317.10        2968.50           1675      144856.00    645036.60
 1317.13        2968.75           1678      136991.00    609294.80
 1317.16        2969.00           1682      126666.00    562502.50
 1317.18        2969.25           1685      119011.00    527904.60
 1317.21        2969.50           1688      110942.00    491521.60
 1317.24        2969.75           1692      100487.00    444510.80
 1317.26        2970.00           1695       92660.00    409412.70
 1317.29        2970.25           1698       85329.00    376612.90
 1317.32        2970.50           1702       74987.00    330462.60
 1317.34        2970.75           1705       66996.00    294900.00
 1317.37        2971.00           1708       59132.00    259984.30
 1317.40        2971.25           1712       48478.00    212809.70
 1317.42        2971.50           1715       41001.00    179790.20
 1317.45        2971.75           1718       32921.00    144188.80
 1317.47        2972.00           1722       22656.00     99080.62
 1317.50        2972.25           1725       15438.00     67442.44
 1317.53        2972.50           1728        8814.00     38465.98
 1317.55        2972.75           1732        3232.00     14090.68
 1317.58        2973.00           1735        1499.00      6531.05
 1317.60        2973.25           1738         872.00      3796.90
 1317.63        2973.50           1741         712.00      3099.27
 1317.66        2973.75           1745         645.00      2807.15
 1317.68        2974.00           1748         674.00      2933.59
 1317.71        2974.25           1751         626.00      2724.31
 1317.74        2974.50           1755         609.00      2650.19
 1317.76        2974.75           1758         615.00      2676.35
 1317.79        2975.00           1761         604.00      2628.39
 1317.81        2975.25           1765         583.00      2536.83
 1317.84        2975.50           1768         586.00      2549.91
 1317.87        2975.75           1771         555.00      2414.75
 1317.90        2976.00           1775         557.00      2423.47
 1317.93        2976.25           1778         546.00      2375.51
 1317.95        2976.50           1781         524.00      2279.60
 1317.98        2976.75           1785         507.00      2205.48
 1318.01        2977.00           1788         485.00      2109.56
 1318.03        2977.25           1791         488.00      2122.64
 1318.06        2977.50           1795         481.00      2092.12
 1318.09        2977.75           1798         447.00      1943.89
 1318.11        2978.00           1801         457.00      1987.49
 1318.14        2978.25           1805         452.00      1965.69
 1318.16        2978.50           1808         467.00      2031.09
 1318.19        2978.75           1811         429.00      1865.42
 1318.22        2979.00           1815         439.00      1909.01
 1318.24        2979.25           1818         422.00      1834.90
 1318.27        2979.50           1821         401.00      1743.34
 1318.30        2979.75           1825         408.00      1773.86
 1318.32        2980.00           1828         395.00      1717.19
 1318.35        2980.25           1831         397.00      1725.90
 1318.38        2980.50           1835         405.00      1760.78
 1318.40        2980.75           1838         380.00      1651.79
 1318.43        2981.00           1841         378.00      1643.07
 1318.46        2981.25           1845         377.00      1638.71
 1318.48        2981.50           1848         386.00      1677.95
 1318.51        2981.75           1851         359.00      1560.24
 1318.53        2982.00           1854         363.00      1577.68
 1318.56        2982.25           1858         336.00      1459.97
 1318.59        2982.50           1861         340.00      1477.40
 1318.61        2982.75           1864         338.00      1468.69
 1318.64        2983.00           1868         329.00      1429.45
 1318.67        2983.25           1871         325.00      1412.01
 1318.69        2983.50           1874         341.00      1481.76
 1318.72        2983.75           1878         325.00      1412.01
 1318.75        2984.00           1881         318.00      1381.49
HS scan finished at 21:58:52
end
