************************************************************
  HS Scan of (1) Internal mercury lamp
************************************************************
Integration time is 0.2294 seconds per sample
dh250619El Arenosillo 37.1 6.73 3.072425pr1000
************************************************************
Dead Time -------------------------  3.3E-08 
Number of Cycles Used -------------  4 
Starting Wavelength (Angstroms) ---  2950 
Final Wavelength (Angstoms) -------  2984 
Wavelength Increment (Angstroms) --  .25 
Filter Wheel #1 Position ---------- (1) Ground quartz diffuser (ND=2.32)
Filter Wheel #2 Position ---------- (1) Neutral Density 0.494



************************************************************
HS scan start time = 02:14:24
Dark Count =  1.5 


Time (GMT)  Wavelength (Ang)  Step Number  Raw Counts  Counts/Second

  134.80        2950.00           1431         297.00      1288.20
  134.87        2950.25           1434         333.00      1445.14
  134.90        2950.50           1437         340.00      1475.66
  134.92        2950.75           1440         332.00      1440.78
  134.95        2951.00           1444         332.00      1440.78
  134.98        2951.25           1447         330.00      1432.06
  135.00        2951.50           1450         343.00      1488.74
  135.03        2951.75           1454         334.00      1449.50
  135.05        2952.00           1457         352.00      1527.98
  135.08        2952.25           1460         339.00      1471.30
  135.11        2952.50           1464         349.00      1514.90
  135.13        2952.75           1467         366.00      1589.01
  135.16        2953.00           1470         351.00      1523.62
  135.19        2953.25           1473         388.00      1684.92
  135.21        2953.50           1477         392.00      1702.36
  135.24        2953.75           1480         395.00      1715.44
  135.27        2954.00           1483         383.00      1663.13
  135.29        2954.25           1487         406.00      1763.40
  135.32        2954.50           1490         405.00      1759.04
  135.35        2954.75           1493         411.00      1785.20
  135.37        2955.00           1497         429.00      1863.67
  135.40        2955.25           1500         444.00      1929.07
  135.42        2955.50           1503         436.00      1894.19
  135.45        2955.75           1506         460.00      1998.82
  135.48        2956.00           1510         454.00      1972.67
  135.50        2956.25           1513         454.00      1972.67
  135.53        2956.50           1516         478.00      2077.30
  135.56        2956.75           1520         484.00      2103.46
  135.58        2957.00           1523         478.00      2077.30
  135.61        2957.25           1526         499.00      2168.86
  135.63        2957.50           1530         526.00      2286.57
  135.66        2957.75           1533         496.00      2155.78
  135.69        2958.00           1536         515.00      2238.61
  135.71        2958.25           1539         540.00      2347.61
  135.74        2958.50           1543         550.00      2391.21
  135.77        2958.75           1546         547.00      2378.13
  135.79        2959.00           1549         551.00      2395.57
  135.82        2959.25           1553         570.00      2478.41
  135.85        2959.50           1556         594.00      2583.05
  135.87        2959.75           1559         619.00      2692.04
  135.90        2960.00           1563         645.00      2805.40
  135.93        2960.25           1566         635.00      2761.80
  135.95        2960.50           1569         695.00      3023.41
  135.98        2960.75           1572         781.00      3398.38
  136.01        2961.00           1576        1828.00      7964.17
  136.03        2961.25           1579        5116.00     22311.54
  136.06        2961.50           1582       10666.00     46560.15
  136.09        2961.75           1586       20917.00     91450.38
  136.11        2962.00           1589       28885.00    126435.30
  136.14        2962.25           1592       36901.00    161712.90
  136.16        2962.50           1596       47395.00    208020.80
  136.19        2962.75           1599       55116.00    242182.90
  136.22        2963.00           1602       63170.00    277900.90
  136.24        2963.25           1606       73799.00    325168.50
  136.27        2963.50           1609       81818.00    360927.70
  136.30        2963.75           1612       90341.00    399027.70
  136.32        2964.00           1616      100933.00    446511.50
  136.35        2964.25           1619      108734.00    481579.40
  136.38        2964.50           1622      116515.00    516639.00
  136.40        2964.75           1625      124554.00    552947.30
  136.43        2965.00           1629      134870.00    599668.80
  136.46        2965.25           1632      142711.00    635278.50
  136.48        2965.50           1635      150185.00    669300.40
  136.51        2965.75           1639      160411.00    715975.00
  136.54        2966.00           1642      167095.00    746561.60
  136.56        2966.25           1645      171056.00    764717.10
  136.59        2966.50           1649      172819.00    772805.00
  136.62        2966.75           1652      173153.00    774337.80
  136.64        2967.00           1655      173728.00    776976.80
  136.67        2967.25           1659      173677.00    776742.80
  136.70        2967.50           1662      171493.00    766721.50
  136.72        2967.75           1665      168021.00    750804.00
  136.75        2968.00           1668      161424.00    720606.50
  136.78        2968.25           1672      152000.00    677573.90
  136.80        2968.50           1675      144443.00    643155.80
  136.83        2968.75           1678      136556.00    607318.50
  136.86        2969.00           1682      126162.00    560220.50
  136.88        2969.25           1685      118763.00    526783.30
  136.91        2969.50           1688      111080.00    492141.40
  136.94        2969.75           1692      100316.00    443741.40
  136.96        2970.00           1695       92734.00    409742.40
  136.99        2970.25           1698       84376.00    372352.50
  137.02        2970.50           1702       73548.00    324050.60
  137.04        2970.75           1705       65868.00    289885.00
  137.07        2971.00           1708       57838.00    254245.00
  137.09        2971.25           1712       46550.00    204286.70
  137.12        2971.50           1715       38878.00    170426.20
  137.15        2971.75           1718       30952.00    135524.10
  137.17        2972.00           1722       20796.00     90919.74
  137.20        2972.25           1725       13357.00     58331.45
  137.23        2972.50           1728        7155.00     31215.67
  137.25        2972.75           1732        2588.00     11279.26
  137.28        2973.00           1735        1221.00      5316.97
  137.31        2973.25           1738         800.00      3481.22
  137.33        2973.50           1741         714.00      3106.25
  137.36        2973.75           1745         689.00      2997.25
  137.39        2974.00           1748         643.00      2796.68
  137.41        2974.25           1751         653.00      2840.28
  137.44        2974.50           1755         607.00      2639.72
  137.47        2974.75           1758         598.00      2600.48
  137.49        2975.00           1761         569.00      2474.05
  137.52        2975.25           1765         564.00      2452.25
  137.54        2975.50           1768         578.00      2513.29
  137.57        2975.75           1771         564.00      2452.25
  137.60        2976.00           1775         558.00      2426.09
  137.62        2976.25           1778         529.00      2299.65
  137.65        2976.50           1781         531.00      2308.37
  137.68        2976.75           1785         513.00      2229.89
  137.70        2977.00           1788         525.00      2282.21
  137.73        2977.25           1791         502.00      2181.94
  137.76        2977.50           1795         491.00      2133.98
  137.78        2977.75           1798         473.00      2055.50
  137.81        2978.00           1801         465.00      2020.62
  137.84        2978.25           1805         481.00      2090.38
  137.86        2978.50           1808         454.00      1972.67
  137.89        2978.75           1811         447.00      1942.15
  137.91        2979.00           1815         458.00      1990.10
  137.94        2979.25           1818         430.00      1868.03
  137.97        2979.50           1821         440.00      1911.63
  137.99        2979.75           1825         406.00      1763.40
  138.02        2980.00           1828         423.00      1837.51
  138.05        2980.25           1831         425.00      1846.23
  138.07        2980.50           1835         404.00      1754.68
  138.10        2980.75           1838         387.00      1680.56
  138.12        2981.00           1841         380.00      1650.05
  138.15        2981.25           1845         381.00      1654.41
  138.17        2981.50           1848         369.00      1602.09
  138.20        2981.75           1851         370.00      1606.45
  138.23        2982.00           1854         368.00      1597.73
  138.25        2982.25           1858         360.00      1562.85
  138.28        2982.50           1861         348.00      1510.54
  138.31        2982.75           1864         332.00      1440.78
  138.33        2983.00           1868         347.00      1506.18
  138.36        2983.25           1871         329.00      1427.70
  138.39        2983.50           1874         334.00      1449.50
  138.41        2983.75           1878         340.00      1475.66
  138.44        2984.00           1881         340.00      1475.66
HS scan finished at 02:18:33
end
