************************************************************
  HS Scan of (1) Internal mercury lamp
************************************************************
Integration time is 0.2294 seconds per sample
dh230619El Arenosillo 37.1 6.73 2.911481pr1000
************************************************************
Dead Time -------------------------  3.3E-08 
Number of Cycles Used -------------  4 
Starting Wavelength (Angstroms) ---  2950 
Final Wavelength (Angstoms) -------  2984 
Wavelength Increment (Angstroms) --  .25 
Filter Wheel #1 Position ---------- (1) Ground quartz diffuser (ND=2.32)
Filter Wheel #2 Position ---------- (1) Neutral Density 0.494



************************************************************
HS scan start time = 01:10:13
Dark Count =  1.2 


Time (GMT)  Wavelength (Ang)  Step Number  Raw Counts  Counts/Second

   70.60        2950.00           1431         325.00      1411.57
   70.67        2950.25           1434         318.00      1381.06
   70.70        2950.50           1437         313.00      1359.26
   70.73        2950.75           1440         307.00      1333.10
   70.75        2951.00           1444         324.00      1407.21
   70.78        2951.25           1447         330.00      1433.37
   70.80        2951.50           1450         334.00      1450.81
   70.83        2951.75           1454         351.00      1524.92
   70.86        2952.00           1457         357.00      1551.08
   70.88        2952.25           1460         346.00      1503.13
   70.91        2952.50           1464         362.00      1572.88
   70.93        2952.75           1467         371.00      1612.12
   70.96        2953.00           1470         367.00      1594.68
   70.99        2953.25           1473         380.00      1651.35
   71.01        2953.50           1477         388.00      1686.23
   71.04        2953.75           1480         402.00      1747.27
   71.07        2954.00           1483         401.00      1742.91
   71.09        2954.25           1487         400.00      1738.55
   71.12        2954.50           1490         395.00      1716.75
   71.14        2954.75           1493         419.00      1821.38
   71.17        2955.00           1497         416.00      1808.30
   71.20        2955.25           1500         413.00      1795.22
   71.22        2955.50           1503         443.00      1926.02
   71.25        2955.75           1506         439.00      1908.58
   71.27        2956.00           1510         457.00      1987.05
   71.30        2956.25           1513         470.00      2043.73
   71.33        2956.50           1516         459.00      1995.77
   71.35        2956.75           1520         449.00      1952.17
   71.38        2957.00           1523         500.00      2174.52
   71.41        2957.25           1526         479.00      2082.97
   71.43        2957.50           1530         507.00      2205.04
   71.46        2957.75           1533         510.00      2218.12
   71.49        2958.00           1536         510.00      2218.12
   71.51        2958.25           1539         543.00      2362.00
   71.54        2958.50           1543         550.00      2392.52
   71.57        2958.75           1546         558.00      2427.40
   71.59        2959.00           1549         556.00      2418.68
   71.62        2959.25           1553         576.00      2505.87
   71.65        2959.50           1556         582.00      2532.03
   71.67        2959.75           1559         633.00      2754.39
   71.70        2960.00           1563         640.00      2784.91
   71.73        2960.25           1566         642.00      2793.63
   71.75        2960.50           1569         669.00      2911.35
   71.78        2960.75           1572         688.00      2994.19
   71.81        2961.00           1576         880.00      3831.35
   71.83        2961.25           1579        1802.00      7852.08
   71.86        2961.50           1582        5251.00     22902.22
   71.89        2961.75           1586       13695.00     59811.93
   71.91        2962.00           1589       21428.00     93692.91
   71.94        2962.25           1592       29512.00    129193.10
   71.97        2962.50           1596       39624.00    173716.60
   71.99        2962.75           1599       48219.00    211664.30
   72.02        2963.00           1602       55959.00    245918.80
   72.04        2963.25           1606       66868.00    294330.60
   72.07        2963.50           1609       75412.00    332355.90
   72.10        2963.75           1612       83833.00    369927.90
   72.13        2964.00           1616       94423.00    417310.80
   72.15        2964.25           1619      102792.00    454862.20
   72.18        2964.50           1622      110583.00    489904.50
   72.21        2964.75           1625      118799.00    526947.10
   72.23        2965.00           1629      129649.00    576005.80
   72.26        2965.25           1632      137422.00    611250.60
   72.28        2965.50           1635      145095.00    646123.50
   72.31        2965.75           1639      155513.00    693602.10
   72.34        2966.00           1642      163172.00    728603.30
   72.36        2966.25           1645      169642.00    758234.80
   72.39        2966.50           1649      174513.00    780581.90
   72.42        2966.75           1652      176119.00    787957.20
   72.44        2967.00           1655      176103.00    787883.70
   72.47        2967.25           1659      176363.00    789078.10
   72.49        2967.50           1662      175696.00    786014.30
   72.52        2967.75           1665      174051.00    778460.80
   72.55        2968.00           1668      169451.00    757359.30
   72.57        2968.25           1672      160015.00    714166.10
   72.60        2968.50           1675      152114.00    678095.10
   72.63        2968.75           1678      144179.00    641956.10
   72.65        2969.00           1682      133622.00    594010.10
   72.68        2969.25           1685      125644.00    557878.40
   72.71        2969.50           1688      118189.00    524193.80
   72.73        2969.75           1692      107285.00    475060.80
   72.76        2970.00           1695       99220.00    438823.30
   72.79        2970.25           1698       91171.00    402744.50
   72.81        2970.50           1702       80148.00    353475.00
   72.84        2970.75           1705       71528.00    315058.20
   72.87        2971.00           1708       63552.00    279598.50
   72.89        2971.25           1712       52482.00    230521.20
   72.92        2971.50           1715       44523.00    195334.40
   72.94        2971.75           1718       36864.00    161551.20
   72.97        2972.00           1722       26440.00    115692.80
   73.00        2972.25           1725       18681.00     81648.66
   73.02        2972.50           1728       11443.00     49959.37
   73.05        2972.75           1732        4648.00     20269.88
   73.08        2973.00           1735        2169.00      9452.82
   73.10        2973.25           1738        1048.00      4563.90
   73.13        2973.50           1741         764.00      3325.56
   73.16        2973.75           1745         704.00      3063.95
   73.18        2974.00           1748         698.00      3037.79
   73.21        2974.25           1751         680.00      2959.31
   73.24        2974.50           1755         640.00      2784.91
   73.26        2974.75           1758         621.00      2702.07
   73.29        2975.00           1761         604.00      2627.95
   73.32        2975.25           1765         611.00      2658.47
   73.34        2975.50           1768         599.00      2606.15
   73.37        2975.75           1771         588.00      2558.19
   73.40        2976.00           1775         563.00      2449.20
   73.42        2976.25           1778         548.00      2383.80
   73.45        2976.50           1781         516.00      2244.28
   73.47        2976.75           1785         519.00      2257.36
   73.50        2977.00           1788         536.00      2331.48
   73.53        2977.25           1791         510.00      2218.12
   73.55        2977.50           1795         517.00      2248.64
   73.58        2977.75           1798         489.00      2126.57
   73.60        2978.00           1801         490.00      2130.93
   73.63        2978.25           1805         494.00      2148.37
   73.66        2978.50           1808         458.00      1991.41
   73.68        2978.75           1811         464.00      2017.57
   73.71        2979.00           1815         442.00      1921.66
   73.74        2979.25           1818         448.00      1947.81
   73.76        2979.50           1821         439.00      1908.58
   73.79        2979.75           1825         421.00      1830.10
   73.81        2980.00           1828         428.00      1860.62
   73.84        2980.25           1831         408.00      1773.43
   73.87        2980.50           1835         406.00      1764.71
   73.89        2980.75           1838         407.00      1769.07
   73.92        2981.00           1841         372.00      1616.48
   73.95        2981.25           1845         372.00      1616.48
   73.97        2981.50           1848         377.00      1638.28
   74.00        2981.75           1851         382.00      1660.07
   74.03        2982.00           1854         376.00      1633.92
   74.05        2982.25           1858         364.00      1581.60
   74.08        2982.50           1861         375.00      1629.56
   74.11        2982.75           1864         351.00      1524.92
   74.13        2983.00           1868         359.00      1559.80
   74.16        2983.25           1871         331.00      1437.73
   74.19        2983.50           1874         325.00      1411.57
   74.21        2983.75           1878         317.00      1376.70
   74.24        2984.00           1881         316.00      1372.34
HS scan finished at 01:14:21
end
************************************************************
  HS Scan of (1) Internal mercury lamp
************************************************************
Integration time is 0.2294 seconds per sample
dh230619El Arenosillo 37.1 6.73 2.965129pr1000
************************************************************
Dead Time -------------------------  3.3E-08 
Number of Cycles Used -------------  4 
Starting Wavelength (Angstroms) ---  2950 
Final Wavelength (Angstoms) -------  2984 
Wavelength Increment (Angstroms) --  .25 
Filter Wheel #1 Position ---------- (1) Ground quartz diffuser (ND=2.32)
Filter Wheel #2 Position ---------- (1) Neutral Density 0.494



************************************************************
HS scan start time = 02:03:04
Dark Count =  1.6 


Time (GMT)  Wavelength (Ang)  Step Number  Raw Counts  Counts/Second

  123.45        2950.00           1431         315.00      1366.23
  123.52        2950.25           1434         335.00      1453.43
  123.55        2950.50           1437         316.00      1370.59
  123.57        2950.75           1440         331.00      1435.99
  123.60        2951.00           1444         327.00      1418.55
  123.62        2951.25           1447         330.00      1431.63
  123.65        2951.50           1450         346.00      1501.38
  123.68        2951.75           1454         340.00      1475.22
  123.70        2952.00           1457         357.00      1549.34
  123.73        2952.25           1460         343.00      1488.30
  123.76        2952.50           1464         364.00      1579.86
  123.78        2952.75           1467         382.00      1658.33
  123.81        2953.00           1470         375.00      1627.81
  123.84        2953.25           1473         386.00      1675.77
  123.86        2953.50           1477         390.00      1693.21
  123.89        2953.75           1480         387.00      1680.13
  123.91        2954.00           1483         395.00      1715.01
  123.94        2954.25           1487         405.00      1758.60
  123.97        2954.50           1490         419.00      1819.64
  123.99        2954.75           1493         428.00      1858.88
  124.02        2955.00           1497         431.00      1871.96
  124.05        2955.25           1500         437.00      1898.11
  124.07        2955.50           1503         427.00      1854.52
  124.10        2955.75           1506         455.00      1976.59
  124.13        2956.00           1510         473.00      2055.07
  124.15        2956.25           1513         465.00      2020.19
  124.18        2956.50           1516         472.00      2050.71
  124.20        2956.75           1520         486.00      2111.74
  124.23        2957.00           1523         469.00      2037.63
  124.26        2957.25           1526         499.00      2168.42
  124.28        2957.50           1530         499.00      2168.42
  124.31        2957.75           1533         510.00      2216.38
  124.33        2958.00           1536         513.00      2229.46
  124.36        2958.25           1539         538.00      2338.45
  124.39        2958.50           1543         549.00      2386.41
  124.41        2958.75           1546         541.00      2351.53
  124.44        2959.00           1549         571.00      2482.33
  124.46        2959.25           1553         585.00      2543.37
  124.49        2959.50           1556         608.00      2643.65
  124.52        2959.75           1559         602.00      2617.49
  124.54        2960.00           1563         646.00      2809.33
  124.57        2960.25           1566         637.00      2770.09
  124.60        2960.50           1569         680.00      2957.57
  124.62        2960.75           1572         746.00      3245.33
  124.65        2961.00           1576        1529.00      6659.70
  124.68        2961.25           1579        4258.00     18565.86
  124.70        2961.50           1582        9796.00     42756.01
  124.73        2961.75           1586       19555.00     85477.91
  124.76        2962.00           1589       27240.00    119205.60
  124.78        2962.25           1592       35806.00    156888.60
  124.81        2962.50           1596       46421.00    203716.30
  124.84        2962.75           1599       54479.00    239361.00
  124.86        2963.00           1602       62393.00    274451.00
  124.89        2963.25           1606       73372.00    323266.30
  124.92        2963.50           1609       81968.00    361596.90
  124.94        2963.75           1612       91053.00    402214.40
  124.97        2964.00           1616      101898.00    450844.60
  124.99        2964.25           1619      109404.00    484594.60
  125.02        2964.50           1622      116953.00    518614.60
  125.05        2964.75           1625      124732.00    553751.80
  125.07        2965.00           1629      135229.00    601296.90
  125.10        2965.25           1632      142865.00    635978.20
  125.13        2965.50           1635      151352.00    674619.10
  125.15        2965.75           1639      161499.00    720949.10
  125.18        2966.00           1642      167730.00    749470.30
  125.21        2966.25           1645      172411.00    770932.50
  125.23        2966.50           1649      174150.00    778913.60
  125.26        2966.75           1652      174998.00    782807.00
  125.29        2967.00           1655      175287.00    784134.10
  125.31        2967.25           1659      174939.00    782536.10
  125.34        2967.50           1662      173322.00    775113.00
  125.37        2967.75           1665      168664.00    753750.20
  125.39        2968.00           1668      162926.00    727476.10
  125.42        2968.25           1672      153337.00    683671.10
  125.45        2968.50           1675      145409.00    647550.50
  125.47        2968.75           1678      138226.00    614899.20
  125.50        2969.00           1682      127238.00    565088.80
  125.53        2969.25           1685      119079.00    528209.40
  125.55        2969.50           1688      110603.00    489992.80
  125.58        2969.75           1692      100159.00    443036.10
  125.61        2970.00           1695       92349.00    408017.60
  125.63        2970.25           1698       84518.00    372986.50
  125.66        2970.50           1702       73605.00    324304.00
  125.69        2970.75           1705       65514.00    288311.60
  125.71        2971.00           1708       57280.00    251771.10
  125.74        2971.25           1712       46607.00    204538.10
  125.77        2971.50           1715       38595.00    169178.10
  125.79        2971.75           1718       31179.00    136522.20
  125.82        2972.00           1722       20978.00     91717.46
  125.85        2972.25           1725       13616.00     59464.44
  125.87        2972.50           1728        7511.00     32770.38
  125.90        2972.75           1732        2548.00     11104.33
  125.93        2973.00           1735        1228.00      5347.06
  125.95        2973.25           1738         806.00      3506.94
  125.98        2973.50           1741         711.00      3092.73
  126.01        2973.75           1745         670.00      2913.97
  126.03        2974.00           1748         673.00      2927.05
  126.06        2974.25           1751         643.00      2796.25
  126.09        2974.50           1755         626.00      2722.13
  126.11        2974.75           1758         609.00      2648.01
  126.14        2975.00           1761         595.00      2586.97
  126.17        2975.25           1765         586.00      2547.73
  126.20        2975.50           1768         561.00      2438.73
  126.23        2975.75           1771         573.00      2491.05
  126.25        2976.00           1775         537.00      2334.09
  126.28        2976.25           1778         559.00      2430.01
  126.30        2976.50           1781         522.00      2268.70
  126.33        2976.75           1785         551.00      2395.13
  126.36        2977.00           1788         533.00      2316.66
  126.38        2977.25           1791         500.00      2172.78
  126.41        2977.50           1795         495.00      2150.98
  126.44        2977.75           1798         479.00      2081.22
  126.46        2978.00           1801         473.00      2055.07
  126.49        2978.25           1805         499.00      2168.42
  126.52        2978.50           1808         473.00      2055.07
  126.54        2978.75           1811         469.00      2037.63
  126.57        2979.00           1815         434.00      1885.03
  126.59        2979.25           1818         445.00      1932.99
  126.62        2979.50           1821         424.00      1841.44
  126.65        2979.75           1825         443.00      1924.27
  126.68        2980.00           1828         433.00      1880.67
  126.70        2980.25           1831         418.00      1815.28
  126.73        2980.50           1835         398.00      1728.08
  126.75        2980.75           1838         391.00      1697.57
  126.78        2981.00           1841         396.00      1719.37
  126.81        2981.25           1845         384.00      1667.05
  126.83        2981.50           1848         388.00      1684.49
  126.86        2981.75           1851         368.00      1597.29
  126.88        2982.00           1854         372.00      1614.73
  126.91        2982.25           1858         362.00      1571.14
  126.94        2982.50           1861         348.00      1510.10
  126.96        2982.75           1864         347.00      1505.74
  126.99        2983.00           1868         339.00      1470.86
  127.02        2983.25           1871         322.00      1396.75
  127.04        2983.50           1874         331.00      1435.99
  127.07        2983.75           1878         332.00      1440.35
  127.09        2984.00           1881         333.00      1444.71
HS scan finished at 02:07:12
end
