************************************************************
  HS Scan of (1) Internal mercury lamp
************************************************************
Integration time is 0.2294 seconds per sample
dh200619El Arenosillo 37.1 6.73 3.018777pr1000
************************************************************
Dead Time -------------------------  3.3E-08 
Number of Cycles Used -------------  4 
Starting Wavelength (Angstroms) ---  2950 
Final Wavelength (Angstoms) -------  2984 
Wavelength Increment (Angstroms) --  .25 
Filter Wheel #1 Position ---------- (1) Ground quartz diffuser (ND=2.32)
Filter Wheel #2 Position ---------- (1) Neutral Density 0.494



************************************************************
HS scan start time = 03:27:07
Dark Count =  1.4 


Time (GMT)  Wavelength (Ang)  Step Number  Raw Counts  Counts/Second

  207.50        2950.00           1431         306.00      1327.87
  207.57        2950.25           1434         294.00      1275.56
  207.60        2950.50           1437         330.00      1432.50
  207.63        2950.75           1440         309.00      1340.95
  207.65        2951.00           1444         313.00      1358.39
  207.68        2951.25           1447         319.00      1384.54
  207.70        2951.50           1450         323.00      1401.98
  207.73        2951.75           1454         333.00      1445.58
  207.76        2952.00           1457         331.00      1436.86
  207.78        2952.25           1460         348.00      1510.97
  207.81        2952.50           1464         344.00      1493.53
  207.83        2952.75           1467         346.00      1502.25
  207.86        2953.00           1470         349.00      1515.33
  207.89        2953.25           1473         370.00      1606.89
  207.91        2953.50           1477         398.00      1728.96
  207.94        2953.75           1480         383.00      1663.56
  207.97        2954.00           1483         389.00      1689.72
  207.99        2954.25           1487         392.00      1702.80
  208.02        2954.50           1490         390.00      1694.08
  208.05        2954.75           1493         420.00      1824.87
  208.07        2955.00           1497         426.00      1851.03
  208.10        2955.25           1500         427.00      1855.39
  208.13        2955.50           1503         435.00      1890.27
  208.15        2955.75           1506         428.00      1859.75
  208.18        2956.00           1510         453.00      1968.74
  208.21        2956.25           1513         451.00      1960.02
  208.23        2956.50           1516         449.00      1951.30
  208.26        2956.75           1520         491.00      2134.41
  208.28        2957.00           1523         474.00      2060.30
  208.31        2957.25           1526         464.00      2016.70
  208.34        2957.50           1530         473.00      2055.94
  208.36        2957.75           1533         499.00      2169.29
  208.39        2958.00           1536         498.00      2164.93
  208.41        2958.25           1539         519.00      2256.49
  208.44        2958.50           1543         540.00      2348.05
  208.47        2958.75           1546         537.00      2334.97
  208.49        2959.00           1549         555.00      2413.44
  208.52        2959.25           1553         566.00      2461.40
  208.55        2959.50           1556         568.00      2470.12
  208.57        2959.75           1559         590.00      2566.04
  208.60        2960.00           1563         608.00      2644.52
  208.62        2960.25           1566         647.00      2814.56
  208.65        2960.50           1569         656.00      2853.80
  208.68        2960.75           1572         696.00      3028.20
  208.70        2961.00           1576        1429.00      6224.47
  208.73        2961.25           1579        4293.00     18719.50
  208.76        2961.50           1582        9412.00     41078.31
  208.78        2961.75           1586       19196.00     83905.06
  208.81        2962.00           1589       27210.00    119074.70
  208.84        2962.25           1592       35634.00    156132.00
  208.86        2962.50           1596       45941.00    201596.50
  208.89        2962.75           1599       54020.00    237329.20
  208.92        2963.00           1602       61723.00    271478.00
  208.94        2963.25           1606       71643.00    315569.20
  208.97        2963.50           1609       79555.00    350828.10
  209.00        2963.75           1612       87442.00    386058.10
  209.02        2964.00           1616       97953.00    433137.50
  209.05        2964.25           1619      106284.00    470557.50
  209.08        2964.50           1622      114404.00    507119.60
  209.10        2964.75           1625      122440.00    543391.40
  209.13        2965.00           1629      132746.00    590037.60
  209.16        2965.25           1632      140124.00    623520.80
  209.18        2965.50           1635      147735.00    658139.80
  209.21        2965.75           1639      158036.00    705122.10
  209.23        2966.00           1642      165127.00    737549.80
  209.26        2966.25           1645      169351.00    756900.00
  209.29        2966.50           1649      172027.00    769171.50
  209.31        2966.75           1652      172734.00    772415.50
  209.34        2967.00           1655      172769.00    772576.00
  209.37        2967.25           1659      173181.00    774466.70
  209.39        2967.50           1662      171486.00    766689.80
  209.42        2967.75           1665      167800.00    749791.90
  209.45        2968.00           1668      162205.00    724178.80
  209.47        2968.25           1672      152213.00    678545.70
  209.50        2968.50           1675      144844.00    644980.50
  209.53        2968.75           1678      137637.00    612225.80
  209.55        2969.00           1682      126975.00    563899.50
  209.58        2969.25           1685      119230.00    528892.00
  209.61        2969.50           1688      111429.00    493713.70
  209.63        2969.75           1692      101141.00    447445.90
  209.66        2970.00           1695       93184.00    411758.60
  209.69        2970.25           1698       85214.00    376097.60
  209.71        2970.50           1702       74417.00    327921.80
  209.74        2970.75           1705       66943.00    294663.10
  209.77        2971.00           1708       59090.00    259796.70
  209.79        2971.25           1712       48799.00    214227.50
  209.82        2971.50           1715       41123.00    180327.10
  209.85        2971.75           1718       33025.00    144645.20
  209.87        2972.00           1722       23167.00    101321.70
  209.90        2972.25           1725       15355.00     67077.70
  209.93        2972.50           1728        8459.00     36913.29
  209.95        2972.75           1732        3041.00     13256.02
  209.98        2973.00           1735        1385.00      6032.59
  210.01        2973.25           1738         823.00      3581.94
  210.03        2973.50           1741         707.00      3076.16
  210.06        2973.75           1745         679.00      2954.08
  210.08        2974.00           1748         655.00      2849.44
  210.11        2974.25           1751         620.00      2696.84
  210.14        2974.50           1755         614.00      2670.68
  210.16        2974.75           1758         619.00      2692.48
  210.19        2975.00           1761         590.00      2566.04
  210.22        2975.25           1765         606.00      2635.80
  210.24        2975.50           1768         588.00      2557.32
  210.27        2975.75           1771         558.00      2426.52
  210.30        2976.00           1775         532.00      2313.17
  210.32        2976.25           1778         559.00      2430.88
  210.35        2976.50           1781         538.00      2339.33
  210.38        2976.75           1785         515.00      2239.05
  210.40        2977.00           1788         514.00      2234.69
  210.43        2977.25           1791         477.00      2073.38
  210.46        2977.50           1795         489.00      2125.69
  210.48        2977.75           1798         477.00      2073.38
  210.51        2978.00           1801         454.00      1973.10
  210.53        2978.25           1805         457.00      1986.18
  210.56        2978.50           1808         448.00      1946.94
  210.59        2978.75           1811         439.00      1907.71
  210.61        2979.00           1815         434.00      1885.91
  210.64        2979.25           1818         432.00      1877.19
  210.67        2979.50           1821         406.00      1763.83
  210.69        2979.75           1825         411.00      1785.63
  210.72        2980.00           1828         401.00      1742.04
  210.74        2980.25           1831         413.00      1794.35
  210.77        2980.50           1835         388.00      1685.36
  210.80        2980.75           1838         392.00      1702.80
  210.82        2981.00           1841         368.00      1598.17
  210.85        2981.25           1845         374.00      1624.32
  210.88        2981.50           1848         347.00      1506.61
  210.90        2981.75           1851         356.00      1545.85
  210.93        2982.00           1854         352.00      1528.41
  210.96        2982.25           1858         366.00      1589.45
  210.98        2982.50           1861         354.00      1537.13
  211.01        2982.75           1864         327.00      1419.42
  211.03        2983.00           1868         331.00      1436.86
  211.06        2983.25           1871         337.00      1463.02
  211.09        2983.50           1874         323.00      1401.98
  211.11        2983.75           1878         306.00      1327.87
  211.14        2984.00           1881         310.00      1345.31
HS scan finished at 03:31:15
end
************************************************************
  HS Scan of (1) Internal mercury lamp
************************************************************
Integration time is 0.2294 seconds per sample
dh200619El Arenosillo 37.1 6.73 3.018777pr1000
************************************************************
Dead Time -------------------------  3.3E-08 
Number of Cycles Used -------------  4 
Starting Wavelength (Angstroms) ---  2950 
Final Wavelength (Angstoms) -------  2984 
Wavelength Increment (Angstroms) --  .25 
Filter Wheel #1 Position ---------- (1) Ground quartz diffuser (ND=2.32)
Filter Wheel #2 Position ---------- (1) Neutral Density 0.494



************************************************************
HS scan start time = 21:40:07
Dark Count =  1.7 


Time (GMT)  Wavelength (Ang)  Step Number  Raw Counts  Counts/Second

 1300.49        2950.00           1431         320.00      1387.60
 1300.57        2950.25           1434         320.00      1387.60
 1300.60        2950.50           1437         333.00      1444.27
 1300.62        2950.75           1440         314.00      1361.44
 1300.65        2951.00           1444         350.00      1518.38
 1300.67        2951.25           1447         314.00      1361.44
 1300.70        2951.50           1450         346.00      1500.95
 1300.73        2951.75           1454         359.00      1557.62
 1300.75        2952.00           1457         351.00      1522.74
 1300.78        2952.25           1460         334.00      1448.63
 1300.80        2952.50           1464         358.00      1553.26
 1300.83        2952.75           1467         354.00      1535.82
 1300.86        2953.00           1470         373.00      1618.66
 1300.88        2953.25           1473         394.00      1710.21
 1300.91        2953.50           1477         392.00      1701.49
 1300.93        2953.75           1480         380.00      1649.17
 1300.96        2954.00           1483         408.00      1771.25
 1300.99        2954.25           1487         413.00      1793.04
 1301.01        2954.50           1490         424.00      1841.00
 1301.04        2954.75           1493         416.00      1806.12
 1301.07        2955.00           1497         424.00      1841.00
 1301.09        2955.25           1500         462.00      2006.67
 1301.12        2955.50           1503         464.00      2015.39
 1301.15        2955.75           1506         451.00      1958.71
 1301.17        2956.00           1510         473.00      2054.63
 1301.20        2956.25           1513         494.00      2146.19
 1301.23        2956.50           1516         464.00      2015.39
 1301.25        2956.75           1520         493.00      2141.83
 1301.28        2957.00           1523         508.00      2207.22
 1301.31        2957.25           1526         479.00      2080.79
 1301.33        2957.50           1530         484.00      2102.59
 1301.36        2957.75           1533         507.00      2202.86
 1301.38        2958.00           1536         536.00      2329.30
 1301.41        2958.25           1539         534.00      2320.58
 1301.44        2958.50           1543         549.00      2385.98
 1301.46        2958.75           1546         536.00      2329.30
 1301.49        2959.00           1549         572.00      2486.25
 1301.52        2959.25           1553         601.00      2612.69
 1301.54        2959.50           1556         608.00      2643.21
 1301.57        2959.75           1559         593.00      2577.81
 1301.60        2960.00           1563         611.00      2656.29
 1301.62        2960.25           1566         655.00      2848.13
 1301.65        2960.50           1569         641.00      2787.09
 1301.67        2960.75           1572         703.00      3057.41
 1301.70        2961.00           1576        1109.00      4827.71
 1301.73        2961.25           1579        2885.00     12574.09
 1301.75        2961.50           1582        7527.00     32839.85
 1301.78        2961.75           1586       16843.00     73593.07
 1301.81        2962.00           1589       24443.00    106921.10
 1301.83        2962.25           1592       32711.00    143262.00
 1301.86        2962.50           1596       43943.00    192771.30
 1301.89        2962.75           1599       51379.00    225637.70
 1301.91        2963.00           1602       59955.00    263632.00
 1301.94        2963.25           1606       70869.00    312123.00
 1301.97        2963.50           1609       79310.00    349733.70
 1301.99        2963.75           1612       87841.00    387841.10
 1302.02        2964.00           1616       98666.00    436335.10
 1302.05        2964.25           1619      106679.00    472332.60
 1302.07        2964.50           1622      115051.00    510035.30
 1302.10        2964.75           1625      123428.00    547855.50
 1302.13        2965.00           1629      133932.00    595413.60
 1302.15        2965.25           1632      141640.00    630408.60
 1302.18        2965.50           1635      149403.00    665736.10
 1302.21        2965.75           1639      160367.00    715772.90
 1302.23        2966.00           1642      166964.00    745960.60
 1302.26        2966.25           1645      172820.00    772808.70
 1302.29        2966.50           1649      176519.00    789792.50
 1302.31        2966.75           1652      177184.00    792847.80
 1302.34        2967.00           1655      177181.00    792834.00
 1302.37        2967.25           1659      177559.00    794571.00
 1302.39        2967.50           1662      176409.00    789287.00
 1302.42        2967.75           1665      173248.00    774772.90
 1302.45        2968.00           1668      167145.00    746789.80
 1302.47        2968.25           1672      156854.00    699722.30
 1302.50        2968.50           1675      149249.00    665034.40
 1302.53        2968.75           1678      141636.00    630390.40
 1302.55        2969.00           1682      131237.00    583197.30
 1302.58        2969.25           1685      123424.00    547837.50
 1302.61        2969.50           1688      115225.00    510819.90
 1302.63        2969.75           1692      104814.00    463946.60
 1302.66        2970.00           1695       96638.00    427238.10
 1302.69        2970.25           1698       88384.00    390270.00
 1302.71        2970.50           1702       77070.00    339743.70
 1302.74        2970.75           1705       69084.00    304181.50
 1302.76        2971.00           1708       60185.00    264652.20
 1302.79        2971.25           1712       49885.00    219028.60
 1302.82        2971.50           1715       42148.00    184848.20
 1302.84        2971.75           1718       33851.00    148279.60
 1302.87        2972.00           1722       23133.00    101171.10
 1302.90        2972.25           1725       15318.00     66914.38
 1302.92        2972.50           1728        8727.00     38083.14
 1302.95        2972.75           1732        3288.00     14332.41
 1302.97        2973.00           1735        1510.00      6576.41
 1303.00        2973.25           1738         871.00      3789.92
 1303.03        2973.50           1741         740.00      3218.74
 1303.05        2973.75           1745         694.00      3018.17
 1303.08        2974.00           1748         672.00      2922.25
 1303.10        2974.25           1751         666.00      2896.09
 1303.13        2974.50           1755         629.00      2734.77
 1303.16        2974.75           1758         646.00      2808.89
 1303.18        2975.00           1761         611.00      2656.29
 1303.21        2975.25           1765         616.00      2678.09
 1303.24        2975.50           1768         578.00      2512.41
 1303.26        2975.75           1771         567.00      2464.46
 1303.29        2976.00           1775         555.00      2412.14
 1303.32        2976.25           1778         545.00      2368.54
 1303.34        2976.50           1781         541.00      2351.10
 1303.37        2976.75           1785         532.00      2311.86
 1303.40        2977.00           1788         531.00      2307.50
 1303.42        2977.25           1791         503.00      2185.42
 1303.45        2977.50           1795         508.00      2207.22
 1303.48        2977.75           1798         477.00      2072.07
 1303.50        2978.00           1801         471.00      2045.91
 1303.53        2978.25           1805         487.00      2115.67
 1303.56        2978.50           1808         465.00      2019.75
 1303.58        2978.75           1811         464.00      2015.39
 1303.61        2979.00           1815         442.00      1919.48
 1303.63        2979.25           1818         439.00      1906.40
 1303.66        2979.50           1821         423.00      1836.64
 1303.69        2979.75           1825         435.00      1888.96
 1303.71        2980.00           1828         421.00      1827.92
 1303.74        2980.25           1831         433.00      1880.24
 1303.77        2980.50           1835         412.00      1788.68
 1303.79        2980.75           1838         392.00      1701.49
 1303.82        2981.00           1841         385.00      1670.97
 1303.85        2981.25           1845         388.00      1684.05
 1303.87        2981.50           1848         365.00      1583.78
 1303.90        2981.75           1851         368.00      1596.86
 1303.93        2982.00           1854         370.00      1605.58
 1303.95        2982.25           1858         366.00      1588.14
 1303.98        2982.50           1861         370.00      1605.58
 1304.01        2982.75           1864         370.00      1605.58
 1304.04        2983.00           1868         351.00      1522.74
 1304.07        2983.25           1871         342.00      1483.51
 1304.09        2983.50           1874         346.00      1500.95
 1304.12        2983.75           1878         348.00      1509.67
 1304.14        2984.00           1881         352.00      1527.10
HS scan finished at 21:44:15
end
