************************************************************
  HS Scan of (1) Internal mercury lamp
************************************************************
Integration time is 0.2294 seconds per sample
dh240619El Arenosillo 37.1 6.73 3.018777pr1000
************************************************************
Dead Time -------------------------  3.3E-08 
Number of Cycles Used -------------  4 
Starting Wavelength (Angstroms) ---  2950 
Final Wavelength (Angstoms) -------  2984 
Wavelength Increment (Angstroms) --  .25 
Filter Wheel #1 Position ---------- (1) Ground quartz diffuser (ND=2.32)
Filter Wheel #2 Position ---------- (1) Neutral Density 0.494



************************************************************
HS scan start time = 02:00:47
Dark Count =  2 


Time (GMT)  Wavelength (Ang)  Step Number  Raw Counts  Counts/Second

  121.17        2950.00           1431         330.00      1429.88
  121.24        2950.25           1434         318.00      1377.57
  121.27        2950.50           1437         333.00      1442.96
  121.29        2950.75           1440         328.00      1421.17
  121.32        2951.00           1444         331.00      1434.24
  121.35        2951.25           1447         336.00      1456.04
  121.37        2951.50           1450         341.00      1477.84
  121.40        2951.75           1454         346.00      1499.64
  121.43        2952.00           1457         353.00      1530.16
  121.45        2952.25           1460         360.00      1560.67
  121.48        2952.50           1464         347.00      1504.00
  121.51        2952.75           1467         364.00      1578.11
  121.53        2953.00           1470         398.00      1726.34
  121.56        2953.25           1473         383.00      1660.95
  121.58        2953.50           1477         380.00      1647.87
  121.61        2953.75           1480         393.00      1704.54
  121.64        2954.00           1483         400.00      1735.06
  121.66        2954.25           1487         402.00      1743.78
  121.69        2954.50           1490         404.00      1752.50
  121.72        2954.75           1493         425.00      1844.05
  121.74        2955.00           1497         427.00      1852.77
  121.77        2955.25           1500         428.00      1857.13
  121.80        2955.50           1503         432.00      1874.57
  121.82        2955.75           1506         456.00      1979.21
  121.85        2956.00           1510         476.00      2066.40
  121.87        2956.25           1513         479.00      2079.48
  121.90        2956.50           1516         468.00      2031.52
  121.93        2956.75           1520         497.00      2157.96
  121.95        2957.00           1523         478.00      2075.12
  121.98        2957.25           1526         520.00      2258.23
  122.01        2957.50           1530         486.00      2110.00
  122.03        2957.75           1533         530.00      2301.83
  122.06        2958.00           1536         535.00      2323.63
  122.08        2958.25           1539         551.00      2393.39
  122.11        2958.50           1543         566.00      2458.79
  122.14        2958.75           1546         548.00      2380.31
  122.16        2959.00           1549         585.00      2541.63
  122.19        2959.25           1553         585.00      2541.63
  122.21        2959.50           1556         595.00      2585.23
  122.24        2959.75           1559         585.00      2541.63
  122.27        2960.00           1563         637.00      2768.34
  122.31        2960.25           1566         644.00      2798.86
  122.34        2960.50           1569         660.00      2868.62
  122.36        2960.75           1572         721.00      3134.59
  122.39        2961.00           1576        1437.00      6256.74
  122.42        2961.25           1579        3966.00     17289.73
  122.44        2961.50           1582        9329.00     40712.90
  122.47        2961.75           1586       19320.00     84445.99
  122.49        2962.00           1589       27141.00    118768.90
  122.52        2962.25           1592       35250.00    154438.10
  122.55        2962.50           1596       45838.00    201138.90
  122.57        2962.75           1599       53774.00    236237.30
  122.60        2963.00           1602       62239.00    273765.50
  122.63        2963.25           1606       73726.00    324841.10
  122.66        2963.50           1609       82328.00    363202.60
  122.68        2963.75           1612       90961.00    401800.80
  122.71        2964.00           1616      102133.00    451898.30
  122.73        2964.25           1619      109777.00    486271.90
  122.76        2964.50           1622      118027.00    523459.00
  122.79        2964.75           1625      125312.00    556373.10
  122.82        2965.00           1629      136230.00    605836.80
  122.84        2965.25           1632      143863.00    640515.00
  122.87        2965.50           1635      151744.00    676404.40
  122.89        2965.75           1639      162463.00    725356.30
  122.92        2966.00           1642      168968.00    755141.60
  122.95        2966.25           1645      173811.00    777355.60
  122.97        2966.50           1649      175980.00    787315.10
  123.00        2966.75           1652      176956.00    791798.80
  123.03        2967.00           1655      177289.00    793328.80
  123.05        2967.25           1659      176997.00    791987.10
  123.08        2967.50           1662      175249.00    783957.80
  123.10        2967.75           1665      170976.00    764347.90
  123.13        2968.00           1668      164920.00    736599.50
  123.16        2968.25           1672      155805.00    694931.50
  123.18        2968.50           1675      148206.00    660282.10
  123.21        2968.75           1678      140904.00    627062.30
  123.24        2969.00           1682      129429.00    575005.90
  123.26        2969.25           1685      121128.00    537460.70
  123.29        2969.50           1688      113122.00    501338.50
  123.32        2969.75           1692      102396.00    453079.70
  123.34        2970.00           1695       94565.00    417943.60
  123.37        2970.25           1698       86284.00    380877.60
  123.40        2970.50           1702       75566.00    333038.60
  123.42        2970.75           1705       67924.00    299021.60
  123.45        2971.00           1708       59526.00    261727.70
  123.48        2971.25           1712       48697.00    213773.90
  123.50        2971.50           1715       40625.00    178127.70
  123.53        2971.75           1718       32745.00    143410.30
  123.55        2972.00           1722       21802.00     95329.94
  123.58        2972.25           1725       14080.00     61493.45
  123.61        2972.50           1728        7938.00     34634.16
  123.63        2972.75           1732        2840.00     12376.46
  123.66        2973.00           1735        1367.00      5951.47
  123.69        2973.25           1738         852.00      3705.77
  123.71        2973.50           1741         742.00      3226.15
  123.74        2973.75           1745         710.00      3086.63
  123.77        2974.00           1748         668.00      2903.50
  123.79        2974.25           1751         669.00      2907.86
  123.82        2974.50           1755         647.00      2811.94
  123.84        2974.75           1758         614.00      2668.06
  123.87        2975.00           1761         610.00      2650.62
  123.90        2975.25           1765         615.00      2672.42
  123.92        2975.50           1768         606.00      2633.18
  123.95        2975.75           1771         565.00      2454.43
  123.98        2976.00           1775         583.00      2532.91
  124.00        2976.25           1778         574.00      2493.67
  124.03        2976.50           1781         517.00      2245.15
  124.06        2976.75           1785         549.00      2384.67
  124.08        2977.00           1788         512.00      2223.35
  124.11        2977.25           1791         526.00      2284.39
  124.14        2977.50           1795         494.00      2144.88
  124.16        2977.75           1798         488.00      2118.72
  124.19        2978.00           1801         514.00      2232.07
  124.21        2978.25           1805         489.00      2123.08
  124.24        2978.50           1808         475.00      2062.04
  124.27        2978.75           1811         466.00      2022.80
  124.29        2979.00           1815         424.00      1839.69
  124.32        2979.25           1818         429.00      1861.49
  124.34        2979.50           1821         432.00      1874.57
  124.37        2979.75           1825         433.00      1878.93
  124.40        2980.00           1828         434.00      1883.29
  124.42        2980.25           1831         449.00      1948.69
  124.45        2980.50           1835         396.00      1717.62
  124.48        2980.75           1838         399.00      1730.70
  124.50        2981.00           1841         386.00      1674.02
  124.53        2981.25           1845         391.00      1695.82
  124.55        2981.50           1848         375.00      1626.07
  124.58        2981.75           1851         366.00      1586.83
  124.61        2982.00           1854         356.00      1543.23
  124.63        2982.25           1858         370.00      1604.27
  124.66        2982.50           1861         363.00      1573.75
  124.69        2982.75           1864         347.00      1504.00
  124.71        2983.00           1868         362.00      1569.39
  124.74        2983.25           1871         335.00      1451.68
  124.77        2983.50           1874         336.00      1456.04
  124.79        2983.75           1878         319.00      1381.93
  124.82        2984.00           1881         335.00      1451.68
HS scan finished at 02:04:56
end
************************************************************
  HS Scan of (1) Internal mercury lamp
************************************************************
Integration time is 0.2294 seconds per sample
dh240619El Arenosillo 37.1 6.73 3.126073pr1000
************************************************************
Dead Time -------------------------  3.3E-08 
Number of Cycles Used -------------  4 
Starting Wavelength (Angstroms) ---  2950 
Final Wavelength (Angstoms) -------  2984 
Wavelength Increment (Angstroms) --  .25 
Filter Wheel #1 Position ---------- (1) Ground quartz diffuser (ND=2.32)
Filter Wheel #2 Position ---------- (1) Neutral Density 0.494



************************************************************
HS scan start time = 20:51:03
Dark Count =  2.2 


Time (GMT)  Wavelength (Ang)  Step Number  Raw Counts  Counts/Second

 1251.43        2950.00           1431         295.00      1276.43
 1251.49        2950.25           1434         321.00      1389.78
 1251.52        2950.50           1437         337.00      1459.53
 1251.55        2950.75           1440         330.00      1429.01
 1251.57        2951.00           1444         332.00      1437.73
 1251.60        2951.25           1447         340.00      1472.61
 1251.63        2951.50           1450         354.00      1533.64
 1251.65        2951.75           1454         333.00      1442.09
 1251.68        2952.00           1457         332.00      1437.73
 1251.70        2952.25           1460         349.00      1511.85
 1251.73        2952.50           1464         366.00      1585.96
 1251.76        2952.75           1467         358.00      1551.08
 1251.78        2953.00           1470         366.00      1585.96
 1251.81        2953.25           1473         354.00      1533.64
 1251.84        2953.50           1477         388.00      1681.87
 1251.86        2953.75           1480         386.00      1673.15
 1251.89        2954.00           1483         395.00      1712.39
 1251.91        2954.25           1487         383.00      1660.07
 1251.94        2954.50           1490         412.00      1786.50
 1251.97        2954.75           1493         433.00      1878.06
 1251.99        2955.00           1497         418.00      1812.66
 1252.02        2955.25           1500         442.00      1917.30
 1252.05        2955.50           1503         429.00      1860.62
 1252.07        2955.75           1506         464.00      2013.21
 1252.10        2956.00           1510         458.00      1987.05
 1252.13        2956.25           1513         464.00      2013.21
 1252.15        2956.50           1516         464.00      2013.21
 1252.18        2956.75           1520         468.00      2030.65
 1252.21        2957.00           1523         495.00      2148.37
 1252.23        2957.25           1526         503.00      2183.24
 1252.26        2957.50           1530         484.00      2100.41
 1252.29        2957.75           1533         526.00      2283.52
 1252.31        2958.00           1536         508.00      2205.04
 1252.34        2958.25           1539         543.00      2357.64
 1252.36        2958.50           1543         565.00      2453.56
 1252.39        2958.75           1546         559.00      2427.40
 1252.42        2959.00           1549         547.00      2375.08
 1252.44        2959.25           1553         585.00      2540.75
 1252.47        2959.50           1556         582.00      2527.67
 1252.49        2959.75           1559         620.00      2693.35
 1252.52        2960.00           1563         613.00      2662.83
 1252.55        2960.25           1566         650.00      2824.15
 1252.57        2960.50           1569         661.00      2872.11
 1252.60        2960.75           1572         736.00      3199.12
 1252.63        2961.00           1576        1852.00      8065.79
 1252.65        2961.25           1579        5006.00     21828.27
 1252.68        2961.50           1582       10631.00     46404.05
 1252.71        2961.75           1586       20772.00     90811.40
 1252.73        2962.00           1589       28412.00    124353.20
 1252.76        2962.25           1592       36214.00    158683.20
 1252.79        2962.50           1596       46545.00    204261.50
 1252.81        2962.75           1599       54329.00    238694.10
 1252.84        2963.00           1602       62641.00    275549.20
 1252.87        2963.25           1606       74035.00    326216.50
 1252.89        2963.50           1609       82127.00    362304.20
 1252.92        2963.75           1612       89667.00    396008.10
 1252.95        2964.00           1616      100361.00    443940.20
 1252.97        2964.25           1619      108276.00    479515.10
 1253.00        2964.50           1622      116014.00    514376.00
 1253.03        2964.75           1625      124189.00    551293.60
 1253.05        2965.00           1629      134130.00    596309.30
 1253.08        2965.25           1632      142049.00    632265.50
 1253.10        2965.50           1635      149629.00    666763.50
 1253.13        2965.75           1639      159199.00    710432.20
 1253.16        2966.00           1642      166373.00    743251.50
 1253.18        2966.25           1645      170430.00    761843.10
 1253.21        2966.50           1649      172696.00    772237.40
 1253.24        2966.75           1652      173273.00    774885.30
 1253.26        2967.00           1655      173176.00    774440.10
 1253.29        2967.25           1659      173341.00    775197.40
 1253.31        2967.50           1662      171438.00    766466.00
 1253.34        2967.75           1665      166379.00    743279.00
 1253.37        2968.00           1668      160558.00    716643.80
 1253.39        2968.25           1672      151092.00    673431.10
 1253.42        2968.50           1675      143200.00    637498.80
 1253.45        2968.75           1678      135608.00    603013.60
 1253.47        2969.00           1682      125250.00    556091.80
 1253.50        2969.25           1685      117429.00    520759.50
 1253.53        2969.50           1688      109517.00    485100.50
 1253.55        2969.75           1692       98417.00    435215.50
 1253.58        2970.00           1695       90640.00    400362.90
 1253.61        2970.25           1698       82989.00    366153.50
 1253.63        2970.50           1702       72009.00    317194.80
 1253.66        2970.75           1705       64061.00    281854.50
 1253.68        2971.00           1708       55809.00    245249.70
 1253.71        2971.25           1712       44594.00    195643.50
 1253.75        2971.50           1715       37018.00    162225.40
 1253.78        2971.75           1718       29269.00    128120.30
 1253.81        2972.00           1722       19463.00     85071.98
 1253.83        2972.25           1725       11947.00     52159.45
 1253.86        2972.50           1728        6175.00     26932.38
 1253.89        2972.75           1732        2194.00      9557.50
 1253.91        2973.00           1735        1063.00      4624.94
 1253.94        2973.25           1738         734.00      3190.40
 1253.97        2973.50           1741         706.00      3068.31
 1253.99        2973.75           1745         658.00      2859.03
 1254.02        2974.00           1748         642.00      2789.27
 1254.04        2974.25           1751         637.00      2767.47
 1254.07        2974.50           1755         611.00      2654.11
 1254.10        2974.75           1758         596.00      2588.71
 1254.12        2975.00           1761         587.00      2549.47
 1254.15        2975.25           1765         561.00      2436.12
 1254.18        2975.50           1768         581.00      2523.31
 1254.20        2975.75           1771         557.00      2418.68
 1254.23        2976.00           1775         553.00      2401.24
 1254.25        2976.25           1778         537.00      2331.48
 1254.28        2976.50           1781         510.00      2213.76
 1254.31        2976.75           1785         524.00      2274.80
 1254.33        2977.00           1788         494.00      2144.01
 1254.36        2977.25           1791         492.00      2135.29
 1254.39        2977.50           1795         505.00      2191.96
 1254.41        2977.75           1798         468.00      2030.65
 1254.44        2978.00           1801         472.00      2048.09
 1254.47        2978.25           1805         459.00      1991.41
 1254.49        2978.50           1808         454.00      1969.61
 1254.52        2978.75           1811         468.00      2030.65
 1254.55        2979.00           1815         425.00      1843.18
 1254.57        2979.25           1818         448.00      1943.46
 1254.60        2979.50           1821         420.00      1821.38
 1254.63        2979.75           1825         417.00      1808.30
 1254.65        2980.00           1828         411.00      1782.14
 1254.68        2980.25           1831         415.00      1799.58
 1254.71        2980.50           1835         391.00      1694.95
 1254.73        2980.75           1838         399.00      1729.83
 1254.76        2981.00           1841         386.00      1673.15
 1254.78        2981.25           1845         381.00      1651.35
 1254.81        2981.50           1848         372.00      1612.12
 1254.84        2981.75           1851         347.00      1503.13
 1254.86        2982.00           1854         360.00      1559.80
 1254.89        2982.25           1858         358.00      1551.08
 1254.92        2982.50           1861         365.00      1581.60
 1254.94        2982.75           1864         346.00      1498.77
 1254.97        2983.00           1868         334.00      1446.45
 1255.00        2983.25           1871         330.00      1429.01
 1255.03        2983.50           1874         334.00      1446.45
 1255.06        2983.75           1878         325.00      1407.21
 1255.08        2984.00           1881         333.00      1442.09
HS scan finished at 20:55:12
end
