************************************************************
  HS Scan of (1) Internal mercury lamp
************************************************************
Integration time is 0.2294 seconds per sample
dh210619El Arenosillo 37.1 6.73 3.018777pr1000
************************************************************
Dead Time -------------------------  3.3E-08 
Number of Cycles Used -------------  4 
Starting Wavelength (Angstroms) ---  2950 
Final Wavelength (Angstoms) -------  2984 
Wavelength Increment (Angstroms) --  .25 
Filter Wheel #1 Position ---------- (1) Ground quartz diffuser (ND=2.32)
Filter Wheel #2 Position ---------- (1) Neutral Density 0.494



************************************************************
HS scan start time = 02:17:08
Dark Count =  2.4 


Time (GMT)  Wavelength (Ang)  Step Number  Raw Counts  Counts/Second

  137.52        2950.00           1431         320.00      1384.54
  137.59        2950.25           1434         329.00      1423.78
  137.62        2950.50           1437         337.00      1458.66
  137.64        2950.75           1440         340.00      1471.74
  137.67        2951.00           1444         352.00      1524.05
  137.70        2951.25           1447         341.00      1476.10
  137.72        2951.50           1450         352.00      1524.05
  137.75        2951.75           1454         366.00      1585.09
  137.78        2952.00           1457         357.00      1545.85
  137.80        2952.25           1460         354.00      1532.77
  137.83        2952.50           1464         365.00      1580.73
  137.85        2952.75           1467         375.00      1624.32
  137.88        2953.00           1470         400.00      1733.32
  137.91        2953.25           1473         387.00      1676.64
  137.93        2953.50           1477         392.00      1698.44
  137.96        2953.75           1480         385.00      1667.92
  137.99        2954.00           1483         409.00      1772.55
  138.01        2954.25           1487         402.00      1742.04
  138.04        2954.50           1490         430.00      1864.11
  138.07        2954.75           1493         410.00      1776.91
  138.09        2955.00           1497         446.00      1933.86
  138.12        2955.25           1500         453.00      1964.38
  138.14        2955.50           1503         459.00      1990.54
  138.17        2955.75           1506         455.00      1973.10
  138.20        2956.00           1510         458.00      1986.18
  138.22        2956.25           1513         467.00      2025.42
  138.25        2956.50           1516         494.00      2143.13
  138.28        2956.75           1520         475.00      2060.30
  138.30        2957.00           1523         494.00      2143.13
  138.33        2957.25           1526         495.00      2147.49
  138.36        2957.50           1530         520.00      2256.49
  138.38        2957.75           1533         512.00      2221.61
  138.41        2958.00           1536         528.00      2291.37
  138.44        2958.25           1539         539.00      2339.33
  138.46        2958.50           1543         567.00      2461.40
  138.49        2958.75           1546         591.00      2566.04
  138.51        2959.00           1549         574.00      2491.92
  138.54        2959.25           1553         577.00      2505.00
  138.57        2959.50           1556         595.00      2583.48
  138.59        2959.75           1559         615.00      2670.68
  138.62        2960.00           1563         640.00      2779.68
  138.65        2960.25           1566         636.00      2762.24
  138.67        2960.50           1569         679.00      2949.72
  138.70        2960.75           1572         754.00      3276.73
  138.72        2961.00           1576        1619.00      7048.72
  138.75        2961.25           1579        4894.00     21338.47
  138.78        2961.50           1582       10721.00     46796.71
  138.80        2961.75           1586       21164.00     92529.71
  138.83        2962.00           1589       28856.00    126303.90
  138.86        2962.25           1592       36868.00    161563.60
  138.88        2962.50           1596       47506.00    208507.40
  138.91        2962.75           1599       55744.00    244960.90
  138.94        2963.00           1602       64151.00    282253.30
  138.96        2963.25           1606       75106.00    330987.00
  138.99        2963.50           1609       83658.00    369140.80
  139.02        2963.75           1612       91957.00    406258.50
  139.04        2964.00           1616      102911.00    455391.40
  139.07        2964.25           1619      110426.00    489192.20
  139.10        2964.50           1622      118367.00    524991.80
  139.12        2964.75           1625      126622.00    562297.60
  139.15        2965.00           1629      136962.00    609157.10
  139.17        2965.25           1632      145087.00    646081.60
  139.20        2965.50           1635      153386.00    683890.90
  139.23        2965.75           1639      163320.00    729275.10
  139.25        2966.00           1642      169464.00    757413.30
  139.28        2966.25           1645      174451.00    780291.80
  139.31        2966.50           1649      177505.00    794319.60
  139.33        2966.75           1652      177372.00    793708.40
  139.36        2967.00           1655      177853.00    795918.80
  139.39        2967.25           1659      177800.00    795675.30
  139.41        2967.50           1662      176104.00    787882.80
  139.44        2967.75           1665      172183.00    769882.60
  139.47        2968.00           1668      166018.00    741624.80
  139.50        2968.25           1672      156393.00    697614.00
  139.52        2968.50           1675      148130.00    659934.00
  139.55        2968.75           1678      140431.00    624911.00
  139.57        2969.00           1682      129914.00    577200.60
  139.60        2969.25           1685      122095.00    541827.80
  139.63        2969.50           1688      113912.00    504897.20
  139.66        2969.75           1692      103371.00    457458.20
  139.68        2970.00           1695       95280.00    421146.50
  139.71        2970.25           1698       86616.00    382360.10
  139.73        2970.50           1702       75667.00    333486.90
  139.76        2970.75           1705       67381.00    296605.70
  139.79        2971.00           1708       59584.00    261983.20
  139.81        2971.25           1712       48492.00    212865.90
  139.84        2971.50           1715       40606.00    178042.10
  139.87        2971.75           1718       32649.00    142986.10
  139.89        2972.00           1722       22000.00     96196.78
  139.92        2972.25           1725       14246.00     62218.29
  139.95        2972.50           1728        7837.00     34191.13
  139.97        2972.75           1732        2595.00     11305.87
  140.00        2973.00           1735        1273.00      5539.81
  140.03        2973.25           1738         828.00      3599.38
  140.05        2973.50           1741         739.00      3211.33
  140.08        2973.75           1745         701.00      3045.64
  140.11        2974.00           1748         663.00      2879.96
  140.13        2974.25           1751         655.00      2845.08
  140.16        2974.50           1755         636.00      2762.24
  140.19        2974.75           1758         615.00      2670.68
  140.22        2975.00           1761         616.00      2675.04
  140.25        2975.25           1765         602.00      2614.00
  140.27        2975.50           1768         582.00      2526.80
  140.30        2975.75           1771         580.00      2518.08
  140.33        2976.00           1775         552.00      2396.00
  140.35        2976.25           1778         529.00      2295.73
  140.38        2976.50           1781         550.00      2387.28
  140.41        2976.75           1785         540.00      2343.69
  140.43        2977.00           1788         522.00      2265.21
  140.46        2977.25           1791         513.00      2225.97
  140.48        2977.50           1795         503.00      2182.37
  140.51        2977.75           1798         466.00      2021.06
  140.54        2978.00           1801         491.00      2130.05
  140.56        2978.25           1805         463.00      2007.98
  140.59        2978.50           1808         463.00      2007.98
  140.62        2978.75           1811         470.00      2038.50
  140.64        2979.00           1815         449.00      1946.94
  140.67        2979.25           1818         436.00      1890.27
  140.70        2979.50           1821         449.00      1946.94
  140.72        2979.75           1825         429.00      1859.75
  140.75        2980.00           1828         418.00      1811.79
  140.78        2980.25           1831         406.00      1759.47
  140.80        2980.50           1835         418.00      1811.79
  140.83        2980.75           1838         421.00      1824.87
  140.85        2981.00           1841         379.00      1641.76
  140.88        2981.25           1845         396.00      1715.88
  140.91        2981.50           1848         389.00      1685.36
  140.93        2981.75           1851         364.00      1576.37
  140.96        2982.00           1854         383.00      1659.20
  140.99        2982.25           1858         383.00      1659.20
  141.01        2982.50           1861         358.00      1550.21
  141.04        2982.75           1864         361.00      1563.29
  141.07        2983.00           1868         351.00      1519.69
  141.09        2983.25           1871         334.00      1445.58
  141.12        2983.50           1874         336.00      1454.30
  141.14        2983.75           1878         316.00      1367.11
  141.17        2984.00           1881         338.00      1463.02
HS scan finished at 02:21:17
end
************************************************************
  HS Scan of (1) Internal mercury lamp
************************************************************
Integration time is 0.2294 seconds per sample
dh210619El Arenosillo 37.1 6.73 3.072425pr1000
************************************************************
Dead Time -------------------------  3.3E-08 
Number of Cycles Used -------------  4 
Starting Wavelength (Angstroms) ---  2950 
Final Wavelength (Angstoms) -------  2984 
Wavelength Increment (Angstroms) --  .25 
Filter Wheel #1 Position ---------- (1) Ground quartz diffuser (ND=2.32)
Filter Wheel #2 Position ---------- (1) Neutral Density 0.494



************************************************************
HS scan start time = 21:40:10
Dark Count =  2 


Time (GMT)  Wavelength (Ang)  Step Number  Raw Counts  Counts/Second

 1300.55        2950.00           1431         327.00      1416.81
 1300.62        2950.25           1434         317.00      1373.21
 1300.64        2950.50           1437         329.00      1425.52
 1300.67        2950.75           1440         327.00      1416.81
 1300.70        2951.00           1444         329.00      1425.52
 1300.72        2951.25           1447         341.00      1477.84
 1300.75        2951.50           1450         352.00      1525.80
 1300.77        2951.75           1454         367.00      1591.19
 1300.80        2952.00           1457         344.00      1490.92
 1300.83        2952.25           1460         363.00      1573.75
 1300.85        2952.50           1464         391.00      1695.82
 1300.88        2952.75           1467         375.00      1626.07
 1300.91        2953.00           1470         369.00      1599.91
 1300.93        2953.25           1473         376.00      1630.43
 1300.96        2953.50           1477         387.00      1678.38
 1300.99        2953.75           1480         392.00      1700.18
 1301.01        2954.00           1483         404.00      1752.50
 1301.04        2954.25           1487         386.00      1674.02
 1301.07        2954.50           1490         418.00      1813.53
 1301.09        2954.75           1493         416.00      1804.82
 1301.12        2955.00           1497         425.00      1844.05
 1301.14        2955.25           1500         434.00      1883.29
 1301.17        2955.50           1503         447.00      1939.97
 1301.20        2955.75           1506         448.00      1944.33
 1301.22        2956.00           1510         441.00      1913.81
 1301.25        2956.25           1513         453.00      1966.13
 1301.28        2956.50           1516         488.00      2118.72
 1301.30        2956.75           1520         472.00      2048.96
 1301.33        2957.00           1523         500.00      2171.04
 1301.36        2957.25           1526         495.00      2149.24
 1301.38        2957.50           1530         490.00      2127.44
 1301.41        2957.75           1533         515.00      2236.43
 1301.44        2958.00           1536         532.00      2310.55
 1301.46        2958.25           1539         544.00      2362.87
 1301.49        2958.50           1543         550.00      2389.03
 1301.51        2958.75           1546         569.00      2471.87
 1301.54        2959.00           1549         602.00      2615.74
 1301.57        2959.25           1553         585.00      2541.63
 1301.59        2959.50           1556         593.00      2576.51
 1301.62        2959.75           1559         606.00      2633.18
 1301.65        2960.00           1563         632.00      2746.54
 1301.67        2960.25           1566         649.00      2820.66
 1301.70        2960.50           1569         662.00      2877.34
 1301.73        2960.75           1572         703.00      3056.11
 1301.75        2961.00           1576        1358.00      5912.23
 1301.78        2961.25           1579        3691.00     16089.62
 1301.80        2961.50           1582        9010.00     39318.64
 1301.83        2961.75           1586       18862.00     82438.45
 1301.86        2962.00           1589       26821.00    117363.00
 1301.88        2962.25           1592       35419.00    155182.40
 1301.91        2962.50           1596       46275.00    203069.40
 1301.94        2962.75           1599       54261.00    238393.80
 1301.96        2963.00           1602       62461.00    274751.00
 1301.99        2963.25           1606       72851.00    320944.50
 1302.02        2963.50           1609       81800.00    360845.10
 1302.04        2963.75           1612       90382.00    399209.00
 1302.07        2964.00           1616      101770.00    450267.90
 1302.10        2964.25           1619      109452.00    484808.80
 1302.12        2964.50           1622      117391.00    520589.00
 1302.15        2964.75           1625      125996.00    559467.10
 1302.17        2965.00           1629      136551.00    607293.50
 1302.20        2965.25           1632      144343.00    642698.50
 1302.23        2965.50           1635      152531.00    679993.10
 1302.26        2965.75           1639      162407.00    725100.10
 1302.28        2966.00           1642      169303.00    756677.10
 1302.31        2966.25           1645      174347.00    779816.10
 1302.34        2966.50           1649      177703.00    795231.40
 1302.36        2966.75           1652      177864.00    795971.30
 1302.39        2967.00           1655      177926.00    796256.20
 1302.42        2967.25           1659      177920.00    796228.80
 1302.44        2967.50           1662      176396.00    789226.00
 1302.47        2967.75           1665      172229.00    770095.60
 1302.49        2968.00           1668      165861.00    740907.80
 1302.52        2968.25           1672      156300.00    697191.40
 1302.55        2968.50           1675      148022.00    659444.10
 1302.57        2968.75           1678      140237.00    624031.50
 1302.60        2969.00           1682      130158.00    578307.60
 1302.63        2969.25           1685      122178.00    542204.60
 1302.65        2969.50           1688      114350.00    506873.50
 1302.68        2969.75           1692      103004.00    455811.00
 1302.71        2970.00           1695       94884.00    419373.30
 1302.73        2970.25           1698       86326.00    381065.40
 1302.76        2970.50           1702       75732.00    333778.40
 1302.79        2970.75           1705       67233.00    295949.50
 1302.81        2971.00           1708       58816.00    258579.00
 1302.84        2971.25           1712       47202.00    207165.60
 1302.87        2971.50           1715       39492.00    173131.10
 1302.89        2971.75           1718       31678.00    138715.50
 1302.92        2972.00           1722       20895.00     91351.71
 1302.95        2972.25           1725       13660.00     59655.25
 1302.97        2972.50           1728        7373.00     32165.77
 1303.00        2972.75           1732        2611.00     11377.42
 1303.03        2973.00           1735        1294.00      5633.13
 1303.05        2973.25           1738         866.00      3766.82
 1303.08        2973.50           1741         737.00      3204.35
 1303.11        2973.75           1745         691.00      3003.79
 1303.13        2974.00           1748         679.00      2951.46
 1303.16        2974.25           1751         662.00      2877.34
 1303.18        2974.50           1755         648.00      2816.30
 1303.21        2974.75           1758         634.00      2755.26
 1303.24        2975.00           1761         602.00      2615.74
 1303.26        2975.25           1765         598.00      2598.30
 1303.29        2975.50           1768         598.00      2598.30
 1303.32        2975.75           1771         585.00      2541.63
 1303.34        2976.00           1775         556.00      2415.19
 1303.37        2976.25           1778         550.00      2389.03
 1303.39        2976.50           1781         545.00      2367.23
 1303.42        2976.75           1785         512.00      2223.35
 1303.45        2977.00           1788         527.00      2288.75
 1303.47        2977.25           1791         502.00      2179.76
 1303.50        2977.50           1795         494.00      2144.88
 1303.53        2977.75           1798         497.00      2157.96
 1303.55        2978.00           1801         499.00      2166.68
 1303.58        2978.25           1805         479.00      2079.48
 1303.61        2978.50           1808         450.00      1953.05
 1303.63        2978.75           1811         481.00      2088.20
 1303.66        2979.00           1815         472.00      2048.96
 1303.68        2979.25           1818         453.00      1966.13
 1303.72        2979.50           1821         431.00      1870.21
 1303.75        2979.75           1825         428.00      1857.13
 1303.77        2980.00           1828         411.00      1783.02
 1303.80        2980.25           1831         415.00      1800.46
 1303.82        2980.50           1835         405.00      1756.86
 1303.85        2980.75           1838         395.00      1713.26
 1303.88        2981.00           1841         400.00      1735.06
 1303.90        2981.25           1845         392.00      1700.18
 1303.93        2981.50           1848         372.00      1612.99
 1303.96        2981.75           1851         375.00      1626.07
 1303.98        2982.00           1854         388.00      1682.74
 1304.01        2982.25           1858         364.00      1578.11
 1304.04        2982.50           1861         357.00      1547.59
 1304.06        2982.75           1864         341.00      1477.84
 1304.09        2983.00           1868         348.00      1508.36
 1304.12        2983.25           1871         334.00      1447.32
 1304.14        2983.50           1874         349.00      1512.72
 1304.17        2983.75           1878         315.00      1364.49
 1304.20        2984.00           1881         332.00      1438.60
HS scan finished at 21:44:19
end
