************************************************************
  HS Scan of (1) Internal mercury lamp
************************************************************
Integration time is 0.2294 seconds per sample
dh220619El Arenosillo 37.1 6.73 3.126073pr1000
************************************************************
Dead Time -------------------------  3.3E-08 
Number of Cycles Used -------------  4 
Starting Wavelength (Angstroms) ---  2950 
Final Wavelength (Angstoms) -------  2984 
Wavelength Increment (Angstroms) --  .25 
Filter Wheel #1 Position ---------- (1) Ground quartz diffuser (ND=2.32)
Filter Wheel #2 Position ---------- (1) Neutral Density 0.494



************************************************************
HS scan start time = 02:01:54
Dark Count =  2.3 


Time (GMT)  Wavelength (Ang)  Step Number  Raw Counts  Counts/Second

  122.29        2950.00           1431         315.00      1363.18
  122.36        2950.25           1434         317.00      1371.90
  122.38        2950.50           1437         325.00      1406.78
  122.41        2950.75           1440         327.00      1415.50
  122.44        2951.00           1444         331.00      1432.94
  122.46        2951.25           1447         340.00      1472.17
  122.49        2951.50           1450         367.00      1589.88
  122.52        2951.75           1454         324.00      1402.42
  122.54        2952.00           1457         358.00      1550.65
  122.57        2952.25           1460         351.00      1520.13
  122.60        2952.50           1464         365.00      1581.16
  122.63        2952.75           1467         366.00      1585.52
  122.66        2953.00           1470         370.00      1602.96
  122.68        2953.25           1473         389.00      1685.80
  122.71        2953.50           1477         404.00      1751.19
  122.73        2953.75           1480         396.00      1716.31
  122.76        2954.00           1483         408.00      1768.63
  122.79        2954.25           1487         406.00      1759.91
  122.81        2954.50           1490         410.00      1777.35
  122.84        2954.75           1493         415.00      1799.15
  122.86        2955.00           1497         424.00      1838.39
  122.89        2955.25           1500         425.00      1842.75
  122.92        2955.50           1503         452.00      1960.46
  122.94        2955.75           1506         449.00      1947.38
  122.97        2956.00           1510         465.00      2017.14
  123.00        2956.25           1513         490.00      2126.13
  123.02        2956.50           1516         476.00      2065.09
  123.05        2956.75           1520         500.00      2169.73
  123.08        2957.00           1523         494.00      2143.57
  123.10        2957.25           1526         509.00      2208.97
  123.13        2957.50           1530         537.00      2331.04
  123.15        2957.75           1533         517.00      2243.85
  123.18        2958.00           1536         542.00      2352.84
  123.21        2958.25           1539         502.00      2178.45
  123.23        2958.50           1543         571.00      2479.28
  123.26        2958.75           1546         564.00      2448.76
  123.29        2959.00           1549         590.00      2562.12
  123.31        2959.25           1553         599.00      2601.36
  123.34        2959.50           1556         622.00      2701.64
  123.37        2959.75           1559         633.00      2749.60
  123.39        2960.00           1563         647.00      2810.64
  123.42        2960.25           1566         666.00      2893.48
  123.45        2960.50           1569         683.00      2967.60
  123.47        2960.75           1572         758.00      3294.60
  123.50        2961.00           1576        1858.00      8091.52
  123.53        2961.25           1579        5396.00     23530.47
  123.55        2961.50           1582       11545.00     50400.67
  123.58        2961.75           1586       21708.00     94916.27
  123.60        2962.00           1589       29704.00    130032.40
  123.63        2962.25           1592       37893.00    166080.80
  123.66        2962.50           1596       48923.00    214771.80
  123.68        2962.75           1599       57452.00    252530.40
  123.71        2963.00           1602       65662.00    288966.10
  123.74        2963.25           1606       77004.00    339446.90
  123.76        2963.50           1609       85002.00    375146.20
  123.79        2963.75           1612       92626.00    409255.10
  123.82        2964.00           1616      104048.00    460500.90
  123.84        2964.25           1619      111990.00    496236.70
  123.87        2964.50           1622      120427.00    534293.10
  123.90        2964.75           1625      128356.00    570146.10
  123.92        2965.00           1629      138849.00    617725.10
  123.95        2965.25           1632      147013.00    654848.30
  123.98        2965.50           1635      155201.00    692173.10
  124.00        2965.75           1639      165662.00    739995.10
  124.03        2966.00           1642      172238.00    770135.50
  124.05        2966.25           1645      176527.00    789826.40
  124.08        2966.50           1649      179257.00    802373.50
  124.11        2966.75           1652      179658.00    804217.30
  124.14        2967.00           1655      179034.00    801348.10
  124.16        2967.25           1659      179234.00    802267.70
  124.19        2967.50           1662      177308.00    793414.80
  124.21        2967.75           1665      173244.00    774751.80
  124.24        2968.00           1668      166279.00    742820.60
  124.27        2968.25           1672      156971.00    700253.90
  124.30        2968.50           1675      149270.00    665127.50
  124.32        2968.75           1678      141134.00    628106.10
  124.35        2969.00           1682      130802.00    581223.70
  124.38        2969.25           1685      123138.00    546542.00
  124.40        2969.50           1688      114758.00    508711.60
  124.43        2969.75           1692      103235.00    456847.50
  124.46        2970.00           1695       95329.00    421366.60
  124.48        2970.25           1698       87247.00    385182.00
  124.51        2970.50           1702       75893.00    334494.50
  124.54        2970.75           1705       68030.00    299491.60
  124.57        2971.00           1708       59154.00    260076.50
  124.60        2971.25           1712       47909.00    210289.10
  124.62        2971.50           1715       39712.00    174099.80
  124.65        2971.75           1718       31938.00    139858.00
  124.68        2972.00           1722       21206.00     92714.36
  124.70        2972.25           1725       13750.00     60047.82
  124.73        2972.50           1728        7396.00     32264.94
  124.76        2972.75           1732        2656.00     11572.42
  124.78        2973.00           1735        1215.00      5287.32
  124.81        2973.25           1738         810.00      3521.33
  124.84        2973.50           1741         711.00      3089.68
  124.86        2973.75           1745         714.00      3102.76
  124.89        2974.00           1748         663.00      2880.40
  124.92        2974.25           1751         663.00      2880.40
  124.94        2974.50           1755         635.00      2758.32
  124.97        2974.75           1758         611.00      2653.68
  124.99        2975.00           1761         604.00      2623.16
  125.02        2975.25           1765         607.00      2636.24
  125.05        2975.50           1768         584.00      2535.96
  125.07        2975.75           1771         571.00      2479.28
  125.10        2976.00           1775         564.00      2448.76
  125.13        2976.25           1778         542.00      2352.84
  125.15        2976.50           1781         556.00      2413.88
  125.18        2976.75           1785         526.00      2283.08
  125.21        2977.00           1788         517.00      2243.85
  125.23        2977.25           1791         527.00      2287.44
  125.26        2977.50           1795         496.00      2152.29
  125.29        2977.75           1798         504.00      2187.17
  125.31        2978.00           1801         492.00      2134.85
  125.34        2978.25           1805         484.00      2099.97
  125.36        2978.50           1808         465.00      2017.14
  125.39        2978.75           1811         470.00      2038.93
  125.42        2979.00           1815         451.00      1956.10
  125.44        2979.25           1818         450.00      1951.74
  125.47        2979.50           1821         428.00      1855.82
  125.50        2979.75           1825         407.00      1764.27
  125.52        2980.00           1828         435.00      1886.34
  125.55        2980.25           1831         398.00      1725.03
  125.58        2980.50           1835         398.00      1725.03
  125.60        2980.75           1838         397.00      1720.67
  125.63        2981.00           1841         392.00      1698.87
  125.66        2981.25           1845         398.00      1725.03
  125.68        2981.50           1848         378.00      1637.84
  125.71        2981.75           1851         369.00      1598.60
  125.74        2982.00           1854         373.00      1616.04
  125.76        2982.25           1858         351.00      1520.13
  125.79        2982.50           1861         363.00      1572.44
  125.82        2982.75           1864         343.00      1485.25
  125.84        2983.00           1868         358.00      1550.65
  125.87        2983.25           1871         350.00      1515.77
  125.90        2983.50           1874         332.00      1437.30
  125.92        2983.75           1878         343.00      1485.25
  125.95        2984.00           1881         318.00      1376.26
HS scan finished at 02:06:04
end
