************************************************************
  HS Scan of (1) Internal mercury lamp
************************************************************
Integration time is 0.2294 seconds per sample
dh010119Reading 51.44 .94 2.88pr1000
************************************************************
Dead Time -------------------------  3.4E-08 
Number of Cycles Used -------------  4 
Starting Wavelength (Angstroms) ---  2950 
Final Wavelength (Angstoms) -------  2984 
Wavelength Increment (Angstroms) --  .25 
Filter Wheel #1 Position ---------- (1) Ground quartz diffuser (ND=2.32)
Filter Wheel #2 Position ---------- (1) Neutral Density 0.494



************************************************************
HS scan start time = 05:16:30
Dark Count =  .6 


Time (GMT)  Wavelength (Ang)  Step Number  Raw Counts  Counts/Second

  317.40        2950.00           2144        1481.00      6454.77
  317.60        2950.25           2147        1481.00      6454.77
  317.63        2950.50           2151        1485.00      6472.22
  317.66        2950.75           2155        1472.00      6415.52
  317.69        2951.00           2158        1472.00      6415.52
  317.72        2951.25           2162        1486.00      6476.58
  317.75        2951.50           2165        1465.00      6385.00
  317.78        2951.75           2169        1464.00      6380.64
  317.81        2952.00           2172        1501.00      6542.00
  317.84        2952.25           2176        1496.00      6520.19
  317.87        2952.50           2179        1506.00      6563.80
  317.90        2952.75           2183        1511.00      6585.61
  317.93        2953.00           2186        1556.00      6781.86
  317.96        2953.25           2190        1515.00      6603.05
  317.99        2953.50           2193        1506.00      6563.80
  318.02        2953.75           2197        1531.00      6672.83
  318.05        2954.00           2200        1536.00      6694.64
  318.08        2954.25           2204        1562.00      6808.03
  318.12        2954.50           2208        1594.00      6947.59
  318.15        2954.75           2211        1609.00      7013.01
  318.18        2955.00           2215        1554.00      6773.14
  318.21        2955.25           2218        1596.00      6956.31
  318.24        2955.50           2222        1560.00      6799.30
  318.27        2955.75           2225        1593.00      6943.23
  318.30        2956.00           2229        1618.00      7052.26
  318.33        2956.25           2232        1603.00      6986.84
  318.36        2956.50           2236        1639.00      7143.85
  318.39        2956.75           2239        1630.00      7104.59
  318.42        2957.00           2243        1625.00      7082.79
  318.45        2957.25           2246        1677.00      7309.58
  318.48        2957.50           2250        1685.00      7344.47
  318.51        2957.75           2254        1682.00      7331.38
  318.54        2958.00           2257        1677.00      7309.58
  318.57        2958.25           2261        1738.00      7575.62
  318.60        2958.50           2264        1725.00      7518.92
  318.64        2958.75           2268        1703.00      7422.97
  318.67        2959.00           2271        1721.00      7501.48
  318.70        2959.25           2275        1778.00      7750.08
  318.73        2959.50           2278        1765.00      7693.38
  318.76        2959.75           2282        1805.00      7867.84
  318.79        2960.00           2285        1863.00      8120.81
  318.82        2960.25           2289        1846.00      8046.67
  318.85        2960.50           2293        1905.00      8304.00
  318.88        2960.75           2296        1915.00      8347.62
  318.91        2961.00           2300        2100.00      9154.55
  318.94        2961.25           2303        2536.00     11056.47
  318.97        2961.50           2307        7064.00     30823.05
  319.00        2961.75           2310       16180.00     70698.95
  319.03        2962.00           2314       33461.00    146589.30
  319.06        2962.25           2317       47851.00    210084.60
  319.09        2962.50           2321       68486.00    301618.70
  319.12        2962.75           2324       84931.00    374978.80
  319.16        2963.00           2328      108194.00    479386.70
  319.19        2963.25           2331      125651.00    558230.10
  319.22        2963.50           2335      149839.00    668184.20
  319.25        2963.75           2339      172335.00    771198.50
  319.28        2964.00           2342      187632.00    841666.80
  319.31        2964.25           2346      209220.00    941702.50
  319.34        2964.50           2349      226962.00   1024438.00
  319.37        2964.75           2353      249465.00   1130060.00
  319.40        2965.00           2356      264456.00   1200856.00
  319.43        2965.25           2360      286452.00   1305367.00
  319.46        2965.50           2363      301233.00   1376026.00
  319.49        2965.75           2367      320155.00   1466992.00
  319.52        2966.00           2370      334132.00   1534558.00
  319.55        2966.25           2374      355216.00   1637087.00
  319.58        2966.50           2378      369568.00   1707302.00
  319.61        2966.75           2381      374105.00   1729571.00
  319.64        2967.00           2385      376186.00   1739796.00
  319.68        2967.25           2388      375995.00   1738858.00
  319.71        2967.50           2392      375981.00   1738789.00
  319.74        2967.75           2395      375427.00   1736066.00
  319.77        2968.00           2399      371770.00   1718106.00
  319.80        2968.25           2402      362753.00   1673917.00
  319.83        2968.50           2406      344843.00   1586552.00
  319.86        2968.75           2409      329880.00   1513969.00
  319.89        2969.00           2413      309097.00   1413762.00
  319.92        2969.25           2417      288984.00   1317446.00
  319.95        2969.50           2420      275176.00   1251696.00
  319.98        2969.75           2424      253528.00   1149214.00
  320.01        2970.00           2427      236007.00   1066799.00
  320.04        2970.25           2431      211525.00    952424.60
  320.07        2970.50           2434      194333.00    872644.40
  320.10        2970.75           2438      170861.00    764426.30
  320.13        2971.00           2441      154403.00    689024.80
  320.16        2971.25           2445      130742.00    581303.90
  320.20        2971.50           2449      106121.00    470052.40
  320.23        2971.75           2452       87810.00    387859.80
  320.26        2972.00           2456       65659.00    289044.70
  320.29        2972.25           2459       49673.00    218143.80
  320.32        2972.50           2463       29273.00    128161.40
  320.35        2972.75           2466       16103.00     70361.68
  320.38        2973.00           2470        5565.00     24276.35
  320.41        2973.25           2473        2911.00     12692.49
  320.44        2973.50           2477        2098.00      9145.83
  320.47        2973.75           2481        1966.00      8570.07
  320.50        2974.00           2484        1918.00      8360.70
  320.53        2974.25           2488        1890.00      8238.58
  320.56        2974.50           2491        1877.00      8181.88
  320.59        2974.75           2495        1816.00      7915.82
  320.62        2975.00           2498        1802.00      7854.76
  320.65        2975.25           2502        1768.00      7706.47
  320.68        2975.50           2505        1772.00      7723.91
  320.72        2975.75           2509        1741.00      7588.71
  320.75        2976.00           2512        1733.00      7553.82
  320.78        2976.25           2516        1698.00      7401.16
  320.81        2976.50           2520        1655.00      7213.63
  320.84        2976.75           2523        1695.00      7388.08
  320.87        2977.00           2527        1608.00      7008.65
  320.90        2977.25           2530        1594.00      6947.59
  320.93        2977.50           2534        1609.00      7013.01
  320.96        2977.75           2537        1584.00      6903.97
  320.99        2978.00           2541        1593.00      6943.23
  321.02        2978.25           2544        1584.00      6903.97
  321.05        2978.50           2548        1539.00      6707.72
  321.08        2978.75           2552        1515.00      6603.05
  321.11        2979.00           2555        1526.00      6651.02
  321.14        2979.25           2559        1521.00      6629.22
  321.17        2979.50           2562        1515.00      6603.05
  321.20        2979.75           2566        1503.00      6550.72
  321.24        2980.00           2569        1493.00      6507.11
  321.27        2980.25           2573        1461.00      6367.55
  321.30        2980.50           2577        1489.00      6489.66
  321.33        2980.75           2580        1441.00      6280.33
  321.36        2981.00           2584        1425.00      6210.55
  321.39        2981.25           2587        1407.00      6132.05
  321.42        2981.50           2591        1448.00      6310.86
  321.45        2981.75           2594        1493.00      6507.11
  321.48        2982.00           2598        1448.00      6310.86
  321.51        2982.25           2601        1423.00      6201.83
  321.54        2982.50           2605        1388.00      6049.20
  321.57        2982.75           2609        1424.00      6206.19
  321.60        2983.00           2612        1388.00      6049.20
  321.63        2983.25           2616        1401.00      6105.89
  321.66        2983.50           2619        1380.00      6014.31
  321.69        2983.75           2623        1423.00      6201.83
  321.72        2984.00           2626        1408.00      6136.42
HS scan finished at 05:21:57
end
************************************************************
  HS Scan of (1) Internal mercury lamp
************************************************************
Integration time is 0.2294 seconds per sample
dh010119Reading 51.44 .94 3.03pr1000
************************************************************
Dead Time -------------------------  3.4E-08 
Number of Cycles Used -------------  4 
Starting Wavelength (Angstroms) ---  2950 
Final Wavelength (Angstoms) -------  2984 
Wavelength Increment (Angstroms) --  .25 
Filter Wheel #1 Position ---------- (1) Ground quartz diffuser (ND=2.32)
Filter Wheel #2 Position ---------- (1) Neutral Density 0.494



************************************************************
HS scan start time = 17:07:27
Dark Count =  .8 


Time (GMT)  Wavelength (Ang)  Step Number  Raw Counts  Counts/Second

 1028.34        2950.00           2144        1423.00      6200.96
 1028.54        2950.25           2147        1442.00      6283.82
 1028.57        2950.50           2151        1436.00      6257.65
 1028.60        2950.75           2155        1436.00      6257.65
 1028.63        2951.00           2158        1436.00      6257.65
 1028.66        2951.25           2162        1464.00      6379.76
 1028.69        2951.50           2165        1457.00      6349.23
 1028.72        2951.75           2169        1439.00      6270.74
 1028.75        2952.00           2172        1432.00      6240.21
 1028.78        2952.25           2176        1453.00      6331.79
 1028.81        2952.50           2179        1459.00      6357.96
 1028.84        2952.75           2183        1484.00      6466.98
 1028.87        2953.00           2186        1483.00      6462.62
 1028.90        2953.25           2190        1460.00      6362.32
 1028.94        2953.50           2193        1506.00      6562.93
 1028.97        2953.75           2197        1460.00      6362.32
 1029.00        2954.00           2200        1523.00      6637.07
 1029.03        2954.25           2204        1496.00      6519.32
 1029.06        2954.50           2208        1501.00      6541.12
 1029.09        2954.75           2211        1503.00      6549.85
 1029.12        2955.00           2215        1535.00      6689.40
 1029.15        2955.25           2218        1546.00      6737.38
 1029.18        2955.50           2222        1527.00      6654.51
 1029.21        2955.75           2225        1596.00      6955.44
 1029.24        2956.00           2229        1579.00      6881.30
 1029.27        2956.25           2232        1553.00      6767.91
 1029.30        2956.50           2236        1549.00      6750.46
 1029.33        2956.75           2239        1593.00      6942.35
 1029.36        2957.00           2243        1605.00      6994.69
 1029.39        2957.25           2246        1623.00      7073.19
 1029.42        2957.50           2250        1602.00      6981.60
 1029.46        2957.75           2254        1627.00      7090.64
 1029.49        2958.00           2257        1612.00      7025.22
 1029.52        2958.25           2261        1666.00      7260.73
 1029.55        2958.50           2264        1709.00      7448.27
 1029.58        2958.75           2268        1687.00      7352.32
 1029.61        2959.00           2271        1728.00      7531.13
 1029.64        2959.25           2275        1767.00      7701.23
 1029.67        2959.50           2278        1742.00      7592.20
 1029.70        2959.75           2282        1741.00      7587.83
 1029.73        2960.00           2285        1796.00      7827.72
 1029.76        2960.25           2289        1834.00      7993.45
 1029.79        2960.50           2293        1858.00      8098.13
 1029.82        2960.75           2296        1901.00      8285.68
 1029.85        2961.00           2300        1942.00      8464.51
 1029.88        2961.25           2303        2324.00     10130.78
 1029.91        2961.50           2307        5919.00     25821.27
 1029.94        2961.75           2310       13848.00     60486.96
 1029.98        2962.00           2314       28995.00    126938.10
 1030.01        2962.25           2317       42778.00    187667.90
 1030.04        2962.50           2321       64521.00    283985.10
 1030.07        2962.75           2324       82115.00    362389.80
 1030.10        2963.00           2328      106377.00    471204.00
 1030.13        2963.25           2331      123597.00    548930.30
 1030.16        2963.50           2335      144848.00    645427.00
 1030.19        2963.75           2339      166414.00    744013.00
 1030.22        2964.00           2342      183087.00    820692.70
 1030.25        2964.25           2346      208055.00    936285.50
 1030.28        2964.50           2349      225596.00   1018050.00
 1030.31        2964.75           2353      247712.00   1121804.00
 1030.34        2965.00           2356      262385.00   1191054.00
 1030.37        2965.25           2360      282549.00   1286766.00
 1030.40        2965.50           2363      298671.00   1363753.00
 1030.43        2965.75           2367      318595.00   1459469.00
 1030.46        2966.00           2370      334306.00   1535400.00
 1030.50        2966.25           2374      353863.00   1630484.00
 1030.53        2966.50           2378      369151.00   1705256.00
 1030.56        2966.75           2381      374742.00   1732699.00
 1030.59        2967.00           2385      377001.00   1743802.00
 1030.62        2967.25           2388      376586.00   1741762.00
 1030.65        2967.50           2392      376898.00   1743296.00
 1030.68        2967.75           2395      376893.00   1743271.00
 1030.71        2968.00           2399      374244.00   1730252.00
 1030.74        2968.25           2402      366440.00   1691968.00
 1030.77        2968.50           2406      349301.00   1608247.00
 1030.80        2968.75           2409      335395.00   1540678.00
 1030.83        2969.00           2413      316458.00   1449172.00
 1030.86        2969.25           2417      295873.00   1350362.00
 1030.89        2969.50           2420      278975.00   1269755.00
 1030.92        2969.75           2424      257489.00   1167910.00
 1030.95        2970.00           2427      240339.00   1087131.00
 1030.98        2970.25           2431      218769.00    986171.90
 1031.02        2970.50           2434      202058.00    908437.30
 1031.05        2970.75           2438      179924.00    806114.80
 1031.08        2971.00           2441      162661.00    726808.50
 1031.11        2971.25           2445      139507.00    621114.30
 1031.14        2971.50           2449      115208.00    511012.90
 1031.17        2971.75           2452       96096.00    424995.00
 1031.20        2972.00           2456       72286.00    318536.70
 1031.23        2972.25           2459       55318.00    243140.30
 1031.26        2972.50           2463       35178.00    154150.20
 1031.29        2972.75           2466       21710.00     94940.66
 1031.32        2973.00           2470        7808.00     34072.58
 1031.35        2973.25           2473        3348.00     14598.35
 1031.38        2973.50           2477        2075.00      9044.63
 1031.41        2973.75           2481        1926.00      8394.72
 1031.44        2974.00           2484        1883.00      8207.17
 1031.47        2974.25           2488        1868.00      8141.75
 1031.50        2974.50           2491        1815.00      7910.59
 1031.53        2974.75           2495        1798.00      7836.44
 1031.57        2975.00           2498        1762.00      7679.43
 1031.60        2975.25           2502        1720.00      7496.24
 1031.63        2975.50           2505        1709.00      7448.27
 1031.66        2975.75           2509        1695.00      7387.21
 1031.69        2976.00           2512        1658.00      7225.84
 1031.72        2976.25           2516        1648.00      7182.22
 1031.75        2976.50           2520        1613.00      7029.58
 1031.78        2976.75           2523        1657.00      7221.48
 1031.81        2977.00           2527        1619.00      7055.75
 1031.84        2977.25           2530        1600.00      6972.88
 1031.87        2977.50           2534        1594.00      6946.72
 1031.90        2977.75           2537        1535.00      6689.40
 1031.93        2978.00           2541        1541.00      6715.57
 1031.96        2978.25           2544        1525.00      6645.79
 1031.99        2978.50           2548        1543.00      6724.29
 1032.02        2978.75           2552        1522.00      6632.71
 1032.05        2979.00           2555        1489.00      6488.79
 1032.09        2979.25           2559        1487.00      6480.07
 1032.12        2979.50           2562        1468.00      6397.21
 1032.15        2979.75           2566        1443.00      6288.18
 1032.18        2980.00           2569        1481.00      6453.90
 1032.21        2980.25           2573        1459.00      6357.96
 1032.24        2980.50           2577        1460.00      6362.32
 1032.27        2980.75           2580        1413.00      6157.35
 1032.30        2981.00           2584        1388.00      6048.32
 1032.33        2981.25           2587        1459.00      6357.96
 1032.36        2981.50           2591        1413.00      6157.35
 1032.39        2981.75           2594        1408.00      6135.54
 1032.42        2982.00           2598        1402.00      6109.38
 1032.45        2982.25           2601        1424.00      6205.32
 1032.48        2982.50           2605        1380.00      6013.43
 1032.51        2982.75           2609        1346.00      5865.16
 1032.54        2983.00           2612        1353.00      5895.69
 1032.57        2983.25           2616        1392.00      6065.77
 1032.61        2983.50           2619        1391.00      6061.41
 1032.64        2983.75           2623        1368.00      5961.10
 1032.67        2984.00           2626        1342.00      5847.72
HS scan finished at 17:12:53
end
