************************************************************
  HS Scan of (1) Internal mercury lamp
************************************************************
Integration time is 0.2294 seconds per sample
dh010118Reading 51.44 .94 2.56pr1000
************************************************************
Dead Time -------------------------  3.4E-08 
Number of Cycles Used -------------  4 
Starting Wavelength (Angstroms) ---  2950 
Final Wavelength (Angstoms) -------  2984 
Wavelength Increment (Angstroms) --  .25 
Filter Wheel #1 Position ---------- (1) Ground quartz diffuser (ND=2.32)
Filter Wheel #2 Position ---------- (1) Neutral Density 0.494



************************************************************
HS scan start time = 05:16:32
Dark Count =  .5 


Time (GMT)  Wavelength (Ang)  Step Number  Raw Counts  Counts/Second

  317.43        2950.00           2144          97.00       420.67
  317.62        2950.25           2147          81.00       350.92
  317.65        2950.50           2151          87.00       377.08
  317.68        2950.75           2155          86.00       372.72
  317.71        2951.00           2158          92.00       398.87
  317.74        2951.25           2162          90.00       390.15
  317.77        2951.50           2165          89.00       385.79
  317.80        2951.75           2169          89.00       385.79
  317.83        2952.00           2172          93.00       403.23
  317.86        2952.25           2176          90.00       390.15
  317.89        2952.50           2179          92.00       398.87
  317.92        2952.75           2183          93.00       403.23
  317.95        2953.00           2186          86.00       372.72
  317.99        2953.25           2190          91.00       394.51
  318.02        2953.50           2193          81.00       350.92
  318.05        2953.75           2197          90.00       390.15
  318.08        2954.00           2200          94.00       407.59
  318.11        2954.25           2204          84.00       364.00
  318.14        2954.50           2208          92.00       398.87
  318.17        2954.75           2211          88.00       381.43
  318.20        2955.00           2215          95.00       411.95
  318.23        2955.25           2218          93.00       403.23
  318.26        2955.50           2222          98.00       425.03
  318.29        2955.75           2225         111.00       481.70
  318.32        2956.00           2229         100.00       433.75
  318.35        2956.25           2232          88.00       381.43
  318.38        2956.50           2236         101.00       438.11
  318.41        2956.75           2239          99.00       429.39
  318.44        2957.00           2243          99.00       429.39
  318.47        2957.25           2246          96.00       416.31
  318.51        2957.50           2250          91.00       394.51
  318.54        2957.75           2254         108.00       468.62
  318.57        2958.00           2257         102.00       442.47
  318.60        2958.25           2261         101.00       438.11
  318.63        2958.50           2264         102.00       442.47
  318.66        2958.75           2268          98.00       425.03
  318.69        2959.00           2271         124.00       538.37
  318.72        2959.25           2275         131.00       568.89
  318.75        2959.50           2278         115.00       499.14
  318.78        2959.75           2282         131.00       568.89
  318.81        2960.00           2285         119.00       516.57
  318.84        2960.25           2289         131.00       568.89
  318.87        2960.50           2293         132.00       573.25
  318.90        2960.75           2296         116.00       503.50
  318.93        2961.00           2300         140.00       608.12
  318.96        2961.25           2303         235.00      1022.27
  318.99        2961.50           2307         774.00      3372.23
  319.03        2961.75           2310        1509.00      6577.32
  319.06        2962.00           2314        2808.00     12243.54
  319.09        2962.25           2317        3847.00     16777.22
  319.12        2962.50           2321        5332.00     23259.45
  319.15        2962.75           2324        6416.00     27993.07
  319.18        2963.00           2328        7791.00     33999.61
  319.21        2963.25           2331        8859.00     38666.76
  319.24        2963.50           2335       10369.00     45267.96
  319.27        2963.75           2339       11813.00     51583.42
  319.30        2964.00           2342       12910.00     56383.06
  319.33        2964.25           2346       14547.00     63548.23
  319.36        2964.50           2349       15753.00     68829.15
  319.39        2964.75           2353       17388.00     75991.65
  319.42        2965.00           2356       18286.00     79927.03
  319.45        2965.25           2360       19805.00     86586.27
  319.48        2965.50           2363       20680.00     90423.62
  319.51        2965.75           2367       22077.00     96552.28
  319.55        2966.00           2370       23518.00    102876.70
  319.58        2966.25           2374       24582.00    107548.20
  319.61        2966.50           2378       25374.00    111026.40
  319.64        2966.75           2381       25317.00    110776.10
  319.67        2967.00           2385       25301.00    110705.80
  319.70        2967.25           2388       25155.00    110064.60
  319.73        2967.50           2392       25291.00    110661.90
  319.76        2967.75           2395       25061.00    109651.70
  319.79        2968.00           2399       24028.00    105115.60
  319.82        2968.25           2402       23259.00    101739.70
  319.85        2968.50           2406       22189.00     97043.74
  319.88        2968.75           2409       21246.00     92906.35
  319.91        2969.00           2413       20260.00     88581.56
  319.94        2969.25           2417       18582.00     81224.44
  319.97        2969.50           2420       17536.00     76640.16
  320.00        2969.75           2424       15778.00     68938.65
  320.03        2970.00           2427       14464.00     63184.85
  320.07        2970.25           2431       12902.00     56348.05
  320.10        2970.50           2434       11718.00     51167.84
  320.13        2970.75           2438       10261.00     44795.73
  320.16        2971.00           2441        9174.00     40043.59
  320.19        2971.25           2445        7645.00     33361.71
  320.22        2971.50           2449        6209.00     27089.02
  320.25        2971.75           2452        5125.00     22355.70
  320.28        2972.00           2456        3771.00     16445.55
  320.31        2972.25           2459        2817.00     12282.81
  320.34        2972.50           2463        1389.00      6053.99
  320.37        2972.75           2466         682.00      2971.09
  320.40        2973.00           2470         223.00       969.95
  320.43        2973.25           2473         153.00       664.79
  320.46        2973.50           2477         149.00       647.36
  320.49        2973.75           2481         131.00       568.89
  320.52        2974.00           2484         112.00       486.06
  320.55        2974.25           2488         124.00       538.37
  320.59        2974.50           2491         114.00       494.78
  320.62        2974.75           2495         142.00       616.84
  320.65        2975.00           2498         142.00       616.84
  320.68        2975.25           2502         118.00       512.21
  320.71        2975.50           2505         105.00       455.54
  320.74        2975.75           2509         100.00       433.75
  320.77        2976.00           2512         106.00       459.90
  320.80        2976.25           2516         101.00       438.11
  320.83        2976.50           2520         131.00       568.89
  320.86        2976.75           2523         103.00       446.82
  320.89        2977.00           2527          99.00       429.39
  320.92        2977.25           2530         114.00       494.78
  320.95        2977.50           2534          94.00       407.59
  320.98        2977.75           2537          93.00       403.23
  321.01        2978.00           2541         100.00       433.75
  321.04        2978.25           2544          96.00       416.31
  321.07        2978.50           2548         114.00       494.78
  321.11        2978.75           2552         104.00       451.18
  321.14        2979.00           2555          89.00       385.79
  321.17        2979.25           2559          87.00       377.08
  321.20        2979.50           2562          92.00       398.87
  321.23        2979.75           2566          91.00       394.51
  321.26        2980.00           2569          92.00       398.87
  321.29        2980.25           2573          80.00       346.56
  321.32        2980.50           2577          78.00       337.84
  321.35        2980.75           2580          87.00       377.08
  321.38        2981.00           2584          86.00       372.72
  321.41        2981.25           2587          82.00       355.28
  321.44        2981.50           2591          82.00       355.28
  321.47        2981.75           2594          80.00       346.56
  321.50        2982.00           2598          85.00       368.36
  321.53        2982.25           2601          87.00       377.08
  321.56        2982.50           2605          80.00       346.56
  321.59        2982.75           2609          87.00       377.08
  321.63        2983.00           2612          89.00       385.79
  321.66        2983.25           2616          80.00       346.56
  321.69        2983.50           2619         109.00       472.98
  321.72        2983.75           2623          84.00       364.00
  321.75        2984.00           2626          88.00       381.43
HS scan finished at 05:21:58
end
************************************************************
  HS Scan of (1) Internal mercury lamp
************************************************************
Integration time is 0.2294 seconds per sample
dh010118Reading 51.44 .94 2.84pr1000
************************************************************
Dead Time -------------------------  3.4E-08 
Number of Cycles Used -------------  4 
Starting Wavelength (Angstroms) ---  2950 
Final Wavelength (Angstoms) -------  2984 
Wavelength Increment (Angstroms) --  .25 
Filter Wheel #1 Position ---------- (1) Ground quartz diffuser (ND=2.32)
Filter Wheel #2 Position ---------- (1) Neutral Density 0.494



************************************************************
HS scan start time = 17:07:28
Dark Count =  .5 


Time (GMT)  Wavelength (Ang)  Step Number  Raw Counts  Counts/Second

 1028.37        2950.00           2144          92.00       398.87
 1028.56        2950.25           2147          76.00       329.12
 1028.59        2950.50           2151          87.00       377.08
 1028.62        2950.75           2155          83.00       359.64
 1028.65        2951.00           2158          85.00       368.36
 1028.68        2951.25           2162          79.00       342.20
 1028.71        2951.50           2165          89.00       385.79
 1028.74        2951.75           2169          78.00       337.84
 1028.77        2952.00           2172          88.00       381.43
 1028.80        2952.25           2176          77.00       333.48
 1028.83        2952.50           2179          85.00       368.36
 1028.86        2952.75           2183          80.00       346.56
 1028.89        2953.00           2186          88.00       381.43
 1028.93        2953.25           2190          86.00       372.72
 1028.96        2953.50           2193          83.00       359.64
 1028.99        2953.75           2197          90.00       390.15
 1029.02        2954.00           2200          83.00       359.64
 1029.05        2954.25           2204          82.00       355.28
 1029.08        2954.50           2208          87.00       377.08
 1029.11        2954.75           2211         124.00       538.37
 1029.14        2955.00           2215          90.00       390.15
 1029.17        2955.25           2218         105.00       455.54
 1029.20        2955.50           2222          82.00       355.28
 1029.23        2955.75           2225          82.00       355.28
 1029.26        2956.00           2229          81.00       350.92
 1029.29        2956.25           2232          83.00       359.64
 1029.32        2956.50           2236          89.00       385.79
 1029.35        2956.75           2239          89.00       385.79
 1029.38        2957.00           2243          87.00       377.08
 1029.41        2957.25           2246          94.00       407.59
 1029.45        2957.50           2250          88.00       381.43
 1029.48        2957.75           2254          91.00       394.51
 1029.51        2958.00           2257          97.00       420.67
 1029.54        2958.25           2261          93.00       403.23
 1029.57        2958.50           2264         102.00       442.47
 1029.60        2958.75           2268          93.00       403.23
 1029.63        2959.00           2271         102.00       442.47
 1029.66        2959.25           2275         100.00       433.75
 1029.69        2959.50           2278         103.00       446.82
 1029.72        2959.75           2282         105.00       455.54
 1029.75        2960.00           2285         122.00       529.65
 1029.78        2960.25           2289         107.00       464.26
 1029.81        2960.50           2293         113.00       490.42
 1029.84        2960.75           2296         139.00       603.76
 1029.87        2961.00           2300         154.00       669.15
 1029.90        2961.25           2303         281.00      1222.81
 1029.93        2961.50           2307        1059.00      4614.93
 1029.97        2961.75           2310        1878.00      8186.67
 1030.00        2962.00           2314        3117.00     13591.72
 1030.03        2962.25           2317        4070.00     17750.47
 1030.06        2962.50           2321        5446.00     23757.20
 1030.09        2962.75           2324        6496.00     28342.47
 1030.12        2963.00           2328        8173.00     35668.78
 1030.15        2963.25           2331        9246.00     40358.31
 1030.18        2963.50           2335       10663.00     46553.58
 1030.21        2963.75           2339       11849.00     51740.90
 1030.24        2964.00           2342       13092.00     57179.50
 1030.27        2964.25           2346       14582.00     63701.46
 1030.30        2964.50           2349       15660.00     68421.85
 1030.33        2964.75           2353       17108.00     74764.79
 1030.36        2965.00           2356       18325.00     80097.96
 1030.39        2965.25           2360       19507.00     85279.60
 1030.42        2965.50           2363       20461.00     89463.09
 1030.45        2965.75           2367       21843.00     95525.53
 1030.49        2966.00           2370       23018.00    100681.90
 1030.52        2966.25           2374       24152.00    105660.10
 1030.55        2966.50           2378       24848.00    108716.30
 1030.58        2966.75           2381       24771.00    108378.10
 1030.61        2967.00           2385       24767.00    108360.60
 1030.64        2967.25           2388       25023.00    109484.80
 1030.67        2967.50           2392       24576.00    107521.80
 1030.70        2967.75           2395       24813.00    108562.60
 1030.73        2968.00           2399       24507.00    107218.80
 1030.76        2968.25           2402       23719.00    103759.00
 1030.79        2968.50           2406       22217.00     97166.60
 1030.82        2968.75           2409       21017.00     91901.81
 1030.85        2969.00           2413       19948.00     87213.33
 1030.88        2969.25           2417       18542.00     81049.11
 1030.91        2969.50           2420       17400.00     76044.23
 1030.94        2969.75           2424       15919.00     69556.19
 1030.97        2970.00           2427       14591.00     63740.87
 1031.01        2970.25           2431       13187.00     57595.24
 1031.04        2970.50           2434       11931.00     52099.62
 1031.07        2970.75           2438       10308.00     45001.24
 1031.10        2971.00           2441        9158.00     39973.65
 1031.13        2971.25           2445        7695.00     33580.17
 1031.16        2971.50           2449        5997.00     26163.19
 1031.19        2971.75           2452        4889.00     21325.40
 1031.22        2972.00           2456        3450.00     15044.75
 1031.25        2972.25           2459        2477.00     10799.52
 1031.28        2972.50           2463        1345.00      5862.11
 1031.31        2972.75           2466         669.00      2914.41
 1031.34        2973.00           2470         219.00       952.52
 1031.37        2973.25           2473         143.00       621.20
 1031.40        2973.50           2477         133.00       577.61
 1031.43        2973.75           2481         111.00       481.70
 1031.46        2974.00           2484         136.00       590.68
 1031.49        2974.25           2488         105.00       455.54
 1031.52        2974.50           2491         108.00       468.62
 1031.56        2974.75           2495         108.00       468.62
 1031.59        2975.00           2498         124.00       538.37
 1031.62        2975.25           2502         136.00       590.68
 1031.65        2975.50           2505         103.00       446.82
 1031.68        2975.75           2509         112.00       486.06
 1031.71        2976.00           2512          94.00       407.59
 1031.74        2976.25           2516         104.00       451.18
 1031.77        2976.50           2520          89.00       385.79
 1031.80        2976.75           2523         104.00       451.18
 1031.83        2977.00           2527          92.00       398.87
 1031.86        2977.25           2530          89.00       385.79
 1031.89        2977.50           2534          98.00       425.03
 1031.92        2977.75           2537          88.00       381.43
 1031.95        2978.00           2541         108.00       468.62
 1031.98        2978.25           2544          91.00       394.51
 1032.01        2978.50           2548          92.00       398.87
 1032.04        2978.75           2552          87.00       377.08
 1032.08        2979.00           2555          86.00       372.72
 1032.11        2979.25           2559          85.00       368.36
 1032.14        2979.50           2562          80.00       346.56
 1032.17        2979.75           2566          79.00       342.20
 1032.20        2980.00           2569          81.00       350.92
 1032.23        2980.25           2573          77.00       333.48
 1032.26        2980.50           2577          80.00       346.56
 1032.29        2980.75           2580          85.00       368.36
 1032.32        2981.00           2584          80.00       346.56
 1032.35        2981.25           2587          78.00       337.84
 1032.38        2981.50           2591          84.00       364.00
 1032.41        2981.75           2594          81.00       350.92
 1032.44        2982.00           2598          79.00       342.20
 1032.47        2982.25           2601          88.00       381.43
 1032.50        2982.50           2605          85.00       368.36
 1032.53        2982.75           2609          84.00       364.00
 1032.56        2983.00           2612          86.00       372.72
 1032.60        2983.25           2616          82.00       355.28
 1032.63        2983.50           2619          78.00       337.84
 1032.66        2983.75           2623          80.00       346.56
 1032.69        2984.00           2626          84.00       364.00
HS scan finished at 17:12:55
end
