************************************************************
  HS Scan of 
************************************************************
Integration time is 0.2294 seconds per sample
dh070117Reading 51.44 .94 2.9pr1000
************************************************************
Dead Time -------------------------  3.4E-08 
Number of Cycles Used -------------  4 
Starting Wavelength (Angstroms) ---  2950 
Final Wavelength (Angstoms) -------  2984 
Wavelength Increment (Angstroms) --  .25 
Filter Wheel #1 Position ---------- (1) Ground quartz diffuser (ND=2.32)
Filter Wheel #2 Position ---------- (1) Neutral Density 0.494



************************************************************
HS scan start time = 05:16:16
Dark Count =  .6 


Time (GMT)  Wavelength (Ang)  Step Number  Raw Counts  Counts/Second

  317.16        2950.00           2144         815.00      3550.56
  317.36        2950.25           2147         815.00      3550.56
  317.39        2950.50           2151         799.00      3480.80
  317.42        2950.75           2155         816.00      3554.92
  317.45        2951.00           2158         863.00      3759.85
  317.48        2951.25           2162         823.00      3585.44
  317.51        2951.50           2165         835.00      3637.77
  317.54        2951.75           2169         833.00      3629.04
  317.57        2952.00           2172         817.00      3559.28
  317.60        2952.25           2176         825.00      3594.16
  317.63        2952.50           2179         847.00      3690.09
  317.66        2952.75           2183         847.00      3690.09
  317.69        2953.00           2186         828.00      3607.24
  317.72        2953.25           2190         839.00      3655.21
  317.75        2953.50           2193         860.00      3746.77
  317.78        2953.75           2197         814.00      3546.20
  317.81        2954.00           2200         849.00      3698.81
  317.85        2954.25           2204         878.00      3825.26
  317.88        2954.50           2208         892.00      3886.30
  317.91        2954.75           2211         892.00      3886.30
  317.94        2955.00           2215         901.00      3925.55
  317.97        2955.25           2218         894.00      3895.02
  318.00        2955.50           2222         926.00      4034.56
  318.03        2955.75           2225         943.00      4108.68
  318.06        2956.00           2229         909.00      3960.43
  318.09        2956.25           2232         919.00      4004.03
  318.12        2956.50           2236         924.00      4025.83
  318.15        2956.75           2239         892.00      3886.30
  318.18        2957.00           2243         971.00      4230.77
  318.21        2957.25           2246         933.00      4065.08
  318.24        2957.50           2250         929.00      4047.64
  318.27        2957.75           2254         939.00      4091.24
  318.30        2958.00           2257         964.00      4200.25
  318.33        2958.25           2261         979.00      4265.66
  318.37        2958.50           2264         973.00      4239.50
  318.40        2958.75           2268         997.00      4344.15
  318.43        2959.00           2271        1023.00      4457.52
  318.46        2959.25           2275         997.00      4344.15
  318.49        2959.50           2278        1021.00      4448.80
  318.52        2959.75           2282        1082.00      4714.79
  318.55        2960.00           2285        1025.00      4466.24
  318.58        2960.25           2289        1066.00      4645.02
  318.61        2960.50           2293        1111.00      4841.25
  318.64        2960.75           2296        1143.00      4980.79
  318.67        2961.00           2300        1212.00      5281.68
  318.71        2961.25           2303        1549.00      6751.33
  318.74        2961.50           2307        5370.00     23424.93
  318.77        2961.75           2310       12162.00     53109.77
  318.80        2962.00           2314       24108.00    105466.40
  318.83        2962.25           2317       33917.00    148597.20
  318.86        2962.50           2321       47112.00    206817.10
  318.89        2962.75           2324       57014.00    250659.90
  318.92        2963.00           2328       70889.00    312315.40
  318.95        2963.25           2331       81712.00    360590.00
  318.98        2963.50           2335       96290.00    425866.50
  319.01        2963.75           2339      110077.00    487870.70
  319.04        2964.00           2342      119533.00    530550.10
  319.08        2964.25           2346      133179.00    592362.10
  319.11        2964.50           2349      144260.00    642749.30
  319.14        2964.75           2353      158310.00    706889.10
  319.17        2965.00           2356      168178.00    752107.50
  319.20        2965.25           2360      181000.00    811073.20
  319.23        2965.50           2363      189943.00    852342.70
  319.26        2965.75           2367      202622.00    911054.90
  319.29        2966.00           2370      211992.00    954597.90
  319.32        2966.25           2374      224499.00   1012924.00
  319.35        2966.50           2378      233458.00   1054849.00
  319.38        2966.75           2381      235349.00   1063714.00
  319.41        2967.00           2385      236824.00   1070632.00
  319.44        2967.25           2388      236820.00   1070613.00
  319.47        2967.50           2392      237092.00   1071889.00
  319.50        2967.75           2395      237321.00   1072964.00
  319.53        2968.00           2399      233891.00   1056878.00
  319.56        2968.25           2402      227636.00   1027590.00
  319.60        2968.50           2406      215189.00    969484.60
  319.63        2968.75           2409      204850.00    921396.80
  319.66        2969.00           2413      191785.00    860857.60
  319.69        2969.25           2417      179104.00    802338.80
  319.72        2969.50           2420      170105.00    760954.10
  319.75        2969.75           2424      156746.00    699735.10
  319.78        2970.00           2427      144524.00    643951.90
  319.81        2970.25           2431      128588.00    571537.00
  319.84        2970.50           2434      117891.00    523130.00
  319.87        2970.75           2438      103461.00    458083.70
  319.90        2971.00           2441       93614.00    413862.10
  319.93        2971.25           2445       79368.00    350121.40
  319.96        2971.50           2449       65544.00    288533.40
  319.99        2971.75           2452       54433.00    239219.40
  320.02        2972.00           2456       40003.00    175421.50
  320.05        2972.25           2459       29706.00    130065.60
  320.08        2972.50           2463       16887.00     73796.10
  320.11        2972.75           2466        8618.00     37613.02
  320.15        2973.00           2470        2972.00     12958.63
  320.18        2973.25           2473        1611.00      7021.73
  320.21        2973.50           2477        1251.00      5451.75
  320.24        2973.75           2481        1133.00      4937.18
  320.27        2974.00           2484        1147.00      4998.23
  320.30        2974.25           2488        1100.00      4793.28
  320.33        2974.50           2491        1107.00      4823.81
  320.36        2974.75           2495        1088.00      4740.96
  320.39        2975.00           2498        1068.00      4653.74
  320.42        2975.25           2502        1042.00      4540.37
  320.45        2975.50           2505        1030.00      4488.04
  320.48        2975.75           2509        1028.00      4479.32
  320.51        2976.00           2512        1006.00      4383.39
  320.54        2976.25           2516        1017.00      4431.36
  320.57        2976.50           2520         963.00      4195.89
  320.60        2976.75           2523         959.00      4178.45
  320.64        2977.00           2527         990.00      4313.62
  320.67        2977.25           2530         940.00      4095.60
  320.70        2977.50           2534         962.00      4191.53
  320.73        2977.75           2537         946.00      4121.76
  320.76        2978.00           2541         911.00      3969.15
  320.79        2978.25           2544         937.00      4082.52
  320.82        2978.50           2548         925.00      4030.20
  320.85        2978.75           2552         913.00      3977.87
  320.88        2979.00           2555         881.00      3838.34
  320.91        2979.25           2559         900.00      3921.19
  320.94        2979.50           2562         881.00      3838.34
  320.97        2979.75           2566         879.00      3829.62
  321.00        2980.00           2569         880.00      3833.98
  321.03        2980.25           2573         847.00      3690.09
  321.06        2980.50           2577         874.00      3807.82
  321.09        2980.75           2580         876.00      3816.54
  321.12        2981.00           2584         847.00      3690.09
  321.15        2981.25           2587         848.00      3694.45
  321.19        2981.50           2591         830.00      3615.96
  321.22        2981.75           2594         859.00      3742.41
  321.25        2982.00           2598         860.00      3746.77
  321.28        2982.25           2601         829.00      3611.60
  321.31        2982.50           2605         814.00      3546.20
  321.34        2982.75           2609         833.00      3629.04
  321.37        2983.00           2612         797.00      3472.08
  321.40        2983.25           2616         822.00      3581.08
  321.43        2983.50           2619         848.00      3694.45
  321.46        2983.75           2623         786.00      3424.11
  321.49        2984.00           2626         790.00      3441.55
HS scan finished at 05:21:43
end
************************************************************
  HS Scan of 
************************************************************
Integration time is 0.2294 seconds per sample
dh070117Reading 51.44 .94 3.15pr1000
************************************************************
Dead Time -------------------------  3.4E-08 
Number of Cycles Used -------------  4 
Starting Wavelength (Angstroms) ---  2950 
Final Wavelength (Angstoms) -------  2984 
Wavelength Increment (Angstroms) --  .25 
Filter Wheel #1 Position ---------- (1) Ground quartz diffuser (ND=2.32)
Filter Wheel #2 Position ---------- (1) Neutral Density 0.494



************************************************************
HS scan start time = 17:07:16
Dark Count =  1.3 


Time (GMT)  Wavelength (Ang)  Step Number  Raw Counts  Counts/Second

 1028.17        2950.00           2144         770.00      3351.30
 1028.36        2950.25           2147         755.00      3285.89
 1028.40        2950.50           2151         751.00      3268.45
 1028.43        2950.75           2155         739.00      3216.13
 1028.46        2951.00           2158         798.00      3473.38
 1028.49        2951.25           2162         787.00      3425.42
 1028.52        2951.50           2165         773.00      3364.38
 1028.55        2951.75           2169         773.00      3364.38
 1028.58        2952.00           2172         761.00      3312.06
 1028.61        2952.25           2176         809.00      3521.35
 1028.64        2952.50           2179         761.00      3312.06
 1028.67        2952.75           2183         795.00      3460.30
 1028.70        2953.00           2186         807.00      3512.63
 1028.73        2953.25           2190         797.00      3469.02
 1028.76        2953.50           2193         769.00      3346.94
 1028.79        2953.75           2197         821.00      3573.67
 1028.82        2954.00           2200         794.00      3455.94
 1028.85        2954.25           2204         797.00      3469.02
 1028.88        2954.50           2208         789.00      3434.14
 1028.92        2954.75           2211         814.00      3543.15
 1028.95        2955.00           2215         833.00      3625.99
 1028.98        2955.25           2218         799.00      3477.74
 1029.01        2955.50           2222         819.00      3564.95
 1029.04        2955.75           2225         845.00      3678.32
 1029.07        2956.00           2229         855.00      3721.92
 1029.10        2956.25           2232         839.00      3652.15
 1029.13        2956.50           2236         828.00      3604.19
 1029.16        2956.75           2239         840.00      3656.51
 1029.19        2957.00           2243         870.00      3787.32
 1029.22        2957.25           2246         885.00      3852.73
 1029.25        2957.50           2250         865.00      3765.52
 1029.28        2957.75           2254         855.00      3721.92
 1029.31        2958.00           2257         914.00      3979.18
 1029.34        2958.25           2261         898.00      3909.41
 1029.37        2958.50           2264         903.00      3931.21
 1029.40        2958.75           2268         923.00      4018.42
 1029.44        2959.00           2271         918.00      3996.62
 1029.47        2959.25           2275         935.00      4070.75
 1029.50        2959.50           2278         956.00      4162.32
 1029.53        2959.75           2282         966.00      4205.92
 1029.56        2960.00           2285         969.00      4219.00
 1029.59        2960.25           2289         993.00      4323.65
 1029.62        2960.50           2293        1017.00      4428.30
 1029.65        2960.75           2296        1055.00      4594.00
 1029.68        2961.00           2300        1162.00      5060.59
 1029.71        2961.25           2303        1623.00      7071.01
 1029.74        2961.50           2307        5939.00     25906.42
 1029.77        2961.75           2310       12583.00     54948.69
 1029.80        2962.00           2314       22989.00    100551.10
 1029.83        2962.25           2317       31356.00    137321.00
 1029.86        2962.50           2321       42844.00    187957.10
 1029.89        2962.75           2324       51840.00    227731.70
 1029.92        2963.00           2328       64273.00    282880.80
 1029.96        2963.25           2331       74293.00    327478.30
 1029.99        2963.50           2335       87354.00    385815.70
 1030.02        2963.75           2339      100151.00    443200.90
 1030.05        2964.00           2342      108855.00    482361.20
 1030.08        2964.25           2346      120985.00    537111.50
 1030.11        2964.50           2349      130229.00    578974.10
 1030.14        2964.75           2353      142516.00    634804.20
 1030.17        2965.00           2356      152135.00    678661.40
 1030.20        2965.25           2360      163746.00    731777.90
 1030.23        2965.50           2363      171403.00    766912.80
 1030.26        2965.75           2367      183098.00    820741.10
 1030.29        2966.00           2370      191748.00    860683.30
 1030.32        2966.25           2374      203340.00    914383.60
 1030.35        2966.50           2378      210459.00    947461.80
 1030.38        2966.75           2381      212216.00    955637.10
 1030.41        2967.00           2385      212933.00    958974.80
 1030.44        2967.25           2388      212803.00    958369.50
 1030.47        2967.50           2392      213070.00    959612.50
 1030.51        2967.75           2395      212583.00    957345.40
 1030.54        2968.00           2399      210174.00    946136.00
 1030.57        2968.25           2402      204471.00    919633.80
 1030.60        2968.50           2406      194155.00    871817.40
 1030.63        2968.75           2409      184368.00    826598.60
 1030.66        2969.00           2413      171496.00    767340.10
 1030.69        2969.25           2417      158842.00    709320.00
 1030.72        2969.50           2420      149738.00    667720.00
 1030.75        2969.75           2424      137069.00    610027.50
 1030.79        2970.00           2427      126636.00    562688.50
 1030.83        2970.25           2431      112817.00    500221.70
 1030.86        2970.50           2434      103379.00    457711.70
 1030.89        2970.75           2438       90511.00    399951.60
 1030.92        2971.00           2441       80648.00    355834.00
 1030.95        2971.25           2445       68619.00    302207.50
 1030.98        2971.50           2449       56773.00    249588.10
 1031.01        2971.75           2452       47557.00    208781.50
 1031.04        2972.00           2456       35551.00    155791.20
 1031.07        2972.25           2459       26107.00    114242.80
 1031.10        2972.50           2463       13984.00     61080.08
 1031.13        2972.75           2466        6624.00     28898.04
 1031.16        2973.00           2470        2329.00     10150.41
 1031.19        2973.25           2473        1363.00      5937.12
 1031.22        2973.50           2477        1122.00      4886.17
 1031.26        2973.75           2481        1054.00      4589.64
 1031.29        2974.00           2484        1035.00      4506.79
 1031.32        2974.25           2488        1007.00      4384.70
 1031.35        2974.50           2491        1030.00      4484.99
 1031.38        2974.75           2495        1015.00      4419.58
 1031.41        2975.00           2498         986.00      4293.13
 1031.44        2975.25           2502         976.00      4249.52
 1031.47        2975.50           2505         975.00      4245.16
 1031.50        2975.75           2509         950.00      4136.15
 1031.53        2976.00           2512         940.00      4092.55
 1031.56        2976.25           2516         903.00      3931.21
 1031.59        2976.50           2520         902.00      3926.85
 1031.62        2976.75           2523         886.00      3857.09
 1031.65        2977.00           2527         852.00      3708.84
 1031.68        2977.25           2530         912.00      3970.46
 1031.71        2977.50           2534         871.00      3791.68
 1031.74        2977.75           2537         906.00      3944.30
 1031.78        2978.00           2541         857.00      3730.64
 1031.81        2978.25           2544         843.00      3669.60
 1031.84        2978.50           2548         888.00      3865.81
 1031.87        2978.75           2552         842.00      3665.23
 1031.90        2979.00           2555         824.00      3586.75
 1031.93        2979.25           2559         824.00      3586.75
 1031.96        2979.50           2562         804.00      3499.54
 1031.99        2979.75           2566         796.00      3464.66
 1032.02        2980.00           2569         826.00      3595.47
 1032.05        2980.25           2573         781.00      3399.26
 1032.08        2980.50           2577         796.00      3464.66
 1032.11        2980.75           2580         791.00      3442.86
 1032.14        2981.00           2584         793.00      3451.58
 1032.17        2981.25           2587         804.00      3499.54
 1032.20        2981.50           2591         769.00      3346.94
 1032.23        2981.75           2594         803.00      3495.18
 1032.26        2982.00           2598         782.00      3403.62
 1032.29        2982.25           2601         759.00      3303.34
 1032.33        2982.50           2605         795.00      3460.30
 1032.36        2982.75           2609         764.00      3325.14
 1032.39        2983.00           2612         744.00      3237.93
 1032.42        2983.25           2616         777.00      3381.82
 1032.45        2983.50           2619         766.00      3333.86
 1032.48        2983.75           2623         730.00      3176.89
 1032.51        2984.00           2626         753.00      3277.17
HS scan finished at 17:12:44
end
