************************************************************
  HS Scan of (1) Internal mercury lamp
************************************************************
Integration time is 0.2294 seconds per sample
dh070118Reading 51.44 .94 2.39pr1000
************************************************************
Dead Time -------------------------  3.4E-08 
Number of Cycles Used -------------  4 
Starting Wavelength (Angstroms) ---  2950 
Final Wavelength (Angstoms) -------  2984 
Wavelength Increment (Angstroms) --  .25 
Filter Wheel #1 Position ---------- (1) Ground quartz diffuser (ND=2.32)
Filter Wheel #2 Position ---------- (1) Neutral Density 0.494



************************************************************
HS scan start time = 05:19:14
Dark Count =  .3 


Time (GMT)  Wavelength (Ang)  Step Number  Raw Counts  Counts/Second

  320.13        2950.00           2144          88.00       382.31
  320.32        2950.25           2147          91.00       395.38
  320.35        2950.50           2151         129.00       561.04
  320.38        2950.75           2155          93.00       404.10
  320.41        2951.00           2158          92.00       399.74
  320.44        2951.25           2162          92.00       399.74
  320.47        2951.50           2165         119.00       517.45
  320.50        2951.75           2169          99.00       430.26
  320.54        2952.00           2172          96.00       417.18
  320.57        2952.25           2176          93.00       404.10
  320.60        2952.50           2179          92.00       399.74
  320.63        2952.75           2183          95.00       412.82
  320.66        2953.00           2186         119.00       517.45
  320.69        2953.25           2190         116.00       504.37
  320.72        2953.50           2193          92.00       399.74
  320.75        2953.75           2197          89.00       386.67
  320.78        2954.00           2200          95.00       412.82
  320.81        2954.25           2204          94.00       408.46
  320.84        2954.50           2208          98.00       425.90
  320.87        2954.75           2211          99.00       430.26
  320.90        2955.00           2215          87.00       377.95
  320.93        2955.25           2218          94.00       408.46
  320.96        2955.50           2222          97.00       421.54
  320.99        2955.75           2225          98.00       425.90
  321.02        2956.00           2229         101.00       438.98
  321.06        2956.25           2232         121.00       526.16
  321.09        2956.50           2236          95.00       412.82
  321.12        2956.75           2239         103.00       447.70
  321.15        2957.00           2243         133.00       578.48
  321.18        2957.25           2246         103.00       447.70
  321.21        2957.50           2250         112.00       486.93
  321.24        2957.75           2254         126.00       547.96
  321.27        2958.00           2257         103.00       447.70
  321.30        2958.25           2261         127.00       552.32
  321.33        2958.50           2264         104.00       452.06
  321.36        2958.75           2268         115.00       500.01
  321.39        2959.00           2271         108.00       469.49
  321.42        2959.25           2275         117.00       508.73
  321.45        2959.50           2278         115.00       500.01
  321.48        2959.75           2282         106.00       460.77
  321.51        2960.00           2285         120.00       521.81
  321.54        2960.25           2289         111.00       482.57
  321.58        2960.50           2293         134.00       582.84
  321.61        2960.75           2296         138.00       600.27
  321.64        2961.00           2300         156.00       678.74
  321.67        2961.25           2303         233.00      1014.42
  321.70        2961.50           2307         962.00      4192.84
  321.73        2961.75           2310        1784.00      7777.56
  321.76        2962.00           2314        2982.00     13003.57
  321.79        2962.25           2317        3985.00     17380.36
  321.82        2962.50           2321        5181.00     22601.06
  321.85        2962.75           2324        6225.00     27159.77
  321.88        2963.00           2328        7518.00     32807.72
  321.91        2963.25           2331        8409.00     36700.95
  321.94        2963.50           2335       10029.00     43782.22
  321.97        2963.75           2339       11431.00     49913.32
  322.00        2964.00           2342       12666.00     55316.24
  322.03        2964.25           2346       13988.00     61101.96
  322.06        2964.50           2349       14958.00     65348.62
  322.09        2964.75           2353       16416.00     71734.03
  322.13        2965.00           2356       17555.00     76724.29
  322.16        2965.25           2360       18949.00     82834.10
  322.19        2965.50           2363       19817.00     86639.76
  322.22        2965.75           2367       21125.00     92376.43
  322.25        2966.00           2370       22233.00     97237.68
  322.28        2966.25           2374       23210.00    101525.50
  322.31        2966.50           2378       24083.00    105358.00
  322.34        2966.75           2381       24178.00    105775.10
  322.37        2967.00           2385       24238.00    106038.50
  322.40        2967.25           2388       24312.00    106363.50
  322.43        2967.50           2392       24463.00    107026.50
  322.46        2967.75           2395       24115.00    105498.50
  322.49        2968.00           2399       23658.00    103492.10
  322.52        2968.25           2402       22677.00     99186.14
  322.55        2968.50           2406       21302.00     93152.90
  322.58        2968.75           2409       20007.00     87472.94
  322.61        2969.00           2413       18748.00     81952.97
  322.65        2969.25           2417       17296.00     75589.40
  322.68        2969.50           2420       16045.00     70108.95
  322.71        2969.75           2424       14554.00     63579.75
  322.74        2970.00           2427       13760.00     60103.96
  322.77        2970.25           2431       12156.00     53084.83
  322.80        2970.50           2434       11250.00     49121.65
  322.83        2970.75           2438        9705.00     42365.69
  322.86        2971.00           2441        8597.00     37522.56
  322.89        2971.25           2445        7110.00     31025.30
  322.92        2971.50           2449        5829.00     25430.44
  322.95        2971.75           2452        4751.00     20723.84
  322.98        2972.00           2456        3503.00     15276.90
  323.01        2972.25           2459        2511.00     10948.71
  323.04        2972.50           2463        1309.00      5705.99
  323.07        2972.75           2466         590.00      2570.84
  323.10        2973.00           2470         201.00       874.92
  323.13        2973.25           2473         159.00       691.82
  323.17        2973.50           2477         149.00       648.23
  323.20        2973.75           2481         125.00       543.60
  323.23        2974.00           2484         138.00       600.27
  323.26        2974.25           2488         134.00       582.84
  323.29        2974.50           2491         115.00       500.01
  323.32        2974.75           2495         108.00       469.49
  323.35        2975.00           2498         109.00       473.85
  323.38        2975.25           2502         116.00       504.37
  323.41        2975.50           2505         120.00       521.81
  323.44        2975.75           2509         106.00       460.77
  323.47        2976.00           2512         123.00       534.88
  323.50        2976.25           2516         164.00       713.62
  323.53        2976.50           2520         103.00       447.70
  323.56        2976.75           2523         107.00       465.13
  323.59        2977.00           2527         114.00       495.65
  323.62        2977.25           2530         105.00       456.42
  323.65        2977.50           2534         102.00       443.34
  323.69        2977.75           2537         103.00       447.70
  323.72        2978.00           2541         121.00       526.16
  323.75        2978.25           2544         100.00       434.62
  323.78        2978.50           2548         118.00       513.09
  323.81        2978.75           2552         115.00       500.01
  323.84        2979.00           2555         118.00       513.09
  323.87        2979.25           2559          99.00       430.26
  323.90        2979.50           2562         100.00       434.62
  323.93        2979.75           2566          94.00       408.46
  323.96        2980.00           2569          92.00       399.74
  323.99        2980.25           2573          85.00       369.23
  324.02        2980.50           2577          98.00       425.90
  324.05        2980.75           2580          93.00       404.10
  324.08        2981.00           2584          83.00       360.51
  324.11        2981.25           2587          86.00       373.59
  324.14        2981.50           2591          89.00       386.67
  324.17        2981.75           2594          99.00       430.26
  324.21        2982.00           2598          90.00       391.03
  324.24        2982.25           2601          84.00       364.87
  324.27        2982.50           2605          85.00       369.23
  324.30        2982.75           2609          89.00       386.67
  324.33        2983.00           2612          90.00       391.03
  324.36        2983.25           2616          88.00       382.31
  324.39        2983.50           2619          78.00       338.71
  324.42        2983.75           2623          86.00       373.59
  324.45        2984.00           2626         113.00       491.29
HS scan finished at 05:24:40
end
************************************************************
  HS Scan of (1) Internal mercury lamp
************************************************************
Integration time is 0.2294 seconds per sample
dh070118Reading 51.44 .94 2.56pr1000
************************************************************
Dead Time -------------------------  3.4E-08 
Number of Cycles Used -------------  4 
Starting Wavelength (Angstroms) ---  2950 
Final Wavelength (Angstoms) -------  2984 
Wavelength Increment (Angstroms) --  .25 
Filter Wheel #1 Position ---------- (1) Ground quartz diffuser (ND=2.32)
Filter Wheel #2 Position ---------- (1) Neutral Density 0.494



************************************************************
HS scan start time = 17:07:29
Dark Count =  .5 


Time (GMT)  Wavelength (Ang)  Step Number  Raw Counts  Counts/Second

 1028.38        2950.00           2144          77.00       333.48
 1028.57        2950.25           2147          80.00       346.56
 1028.60        2950.50           2151          73.00       316.05
 1028.63        2950.75           2155          84.00       364.00
 1028.66        2951.00           2158          85.00       368.36
 1028.69        2951.25           2162          87.00       377.08
 1028.72        2951.50           2165         108.00       468.62
 1028.75        2951.75           2169          74.00       320.40
 1028.79        2952.00           2172          78.00       337.84
 1028.82        2952.25           2176          86.00       372.72
 1028.85        2952.50           2179          86.00       372.72
 1028.88        2952.75           2183          86.00       372.72
 1028.91        2953.00           2186          87.00       377.08
 1028.94        2953.25           2190          87.00       377.08
 1028.97        2953.50           2193          82.00       355.28
 1029.00        2953.75           2197          83.00       359.64
 1029.03        2954.00           2200          87.00       377.08
 1029.06        2954.25           2204         110.00       477.34
 1029.09        2954.50           2208          88.00       381.43
 1029.12        2954.75           2211          84.00       364.00
 1029.15        2955.00           2215          92.00       398.87
 1029.18        2955.25           2218          91.00       394.51
 1029.21        2955.50           2222          84.00       364.00
 1029.24        2955.75           2225         100.00       433.75
 1029.27        2956.00           2229          88.00       381.43
 1029.31        2956.25           2232          87.00       377.08
 1029.34        2956.50           2236          90.00       390.15
 1029.37        2956.75           2239          85.00       368.36
 1029.40        2957.00           2243          89.00       385.79
 1029.43        2957.25           2246          83.00       359.64
 1029.46        2957.50           2250          94.00       407.59
 1029.49        2957.75           2254          90.00       390.15
 1029.52        2958.00           2257          89.00       385.79
 1029.55        2958.25           2261          94.00       407.59
 1029.58        2958.50           2264          96.00       416.31
 1029.61        2958.75           2268          93.00       403.23
 1029.64        2959.00           2271          92.00       398.87
 1029.67        2959.25           2275         102.00       442.47
 1029.70        2959.50           2278          96.00       416.31
 1029.73        2959.75           2282         120.00       520.93
 1029.77        2960.00           2285         121.00       525.29
 1029.80        2960.25           2289         103.00       446.82
 1029.83        2960.50           2293         111.00       481.70
 1029.86        2960.75           2296         130.00       564.53
 1029.89        2961.00           2300         181.00       786.86
 1029.92        2961.25           2303         222.00       965.59
 1029.95        2961.50           2307         786.00      3424.55
 1029.98        2961.75           2310        1587.00      6917.49
 1030.02        2962.00           2314        2803.00     12221.73
 1030.05        2962.25           2317        3805.00     16593.93
 1030.08        2962.50           2321        5046.00     22010.80
 1030.11        2962.75           2324        5892.00     25704.67
 1030.14        2963.00           2328        7197.00     31404.49
 1030.17        2963.25           2331        8206.00     35812.98
 1030.20        2963.50           2335        9544.00     41660.98
 1030.23        2963.75           2339       10780.00     47065.23
 1030.26        2964.00           2342       11820.00     51614.04
 1030.29        2964.25           2346       13143.00     57402.69
 1030.32        2964.50           2349       13968.00     61013.54
 1030.35        2964.75           2353       15163.00     66245.38
 1030.38        2965.00           2356       16202.00     70795.75
 1030.41        2965.25           2360       17209.00     75207.33
 1030.44        2965.50           2363       18176.00     79444.90
 1030.47        2965.75           2367       19452.00     85038.46
 1030.50        2966.00           2370       20263.00     88594.71
 1030.53        2966.25           2374       21215.00     92770.36
 1030.57        2966.50           2378       21666.00     94748.94
 1030.60        2966.75           2381       21373.00     93463.49
 1030.63        2967.00           2385       21534.00     94169.81
 1030.66        2967.25           2388       21645.00     94656.81
 1030.69        2967.50           2392       21975.00     96104.71
 1030.72        2967.75           2395       21855.00     95578.18
 1030.75        2968.00           2399       20974.00     91713.19
 1030.78        2968.25           2402       20231.00     88454.38
 1030.81        2968.50           2406       18941.00     82798.15
 1030.84        2968.75           2409       18092.00     79076.75
 1030.87        2969.00           2413       16852.00     73643.18
 1030.90        2969.25           2417       15773.00     68916.75
 1030.93        2969.50           2420       15033.00     65676.15
 1030.96        2969.75           2424       13645.00     59599.73
 1030.99        2970.00           2427       12632.00     55166.59
 1031.02        2970.25           2431       11369.00     49641.26
 1031.05        2970.50           2434       10232.00     44668.92
 1031.09        2970.75           2438        8797.00     38395.77
 1031.12        2971.00           2441        7861.00     34305.47
 1031.15        2971.25           2445        6638.00     28962.69
 1031.18        2971.50           2449        5360.00     23381.70
 1031.21        2971.75           2452        4438.00     19356.68
 1031.24        2972.00           2456        3361.00     14656.39
 1031.27        2972.25           2459        2535.00     11052.54
 1031.30        2972.50           2463        1393.00      6071.44
 1031.33        2972.75           2466         648.00      2822.85
 1031.36        2973.00           2470         202.00       878.40
 1031.39        2973.25           2473         133.00       577.61
 1031.42        2973.50           2477         133.00       577.61
 1031.45        2973.75           2481         107.00       464.26
 1031.48        2974.00           2484         111.00       481.70
 1031.51        2974.25           2488          99.00       429.39
 1031.54        2974.50           2491         105.00       455.54
 1031.58        2974.75           2495         100.00       433.75
 1031.61        2975.00           2498          95.00       411.95
 1031.64        2975.25           2502          94.00       407.59
 1031.67        2975.50           2505          97.00       420.67
 1031.70        2975.75           2509          99.00       429.39
 1031.73        2976.00           2512          97.00       420.67
 1031.76        2976.25           2516          94.00       407.59
 1031.79        2976.50           2520          88.00       381.43
 1031.82        2976.75           2523          92.00       398.87
 1031.85        2977.00           2527          87.00       377.08
 1031.88        2977.25           2530          86.00       372.72
 1031.91        2977.50           2534          89.00       385.79
 1031.94        2977.75           2537          94.00       407.59
 1031.97        2978.00           2541          84.00       364.00
 1032.00        2978.25           2544          84.00       364.00
 1032.03        2978.50           2548          87.00       377.08
 1032.06        2978.75           2552          93.00       403.23
 1032.10        2979.00           2555          91.00       394.51
 1032.13        2979.25           2559          82.00       355.28
 1032.16        2979.50           2562          90.00       390.15
 1032.19        2979.75           2566          83.00       359.64
 1032.22        2980.00           2569          88.00       381.43
 1032.25        2980.25           2573          83.00       359.64
 1032.28        2980.50           2577          77.00       333.48
 1032.31        2980.75           2580          78.00       337.84
 1032.34        2981.00           2584          86.00       372.72
 1032.37        2981.25           2587          78.00       337.84
 1032.40        2981.50           2591          78.00       337.84
 1032.43        2981.75           2594          83.00       359.64
 1032.46        2982.00           2598          75.00       324.76
 1032.49        2982.25           2601          73.00       316.05
 1032.52        2982.50           2605          78.00       337.84
 1032.55        2982.75           2609          78.00       337.84
 1032.58        2983.00           2612          71.00       307.33
 1032.62        2983.25           2616          78.00       337.84
 1032.65        2983.50           2619          74.00       320.40
 1032.68        2983.75           2623          80.00       346.56
 1032.71        2984.00           2626          85.00       368.36
HS scan finished at 17:12:56
end
