************************************************************
  HS Scan of (1) Internal mercury lamp
************************************************************
Integration time is 0.2294 seconds per sample
dh050118Reading 51.44 .94 2.64pr1000
************************************************************
Dead Time -------------------------  3.4E-08 
Number of Cycles Used -------------  4 
Starting Wavelength (Angstroms) ---  2950 
Final Wavelength (Angstoms) -------  2984 
Wavelength Increment (Angstroms) --  .25 
Filter Wheel #1 Position ---------- (1) Ground quartz diffuser (ND=2.32)
Filter Wheel #2 Position ---------- (1) Neutral Density 0.494



************************************************************
HS scan start time = 05:16:29
Dark Count =  .4 


Time (GMT)  Wavelength (Ang)  Step Number  Raw Counts  Counts/Second

  317.38        2950.00           2144          79.00       342.64
  317.58        2950.25           2147          84.00       364.43
  317.61        2950.50           2151          87.00       377.51
  317.64        2950.75           2155          78.00       338.28
  317.67        2951.00           2158          78.00       338.28
  317.70        2951.25           2162          81.00       351.36
  317.73        2951.50           2165          79.00       342.64
  317.76        2951.75           2169          82.00       355.71
  317.79        2952.00           2172          82.00       355.71
  317.82        2952.25           2176          85.00       368.79
  317.85        2952.50           2179          78.00       338.28
  317.88        2952.75           2183          89.00       386.23
  317.91        2953.00           2186          83.00       360.07
  317.94        2953.25           2190          75.00       325.20
  317.97        2953.50           2193          80.00       347.00
  318.00        2953.75           2197          88.00       381.87
  318.03        2954.00           2200          87.00       377.51
  318.06        2954.25           2204          82.00       355.71
  318.10        2954.50           2208          83.00       360.07
  318.13        2954.75           2211          92.00       399.31
  318.16        2955.00           2215          89.00       386.23
  318.19        2955.25           2218          95.00       412.39
  318.22        2955.50           2222          88.00       381.87
  318.25        2955.75           2225          82.00       355.71
  318.28        2956.00           2229          78.00       338.28
  318.31        2956.25           2232          88.00       381.87
  318.34        2956.50           2236          82.00       355.71
  318.37        2956.75           2239          91.00       394.95
  318.40        2957.00           2243          94.00       408.03
  318.43        2957.25           2246         100.00       434.18
  318.46        2957.50           2250          90.00       390.59
  318.49        2957.75           2254          80.00       347.00
  318.52        2958.00           2257          95.00       412.39
  318.55        2958.25           2261          92.00       399.31
  318.58        2958.50           2264          93.00       403.67
  318.62        2958.75           2268          88.00       381.87
  318.65        2959.00           2271         111.00       482.14
  318.68        2959.25           2275         100.00       434.18
  318.71        2959.50           2278         100.00       434.18
  318.74        2959.75           2282          94.00       408.03
  318.77        2960.00           2285          99.00       429.82
  318.80        2960.25           2289         101.00       438.54
  318.83        2960.50           2293         105.00       455.98
  318.86        2960.75           2296         142.00       617.28
  318.89        2961.00           2300         133.00       578.04
  318.92        2961.25           2303         235.00      1022.70
  318.95        2961.50           2307         753.00      3281.10
  318.98        2961.75           2310        1438.00      6268.12
  319.01        2962.00           2314        2687.00     11716.09
  319.04        2962.25           2317        3709.00     16175.42
  319.07        2962.50           2321        5019.00     21893.36
  319.10        2962.75           2324        6064.00     26456.22
  319.14        2963.00           2328        7204.00     31435.50
  319.17        2963.25           2331        8131.00     35485.68
  319.20        2963.50           2335        9571.00     41779.45
  319.23        2963.75           2339       10952.00     47817.87
  319.26        2964.00           2342       12094.00     52813.15
  319.29        2964.25           2346       13411.00     58576.00
  319.32        2964.50           2349       14260.00     62292.21
  319.35        2964.75           2353       15468.00     67581.44
  319.38        2965.00           2356       16489.00     72053.38
  319.41        2965.25           2360       17778.00     77701.09
  319.44        2965.50           2363       19005.00     83079.16
  319.47        2965.75           2367       20193.00     88288.16
  319.50        2966.00           2370       21318.00     93222.64
  319.53        2966.25           2374       22217.00     97167.03
  319.56        2966.50           2378       22750.00     99506.09
  319.59        2966.75           2381       22819.00     99808.92
  319.62        2967.00           2385       22689.00     99238.38
  319.66        2967.25           2388       22839.00     99896.69
  319.69        2967.50           2392       22911.00    100212.70
  319.72        2967.75           2395       22587.00     98790.74
  319.75        2968.00           2399       21683.00     94823.97
  319.78        2968.25           2402       20608.00     90108.24
  319.81        2968.50           2406       20172.00     88196.07
  319.84        2968.75           2409       19030.00     83188.75
  319.87        2969.00           2413       17631.00     77056.90
  319.90        2969.25           2417       16160.00     70612.23
  319.93        2969.50           2420       15068.00     65829.83
  319.96        2969.75           2424       13835.00     60431.80
  319.99        2970.00           2427       12616.00     55097.02
  320.02        2970.25           2431       11262.00     49173.69
  320.05        2970.50           2434       10318.00     45045.40
  320.08        2970.75           2438        9029.00     39410.23
  320.11        2971.00           2441        8067.00     35206.02
  320.14        2971.25           2445        6653.00     29028.64
  320.17        2971.50           2449        5227.00     22801.46
  320.21        2971.75           2452        4313.00     18811.51
  320.24        2972.00           2456        3123.00     13618.34
  320.27        2972.25           2459        2281.00      9944.95
  320.30        2972.50           2463        1213.00      5286.91
  320.33        2972.75           2466         542.00      2361.13
  320.36        2973.00           2470         187.00       813.45
  320.39        2973.25           2473         142.00       617.28
  320.42        2973.50           2477         108.00       469.06
  320.45        2973.75           2481         119.00       517.01
  320.48        2974.00           2484         105.00       455.98
  320.51        2974.25           2488         112.00       486.49
  320.54        2974.50           2491         122.00       530.09
  320.57        2974.75           2495         107.00       464.70
  320.60        2975.00           2498         125.00       543.17
  320.63        2975.25           2502          95.00       412.39
  320.66        2975.50           2505         135.00       586.76
  320.70        2975.75           2509          94.00       408.03
  320.73        2976.00           2512         107.00       464.70
  320.76        2976.25           2516         105.00       455.98
  320.79        2976.50           2520         112.00       486.49
  320.82        2976.75           2523          94.00       408.03
  320.85        2977.00           2527          88.00       381.87
  320.88        2977.25           2530          87.00       377.51
  320.91        2977.50           2534          89.00       386.23
  320.94        2977.75           2537          90.00       390.59
  320.97        2978.00           2541          93.00       403.67
  321.00        2978.25           2544          87.00       377.51
  321.03        2978.50           2548          81.00       351.36
  321.06        2978.75           2552          92.00       399.31
  321.09        2979.00           2555          87.00       377.51
  321.12        2979.25           2559         103.00       447.26
  321.15        2979.50           2562          91.00       394.95
  321.18        2979.75           2566          84.00       364.43
  321.22        2980.00           2569          87.00       377.51
  321.25        2980.25           2573          85.00       368.79
  321.28        2980.50           2577          87.00       377.51
  321.31        2980.75           2580          81.00       351.36
  321.34        2981.00           2584          87.00       377.51
  321.37        2981.25           2587          72.00       312.12
  321.40        2981.50           2591          75.00       325.20
  321.43        2981.75           2594          83.00       360.07
  321.46        2982.00           2598          79.00       342.64
  321.49        2982.25           2601          82.00       355.71
  321.52        2982.50           2605          77.00       333.92
  321.55        2982.75           2609          93.00       403.67
  321.58        2983.00           2612          75.00       325.20
  321.61        2983.25           2616          80.00       347.00
  321.64        2983.50           2619          71.00       307.76
  321.67        2983.75           2623          72.00       312.12
  321.70        2984.00           2626          79.00       342.64
HS scan finished at 05:21:56
end
************************************************************
  HS Scan of (1) Internal mercury lamp
************************************************************
Integration time is 0.2294 seconds per sample
dh050118Reading 51.44 .94 2.84pr1000
************************************************************
Dead Time -------------------------  3.4E-08 
Number of Cycles Used -------------  4 
Starting Wavelength (Angstroms) ---  2950 
Final Wavelength (Angstoms) -------  2984 
Wavelength Increment (Angstroms) --  .25 
Filter Wheel #1 Position ---------- (1) Ground quartz diffuser (ND=2.32)
Filter Wheel #2 Position ---------- (1) Neutral Density 0.494



************************************************************
HS scan start time = 17:07:27
Dark Count =  .8 


Time (GMT)  Wavelength (Ang)  Step Number  Raw Counts  Counts/Second

 1028.34        2950.00           2144          86.00       371.41
 1028.53        2950.25           2147          80.00       345.25
 1028.56        2950.50           2151          79.00       340.89
 1028.59        2950.75           2155          78.00       336.53
 1028.63        2951.00           2158          76.00       327.82
 1028.66        2951.25           2162          79.00       340.89
 1028.69        2951.50           2165          79.00       340.89
 1028.72        2951.75           2169          83.00       358.33
 1028.75        2952.00           2172          82.00       353.97
 1028.78        2952.25           2176          72.00       310.38
 1028.81        2952.50           2179          80.00       345.25
 1028.84        2952.75           2183          78.00       336.53
 1028.87        2953.00           2186          87.00       375.77
 1028.90        2953.25           2190          80.00       345.25
 1028.93        2953.50           2193          89.00       384.49
 1028.96        2953.75           2197          81.00       349.61
 1028.99        2954.00           2200          87.00       375.77
 1029.02        2954.25           2204          90.00       388.85
 1029.05        2954.50           2208          85.00       367.05
 1029.08        2954.75           2211          83.00       358.33
 1029.11        2955.00           2215          82.00       353.97
 1029.15        2955.25           2218          89.00       384.49
 1029.18        2955.50           2222          84.00       362.69
 1029.21        2955.75           2225          87.00       375.77
 1029.24        2956.00           2229          87.00       375.77
 1029.27        2956.25           2232          87.00       375.77
 1029.30        2956.50           2236          81.00       349.61
 1029.34        2956.75           2239          90.00       388.85
 1029.37        2957.00           2243         112.00       484.75
 1029.40        2957.25           2246          90.00       388.85
 1029.43        2957.50           2250          98.00       423.72
 1029.46        2957.75           2254          92.00       397.56
 1029.49        2958.00           2257          91.00       393.20
 1029.52        2958.25           2261          83.00       358.33
 1029.55        2958.50           2264          87.00       375.77
 1029.58        2958.75           2268         100.00       432.44
 1029.61        2959.00           2271          85.00       367.05
 1029.64        2959.25           2275          99.00       428.08
 1029.67        2959.50           2278         112.00       484.75
 1029.70        2959.75           2282          96.00       415.00
 1029.73        2960.00           2285         100.00       432.44
 1029.76        2960.25           2289          95.00       410.64
 1029.79        2960.50           2293         110.00       476.03
 1029.82        2960.75           2296         110.00       476.03
 1029.86        2961.00           2300         137.00       593.73
 1029.89        2961.25           2303         238.00      1034.04
 1029.92        2961.50           2307         853.00      3715.38
 1029.95        2961.75           2310        1610.00      7016.49
 1029.98        2962.00           2314        2833.00     12351.31
 1030.01        2962.25           2317        3782.00     16492.24
 1030.04        2962.50           2321        5058.00     22061.88
 1030.07        2962.75           2324        6031.00     26310.36
 1030.10        2963.00           2328        7517.00     32801.17
 1030.13        2963.25           2331        8626.00     37647.11
 1030.16        2963.50           2335        9859.00     43036.78
 1030.19        2963.75           2339       11129.00     48590.24
 1030.22        2964.00           2342       12214.00     53336.39
 1030.25        2964.25           2346       13596.00     59383.95
 1030.28        2964.50           2349       14459.00     63161.65
 1030.31        2964.75           2353       15772.00     68911.05
 1030.34        2965.00           2356       16632.00     72678.06
 1030.38        2965.25           2360       17788.00     77743.15
 1030.41        2965.50           2363       18816.00     82248.86
 1030.44        2965.75           2367       20073.00     87760.16
 1030.47        2966.00           2370       20838.00     91115.31
 1030.50        2966.25           2374       22410.00     98012.22
 1030.53        2966.50           2378       22873.00    100044.20
 1030.56        2966.75           2381       23159.00    101299.50
 1030.59        2967.00           2385       23140.00    101216.10
 1030.62        2967.25           2388       23433.00    102502.20
 1030.65        2967.50           2392       23157.00    101290.70
 1030.68        2967.75           2395       22980.00    100513.80
 1030.71        2968.00           2399       22240.00     97266.19
 1030.74        2968.25           2402       21229.00     92830.46
 1030.77        2968.50           2406       19942.00     87185.69
 1030.80        2968.75           2409       19082.00     83414.97
 1030.83        2969.00           2413       17472.00     76358.40
 1030.86        2969.25           2417       16071.00     70220.65
 1030.89        2969.50           2420       15131.00     66103.95
 1030.93        2969.75           2424       13858.00     60530.73
 1030.96        2970.00           2427       13032.00     56915.62
 1030.99        2970.25           2431       11600.00     50650.37
 1031.02        2970.50           2434       10688.00     46661.59
 1031.05        2970.75           2438        9240.00     40330.77
 1031.08        2971.00           2441        8217.00     35859.74
 1031.11        2971.25           2445        6903.00     30118.89
 1031.14        2971.50           2449        5503.00     24004.76
 1031.17        2971.75           2452        4335.00     18905.79
 1031.20        2972.00           2456        3091.00     13476.97
 1031.23        2972.25           2459        2218.00      9668.39
 1031.26        2972.50           2463        1189.00      5180.51
 1031.29        2972.75           2466         567.00      2468.39
 1031.32        2973.00           2470         187.00       811.71
 1031.35        2973.25           2473         141.00       611.17
 1031.38        2973.50           2477         122.00       528.34
 1031.42        2973.75           2481         113.00       489.11
 1031.45        2974.00           2484         101.00       436.80
 1031.48        2974.25           2488         104.00       449.88
 1031.51        2974.50           2491         100.00       432.44
 1031.54        2974.75           2495         174.00       755.03
 1031.57        2975.00           2498         105.00       454.24
 1031.60        2975.25           2502         101.00       436.80
 1031.63        2975.50           2505          96.00       415.00
 1031.66        2975.75           2509          94.00       406.28
 1031.69        2976.00           2512          98.00       423.72
 1031.72        2976.25           2516          94.00       406.28
 1031.75        2976.50           2520          84.00       362.69
 1031.78        2976.75           2523          93.00       401.92
 1031.81        2977.00           2527          91.00       393.20
 1031.84        2977.25           2530          90.00       388.85
 1031.87        2977.50           2534          86.00       371.41
 1031.90        2977.75           2537          90.00       388.85
 1031.94        2978.00           2541          86.00       371.41
 1031.97        2978.25           2544          79.00       340.89
 1032.00        2978.50           2548          81.00       349.61
 1032.03        2978.75           2552          91.00       393.20
 1032.06        2979.00           2555          86.00       371.41
 1032.09        2979.25           2559          78.00       336.53
 1032.12        2979.50           2562          89.00       384.49
 1032.15        2979.75           2566          73.00       314.74
 1032.18        2980.00           2569          80.00       345.25
 1032.21        2980.25           2573          73.00       314.74
 1032.24        2980.50           2577          81.00       349.61
 1032.27        2980.75           2580          77.00       332.17
 1032.30        2981.00           2584          87.00       375.77
 1032.33        2981.25           2587          84.00       362.69
 1032.36        2981.50           2591          82.00       353.97
 1032.39        2981.75           2594          81.00       349.61
 1032.42        2982.00           2598          89.00       384.49
 1032.45        2982.25           2601          79.00       340.89
 1032.49        2982.50           2605          77.00       332.17
 1032.52        2982.75           2609          80.00       345.25
 1032.55        2983.00           2612          84.00       362.69
 1032.58        2983.25           2616          84.00       362.69
 1032.61        2983.50           2619          78.00       336.53
 1032.64        2983.75           2623          77.00       332.17
 1032.67        2984.00           2626          73.00       314.74
HS scan finished at 17:12:54
end
