************************************************************
  HS Scan of (1) Internal mercury lamp
************************************************************
Integration time is 0.2294 seconds per sample
dh020118Reading 51.44 .94 2.5pr1000
************************************************************
Dead Time -------------------------  3.4E-08 
Number of Cycles Used -------------  4 
Starting Wavelength (Angstroms) ---  2950 
Final Wavelength (Angstoms) -------  2984 
Wavelength Increment (Angstroms) --  .25 
Filter Wheel #1 Position ---------- (1) Ground quartz diffuser (ND=2.32)
Filter Wheel #2 Position ---------- (1) Neutral Density 0.494



************************************************************
HS scan start time = 05:19:38
Dark Count =  .2 


Time (GMT)  Wavelength (Ang)  Step Number  Raw Counts  Counts/Second

  320.53        2950.00           2144         102.00       443.77
  320.72        2950.25           2147          87.00       378.38
  320.75        2950.50           2151          81.00       352.23
  320.78        2950.75           2155         111.00       483.01
  320.82        2951.00           2158          81.00       352.23
  320.85        2951.25           2162          87.00       378.38
  320.88        2951.50           2165          90.00       391.46
  320.91        2951.75           2169          94.00       408.90
  320.94        2952.00           2172         111.00       483.01
  320.97        2952.25           2176          88.00       382.74
  321.00        2952.50           2179         109.00       474.29
  321.03        2952.75           2183          82.00       356.59
  321.06        2953.00           2186          92.00       400.18
  321.09        2953.25           2190          91.00       395.82
  321.12        2953.50           2193          94.00       408.90
  321.15        2953.75           2197          85.00       369.66
  321.18        2954.00           2200          85.00       369.66
  321.21        2954.25           2204          86.00       374.02
  321.24        2954.50           2208          78.00       339.15
  321.27        2954.75           2211          97.00       421.98
  321.30        2955.00           2215          88.00       382.74
  321.34        2955.25           2218          90.00       391.46
  321.37        2955.50           2222          89.00       387.10
  321.40        2955.75           2225          90.00       391.46
  321.43        2956.00           2229          89.00       387.10
  321.46        2956.25           2232          95.00       413.26
  321.49        2956.50           2236          99.00       430.70
  321.52        2956.75           2239          92.00       400.18
  321.55        2957.00           2243          93.00       404.54
  321.58        2957.25           2246          92.00       400.18
  321.61        2957.50           2250          96.00       417.62
  321.64        2957.75           2254         113.00       491.73
  321.67        2958.00           2257          97.00       421.98
  321.70        2958.25           2261          98.00       426.34
  321.73        2958.50           2264         101.00       439.41
  321.76        2958.75           2268         100.00       435.05
  321.79        2959.00           2271         109.00       474.29
  321.82        2959.25           2275         123.00       535.32
  321.86        2959.50           2278         147.00       639.94
  321.89        2959.75           2282          99.00       430.70
  321.92        2960.00           2285         124.00       539.68
  321.95        2960.25           2289         125.00       544.04
  321.98        2960.50           2293         113.00       491.73
  322.01        2960.75           2296         128.00       557.12
  322.04        2961.00           2300         141.00       613.79
  322.07        2961.25           2303         208.00       905.87
  322.10        2961.50           2307         805.00      3508.70
  322.13        2961.75           2310        1590.00      6931.89
  322.16        2962.00           2314        2865.00     12493.54
  322.19        2962.25           2317        3841.00     16752.35
  322.22        2962.50           2321        5126.00     22361.37
  322.25        2962.75           2324        6152.00     26841.40
  322.28        2963.00           2328        7518.00     32808.16
  322.31        2963.25           2331        8519.00     37182.11
  322.34        2963.50           2335        9882.00     43139.96
  322.38        2963.75           2339       11367.00     49633.82
  322.41        2964.00           2342       12578.00     54931.62
  322.44        2964.25           2346       13992.00     61119.91
  322.47        2964.50           2349       14802.00     64666.00
  322.50        2964.75           2353       16321.00     71318.33
  322.53        2965.00           2356       17421.00     76137.56
  322.56        2965.25           2360       18651.00     81528.21
  322.59        2965.50           2363       19448.00     85022.24
  322.62        2965.75           2367       20746.00     90714.41
  322.65        2966.00           2370       21847.00     95544.41
  322.68        2966.25           2374       22934.00    100314.50
  322.71        2966.50           2378       23481.00    102715.60
  322.74        2966.75           2381       23806.00    104142.30
  322.77        2967.00           2385       23934.00    104704.30
  322.80        2967.25           2388       23821.00    104208.20
  322.83        2967.50           2392       23678.00    103580.40
  322.86        2967.75           2395       23466.00    102649.70
  322.90        2968.00           2399       22778.00     99629.86
  322.93        2968.25           2402       21775.00     95228.50
  322.96        2968.50           2406       20532.00     89775.80
  322.99        2968.75           2409       19826.00     86679.68
  323.02        2969.00           2413       18353.00     80222.01
  323.05        2969.25           2417       17136.00     74888.79
  323.08        2969.50           2420       16024.00     70017.40
  323.11        2969.75           2424       14388.00     62853.45
  323.14        2970.00           2427       13176.00     57548.42
  323.17        2970.25           2431       11861.00     51794.71
  323.20        2970.50           2434       10919.00     47674.42
  323.23        2970.75           2438        9475.00     41360.65
  323.26        2971.00           2441        8525.00     37208.33
  323.29        2971.25           2445        7466.00     32580.97
  323.32        2971.50           2449        6060.00     26439.62
  323.35        2971.75           2452        4960.00     21636.66
  323.38        2972.00           2456        3717.00     16211.20
  323.42        2972.25           2459        2709.00     11812.94
  323.45        2972.50           2463        1418.00      6181.77
  323.48        2972.75           2466         617.00      2689.00
  323.51        2973.00           2470         189.00       823.04
  323.54        2973.25           2473         151.00       657.38
  323.57        2973.50           2477         143.00       622.51
  323.60        2973.75           2481         121.00       526.60
  323.63        2974.00           2484         107.00       465.57
  323.66        2974.25           2488         107.00       465.57
  323.69        2974.50           2491         127.00       552.76
  323.72        2974.75           2495         131.00       570.19
  323.75        2975.00           2498         114.00       496.09
  323.78        2975.25           2502         103.00       448.13
  323.81        2975.50           2505         105.00       456.85
  323.84        2975.75           2509         102.00       443.77
  323.87        2976.00           2512          97.00       421.98
  323.90        2976.25           2516         103.00       448.13
  323.94        2976.50           2520          96.00       417.62
  323.97        2976.75           2523          99.00       430.70
  324.00        2977.00           2527         117.00       509.16
  324.03        2977.25           2530          96.00       417.62
  324.06        2977.50           2534          93.00       404.54
  324.09        2977.75           2537          95.00       413.26
  324.12        2978.00           2541          97.00       421.98
  324.15        2978.25           2544          95.00       413.26
  324.18        2978.50           2548          90.00       391.46
  324.21        2978.75           2552          89.00       387.10
  324.24        2979.00           2555          79.00       343.51
  324.27        2979.25           2559          89.00       387.10
  324.30        2979.50           2562          89.00       387.10
  324.33        2979.75           2566          88.00       382.74
  324.36        2980.00           2569          90.00       391.46
  324.39        2980.25           2573          82.00       356.59
  324.42        2980.50           2577          85.00       369.66
  324.46        2980.75           2580          90.00       391.46
  324.49        2981.00           2584          89.00       387.10
  324.52        2981.25           2587          87.00       378.38
  324.55        2981.50           2591          80.00       347.87
  324.58        2981.75           2594          84.00       365.31
  324.61        2982.00           2598          81.00       352.23
  324.64        2982.25           2601          79.00       343.51
  324.67        2982.50           2605          87.00       378.38
  324.70        2982.75           2609          80.00       347.87
  324.73        2983.00           2612          81.00       352.23
  324.76        2983.25           2616          82.00       356.59
  324.79        2983.50           2619          80.00       347.87
  324.82        2983.75           2623          84.00       365.31
  324.85        2984.00           2626          88.00       382.74
HS scan finished at 05:25:04
end
