************************************************************
  HS Scan of (1) Internal mercury lamp
************************************************************
Integration time is 0.2294 seconds per sample
dh060118Reading 51.44 .94 2.5pr1000
************************************************************
Dead Time -------------------------  3.4E-08 
Number of Cycles Used -------------  4 
Starting Wavelength (Angstroms) ---  2950 
Final Wavelength (Angstoms) -------  2984 
Wavelength Increment (Angstroms) --  .25 
Filter Wheel #1 Position ---------- (1) Ground quartz diffuser (ND=2.32)
Filter Wheel #2 Position ---------- (1) Neutral Density 0.494



************************************************************
HS scan start time = 05:19:27
Dark Count =  .3 


Time (GMT)  Wavelength (Ang)  Step Number  Raw Counts  Counts/Second

  320.34        2950.00           2144          86.00       373.59
  320.54        2950.25           2147          87.00       377.95
  320.57        2950.50           2151          87.00       377.95
  320.60        2950.75           2155          92.00       399.74
  320.63        2951.00           2158          91.00       395.38
  320.66        2951.25           2162          85.00       369.23
  320.69        2951.50           2165          93.00       404.10
  320.72        2951.75           2169          87.00       377.95
  320.75        2952.00           2172          86.00       373.59
  320.78        2952.25           2176          85.00       369.23
  320.81        2952.50           2179          84.00       364.87
  320.84        2952.75           2183          84.00       364.87
  320.87        2953.00           2186          88.00       382.31
  320.90        2953.25           2190          87.00       377.95
  320.93        2953.50           2193          94.00       408.46
  320.96        2953.75           2197          88.00       382.31
  320.99        2954.00           2200          88.00       382.31
  321.02        2954.25           2204          89.00       386.67
  321.06        2954.50           2208          93.00       404.10
  321.09        2954.75           2211          88.00       382.31
  321.12        2955.00           2215          98.00       425.90
  321.15        2955.25           2218          98.00       425.90
  321.18        2955.50           2222          97.00       421.54
  321.21        2955.75           2225          83.00       360.51
  321.24        2956.00           2229          82.00       356.15
  321.27        2956.25           2232         114.00       495.65
  321.30        2956.50           2236          87.00       377.95
  321.33        2956.75           2239          90.00       391.03
  321.36        2957.00           2243          99.00       430.26
  321.39        2957.25           2246          99.00       430.26
  321.42        2957.50           2250         148.00       643.87
  321.45        2957.75           2254          91.00       395.38
  321.48        2958.00           2257          97.00       421.54
  321.51        2958.25           2261         113.00       491.29
  321.54        2958.50           2264          93.00       404.10
  321.58        2958.75           2268         105.00       456.42
  321.61        2959.00           2271          98.00       425.90
  321.64        2959.25           2275          97.00       421.54
  321.67        2959.50           2278         103.00       447.70
  321.70        2959.75           2282         120.00       521.81
  321.73        2960.00           2285         108.00       469.49
  321.76        2960.25           2289         114.00       495.65
  321.79        2960.50           2293         126.00       547.96
  321.82        2960.75           2296         131.00       569.76
  321.85        2961.00           2300         152.00       661.31
  321.88        2961.25           2303         281.00      1223.68
  321.91        2961.50           2307         921.00      4014.06
  321.94        2961.75           2310        1771.00      7720.86
  321.97        2962.00           2314        2873.00     12528.00
  322.00        2962.25           2317        3652.00     15927.11
  322.03        2962.50           2321        4841.00     21116.73
  322.07        2962.75           2324        5906.00     25766.68
  322.10        2963.00           2328        7271.00     31728.63
  322.13        2963.25           2331        8321.00     36316.39
  322.16        2963.50           2335        9611.00     41954.75
  322.19        2963.75           2339       10897.00     47577.78
  322.22        2964.00           2342       11828.00     51649.91
  322.25        2964.25           2346       13254.00     57889.33
  322.28        2964.50           2349       14417.00     62979.97
  322.31        2964.75           2353       15670.00     68466.53
  322.34        2965.00           2356       16666.00     72829.21
  322.37        2965.25           2360       18047.00     78880.41
  322.40        2965.50           2363       18899.00     82614.91
  322.43        2965.75           2367       20079.00     87788.66
  322.46        2966.00           2370       20927.00     91507.89
  322.49        2966.25           2374       21669.00     94762.98
  322.52        2966.50           2378       22198.00     97084.09
  322.55        2966.75           2381       22432.00     98110.94
  322.58        2967.00           2385       22690.00     99243.19
  322.62        2967.25           2388       22685.00     99221.26
  322.65        2967.50           2392       22593.00     98817.49
  322.68        2967.75           2395       22136.00     96812.05
  322.71        2968.00           2399       21331.00     93280.12
  322.74        2968.25           2402       20479.00     89542.90
  322.77        2968.50           2406       19227.00     84052.85
  322.80        2968.75           2409       18368.00     80287.31
  322.83        2969.00           2413       17197.00     75155.63
  322.86        2969.25           2417       15830.00     69167.27
  322.89        2969.50           2420       14912.00     65147.19
  322.92        2969.75           2424       13702.00     59850.09
  322.95        2970.00           2427       12628.00     55149.96
  322.98        2970.25           2431       11146.00     48666.78
  323.01        2970.50           2434       10109.00     44131.99
  323.04        2970.75           2438        8805.00     38431.62
  323.07        2971.00           2441        7869.00     34341.30
  323.10        2971.25           2445        6756.00     29478.97
  323.14        2971.50           2449        5488.00     23941.45
  323.17        2971.75           2452        4518.00     19706.75
  323.20        2972.00           2456        3221.00     14046.38
  323.23        2972.25           2459        2317.00     10102.42
  323.26        2972.50           2463        1147.00      4999.54
  323.29        2972.75           2466         565.00      2461.85
  323.32        2973.00           2470         216.00       940.31
  323.35        2973.25           2473         158.00       687.46
  323.38        2973.50           2477         120.00       521.81
  323.41        2973.75           2481         111.00       482.57
  323.44        2974.00           2484         107.00       465.13
  323.47        2974.25           2488         121.00       526.16
  323.50        2974.50           2491         129.00       561.04
  323.53        2974.75           2495         122.00       530.52
  323.56        2975.00           2498         104.00       452.06
  323.59        2975.25           2502         125.00       543.60
  323.62        2975.50           2505         122.00       530.52
  323.65        2975.75           2509          95.00       412.82
  323.69        2976.00           2512          89.00       386.67
  323.72        2976.25           2516         113.00       491.29
  323.75        2976.50           2520          97.00       421.54
  323.78        2976.75           2523          99.00       430.26
  323.81        2977.00           2527         102.00       443.34
  323.84        2977.25           2530          89.00       386.67
  323.87        2977.50           2534         117.00       508.73
  323.90        2977.75           2537          89.00       386.67
  323.93        2978.00           2541          98.00       425.90
  323.96        2978.25           2544          93.00       404.10
  323.99        2978.50           2548          89.00       386.67
  324.02        2978.75           2552          80.00       347.43
  324.05        2979.00           2555          88.00       382.31
  324.08        2979.25           2559          81.00       351.79
  324.11        2979.50           2562          86.00       373.59
  324.14        2979.75           2566          75.00       325.64
  324.17        2980.00           2569          81.00       351.79
  324.21        2980.25           2573          79.00       343.07
  324.24        2980.50           2577          91.00       395.38
  324.27        2980.75           2580          81.00       351.79
  324.30        2981.00           2584          73.00       316.92
  324.33        2981.25           2587          84.00       364.87
  324.36        2981.50           2591          81.00       351.79
  324.39        2981.75           2594          78.00       338.71
  324.42        2982.00           2598          93.00       404.10
  324.45        2982.25           2601          84.00       364.87
  324.48        2982.50           2605          80.00       347.43
  324.51        2982.75           2609          75.00       325.64
  324.54        2983.00           2612          76.00       329.99
  324.57        2983.25           2616          83.00       360.51
  324.60        2983.50           2619          79.00       343.07
  324.63        2983.75           2623          70.00       303.84
  324.66        2984.00           2626          81.00       351.79
HS scan finished at 05:24:53
end
************************************************************
  HS Scan of (1) Internal mercury lamp
************************************************************
Integration time is 0.2294 seconds per sample
dh060118Reading 51.44 .94 2.76pr1000
************************************************************
Dead Time -------------------------  3.4E-08 
Number of Cycles Used -------------  4 
Starting Wavelength (Angstroms) ---  2950 
Final Wavelength (Angstoms) -------  2984 
Wavelength Increment (Angstroms) --  .25 
Filter Wheel #1 Position ---------- (1) Ground quartz diffuser (ND=2.32)
Filter Wheel #2 Position ---------- (1) Neutral Density 0.494



************************************************************
HS scan start time = 17:07:30
Dark Count =  .3 


Time (GMT)  Wavelength (Ang)  Step Number  Raw Counts  Counts/Second

 1028.39        2950.00           2144          60.00       260.25
 1028.59        2950.25           2147          61.00       264.61
 1028.62        2950.50           2151          65.00       282.04
 1028.65        2950.75           2155          60.00       260.25
 1028.68        2951.00           2158          64.00       277.68
 1028.71        2951.25           2162          59.00       255.89
 1028.74        2951.50           2165          53.00       229.73
 1028.77        2951.75           2169          63.00       273.32
 1028.80        2952.00           2172          62.00       268.97
 1028.83        2952.25           2176          64.00       277.68
 1028.86        2952.50           2179          60.00       260.25
 1028.89        2952.75           2183          66.00       286.40
 1028.92        2953.00           2186          61.00       264.61
 1028.95        2953.25           2190          58.00       251.53
 1028.98        2953.50           2193          68.00       295.12
 1029.01        2953.75           2197          57.00       247.17
 1029.04        2954.00           2200          61.00       264.61
 1029.07        2954.25           2204          60.00       260.25
 1029.11        2954.50           2208          66.00       286.40
 1029.14        2954.75           2211          67.00       290.76
 1029.17        2955.00           2215          58.00       251.53
 1029.20        2955.25           2218          73.00       316.92
 1029.23        2955.50           2222          71.00       308.20
 1029.26        2955.75           2225          70.00       303.84
 1029.29        2956.00           2229          67.00       290.76
 1029.32        2956.25           2232          60.00       260.25
 1029.35        2956.50           2236          67.00       290.76
 1029.38        2956.75           2239          67.00       290.76
 1029.41        2957.00           2243          69.00       299.48
 1029.44        2957.25           2246          66.00       286.40
 1029.47        2957.50           2250          69.00       299.48
 1029.50        2957.75           2254          63.00       273.32
 1029.53        2958.00           2257          75.00       325.64
 1029.56        2958.25           2261          72.00       312.56
 1029.59        2958.50           2264          69.00       299.48
 1029.63        2958.75           2268          78.00       338.71
 1029.66        2959.00           2271          78.00       338.71
 1029.69        2959.25           2275          81.00       351.79
 1029.72        2959.50           2278          67.00       290.76
 1029.75        2959.75           2282          80.00       347.43
 1029.78        2960.00           2285          77.00       334.35
 1029.81        2960.25           2289          88.00       382.31
 1029.84        2960.50           2293          73.00       316.92
 1029.87        2960.75           2296          83.00       360.51
 1029.90        2961.00           2300          99.00       430.26
 1029.93        2961.25           2303         203.00       883.64
 1029.96        2961.50           2307         743.00      3237.93
 1029.99        2961.75           2310        1301.00      5671.10
 1030.02        2962.00           2314        2149.00      9369.59
 1030.05        2962.25           2317        2762.00     12043.73
 1030.08        2962.50           2321        3706.00     16162.76
 1030.11        2962.75           2324        4399.00     19187.32
 1030.14        2963.00           2328        5422.00     23653.28
 1030.18        2963.25           2331        6121.00     26705.58
 1030.21        2963.50           2335        7272.00     31733.00
 1030.24        2963.75           2339        8324.00     36329.51
 1030.27        2964.00           2342        9020.00     39371.33
 1030.30        2964.25           2346       10007.00     43686.03
 1030.33        2964.50           2349       10668.00     46576.32
 1030.36        2964.75           2353       11650.00     50871.27
 1030.39        2965.00           2356       12195.00     53255.46
 1030.42        2965.25           2360       13187.00     57596.12
 1030.45        2965.50           2363       13892.00     60681.74
 1030.48        2965.75           2367       14727.00     64337.19
 1030.51        2966.00           2370       15455.00     67524.96
 1030.54        2966.25           2374       16436.00     71821.63
 1030.57        2966.50           2378       16752.00     73205.96
 1030.60        2966.75           2381       16943.00     74042.75
 1030.63        2967.00           2385       17081.00     74647.36
 1030.66        2967.25           2388       16866.00     73705.40
 1030.70        2967.50           2392       17035.00     74445.82
 1030.73        2967.75           2395       16806.00     73442.53
 1030.76        2968.00           2399       16261.00     71055.06
 1030.79        2968.25           2402       15502.00     67730.78
 1030.82        2968.50           2406       14681.00     64135.78
 1030.85        2968.75           2409       13952.00     60944.38
 1030.88        2969.00           2413       13114.00     57276.65
 1030.91        2969.25           2417       11933.00     52109.24
 1030.94        2969.50           2420       11318.00     49419.07
 1030.97        2969.75           2424       10450.00     45623.03
 1031.00        2970.00           2427        9551.00     41692.45
 1031.03        2970.25           2431        8448.00     36871.40
 1031.06        2970.50           2434        7724.00     33707.74
 1031.09        2970.75           2438        6643.00     28985.40
 1031.12        2971.00           2441        5860.00     25565.81
 1031.15        2971.25           2445        4991.00     21771.56
 1031.18        2971.50           2449        3962.00     17279.99
 1031.22        2971.75           2452        3188.00     13902.39
 1031.25        2972.00           2456        2246.00      9792.71
 1031.28        2972.25           2459        1606.00      7001.23
 1031.31        2972.50           2463         820.00      3573.67
 1031.34        2972.75           2466         379.00      1650.92
 1031.37        2973.00           2470         137.00       595.91
 1031.40        2973.25           2473          86.00       373.59
 1031.43        2973.50           2477          92.00       399.74
 1031.46        2973.75           2481          91.00       395.38
 1031.49        2974.00           2484          78.00       338.71
 1031.52        2974.25           2488          88.00       382.31
 1031.55        2974.50           2491          71.00       308.20
 1031.58        2974.75           2495          78.00       338.71
 1031.61        2975.00           2498          77.00       334.35
 1031.64        2975.25           2502          78.00       338.71
 1031.67        2975.50           2505          74.00       321.28
 1031.70        2975.75           2509          72.00       312.56
 1031.74        2976.00           2512          74.00       321.28
 1031.77        2976.25           2516          73.00       316.92
 1031.80        2976.50           2520          73.00       316.92
 1031.83        2976.75           2523          74.00       321.28
 1031.86        2977.00           2527          74.00       321.28
 1031.89        2977.25           2530          67.00       290.76
 1031.92        2977.50           2534          69.00       299.48
 1031.95        2977.75           2537          63.00       273.32
 1031.98        2978.00           2541          60.00       260.25
 1032.01        2978.25           2544          66.00       286.40
 1032.04        2978.50           2548          70.00       303.84
 1032.07        2978.75           2552          64.00       277.68
 1032.10        2979.00           2555          64.00       277.68
 1032.13        2979.25           2559          67.00       290.76
 1032.16        2979.50           2562          61.00       264.61
 1032.19        2979.75           2566          65.00       282.04
 1032.22        2980.00           2569          66.00       286.40
 1032.26        2980.25           2573          68.00       295.12
 1032.29        2980.50           2577          74.00       321.28
 1032.32        2980.75           2580          63.00       273.32
 1032.35        2981.00           2584          70.00       303.84
 1032.38        2981.25           2587          66.00       286.40
 1032.41        2981.50           2591          60.00       260.25
 1032.44        2981.75           2594          63.00       273.32
 1032.47        2982.00           2598          60.00       260.25
 1032.50        2982.25           2601          63.00       273.32
 1032.53        2982.50           2605          64.00       277.68
 1032.56        2982.75           2609          51.00       221.01
 1032.59        2983.00           2612          69.00       299.48
 1032.62        2983.25           2616          59.00       255.89
 1032.65        2983.50           2619          65.00       282.04
 1032.68        2983.75           2623          62.00       268.97
 1032.71        2984.00           2626          64.00       277.68
HS scan finished at 17:12:56
end
