************************************************************
  HS Scan of 
************************************************************
Integration time is 0.2294 seconds per sample
dh090117Reading 51.44 .94 2.84pr1000
************************************************************
Dead Time -------------------------  3.4E-08 
Number of Cycles Used -------------  4 
Starting Wavelength (Angstroms) ---  2950 
Final Wavelength (Angstoms) -------  2984 
Wavelength Increment (Angstroms) --  .25 
Filter Wheel #1 Position ---------- (1) Ground quartz diffuser (ND=2.32)
Filter Wheel #2 Position ---------- (1) Neutral Density 0.494



************************************************************
HS scan start time = 05:15:51
Dark Count =  .7 


Time (GMT)  Wavelength (Ang)  Step Number  Raw Counts  Counts/Second

  316.75        2950.00           2144         793.00      3454.20
  316.94        2950.25           2147         783.00      3410.60
  316.98        2950.50           2151         791.00      3445.48
  317.01        2950.75           2155         790.00      3441.12
  317.04        2951.00           2158         794.00      3458.56
  317.07        2951.25           2162         802.00      3493.44
  317.10        2951.50           2165         802.00      3493.44
  317.13        2951.75           2169         810.00      3528.32
  317.16        2952.00           2172         783.00      3410.60
  317.19        2952.25           2176         788.00      3432.40
  317.22        2952.50           2179         821.00      3576.29
  317.25        2952.75           2183         802.00      3493.44
  317.28        2953.00           2186         845.00      3680.93
  317.31        2953.25           2190         825.00      3593.73
  317.34        2953.50           2193         837.00      3646.05
  317.37        2953.75           2197         827.00      3602.45
  317.40        2954.00           2200         826.00      3598.09
  317.43        2954.25           2204         838.00      3650.41
  317.47        2954.50           2208         819.00      3567.56
  317.50        2954.75           2211         886.00      3859.70
  317.53        2955.00           2215         852.00      3711.45
  317.56        2955.25           2218         836.00      3641.69
  317.59        2955.50           2222         854.00      3720.17
  317.62        2955.75           2225         874.00      3807.38
  317.65        2956.00           2229         878.00      3824.82
  317.68        2956.25           2232         865.00      3768.14
  317.71        2956.50           2236         879.00      3829.18
  317.74        2956.75           2239         882.00      3842.26
  317.77        2957.00           2243         917.00      3994.88
  317.80        2957.25           2246         887.00      3864.06
  317.83        2957.50           2250         911.00      3968.71
  317.86        2957.75           2254         895.00      3898.95
  317.89        2958.00           2257         896.00      3903.31
  317.92        2958.25           2261         907.00      3951.27
  317.95        2958.50           2264         963.00      4195.46
  317.99        2958.75           2268         948.00      4130.05
  318.02        2959.00           2271         936.00      4077.72
  318.05        2959.25           2275         970.00      4225.98
  318.08        2959.50           2278         994.00      4330.63
  318.11        2959.75           2282         981.00      4273.94
  318.14        2960.00           2285        1009.00      4396.04
  318.17        2960.25           2289        1022.00      4452.72
  318.20        2960.50           2293        1030.00      4487.61
  318.23        2960.75           2296        1049.00      4570.46
  318.26        2961.00           2300        1143.00      4980.36
  318.29        2961.25           2303        1424.00      6205.76
  318.32        2961.50           2307        4546.00     19827.22
  318.35        2961.75           2310       10019.00     43736.75
  318.38        2962.00           2314       20260.00     88580.68
  318.41        2962.25           2317       28575.00    125092.00
  318.44        2962.50           2321       39828.00    174649.10
  318.47        2962.75           2324       47851.00    210084.20
  318.50        2963.00           2328       58841.00    258763.10
  318.54        2963.25           2331       68162.00    300176.60
  318.57        2963.50           2335       81649.00    360308.10
  318.60        2963.75           2339       94157.00    416296.70
  318.63        2964.00           2342      102420.00    453401.90
  318.66        2964.25           2346      113494.00    503278.30
  318.69        2964.50           2349      122642.00    544609.30
  318.72        2964.75           2353      134957.00    600434.80
  318.75        2965.00           2356      143852.00    640890.50
  318.78        2965.25           2360      155340.00    693306.60
  318.81        2965.50           2363      163254.00    729526.00
  318.84        2965.75           2367      173779.00    777835.30
  318.87        2966.00           2370      181774.00    814639.90
  318.90        2966.25           2374      193351.00    868100.10
  318.93        2966.50           2378      201343.00    905121.00
  318.96        2966.75           2381      204058.00    917719.10
  318.99        2967.00           2385      204883.00    921549.50
  319.02        2967.25           2388      204729.00    920834.40
  319.06        2967.50           2392      205191.00    922979.80
  319.09        2967.75           2395      204927.00    921753.80
  319.12        2968.00           2399      202713.00    911476.80
  319.15        2968.25           2402      198076.00    889976.10
  319.18        2968.50           2406      187546.00    841269.10
  319.21        2968.75           2409      179238.00    802955.50
  319.24        2969.00           2413      167360.00    748353.20
  319.27        2969.25           2417      155671.00    694819.60
  319.30        2969.50           2420      146319.00    652130.60
  319.33        2969.75           2424      134325.00    597564.50
  319.36        2970.00           2427      124769.00    554236.00
  319.39        2970.25           2431      110576.00    490119.30
  319.42        2970.50           2434      101708.00    450201.00
  319.45        2970.75           2438       89152.00    393867.50
  319.48        2971.00           2441       79847.00    352259.60
  319.51        2971.25           2445       68227.00    300465.80
  319.54        2971.50           2449       57606.00    253284.80
  319.58        2971.75           2452       48716.00    213909.80
  319.61        2972.00           2456       35380.00    155040.50
  319.64        2972.25           2459       26478.00    115875.40
  319.67        2972.50           2463       14946.00     65294.31
  319.70        2972.75           2466        7778.00     33941.93
  319.73        2973.00           2470        2676.00     11666.79
  319.76        2973.25           2473        1497.00      6524.12
  319.79        2973.50           2477        1147.00      4997.80
  319.82        2973.75           2481        1094.00      4766.68
  319.85        2974.00           2484        1081.00      4710.00
  319.88        2974.25           2488        1037.00      4518.13
  319.91        2974.50           2491        1047.00      4561.74
  319.94        2974.75           2495         998.00      4348.07
  319.97        2975.00           2498        1033.00      4500.69
  320.00        2975.25           2502         961.00      4186.73
  320.03        2975.50           2505         986.00      4295.75
  320.06        2975.75           2509         952.00      4147.49
  320.10        2976.00           2512         975.00      4247.78
  320.13        2976.25           2516         938.00      4086.44
  320.16        2976.50           2520         926.00      4034.12
  320.19        2976.75           2523         919.00      4003.60
  320.22        2977.00           2527         916.00      3990.52
  320.25        2977.25           2530         894.00      3894.59
  320.28        2977.50           2534         900.00      3920.75
  320.31        2977.75           2537         874.00      3807.38
  320.34        2978.00           2541         880.00      3833.54
  320.37        2978.25           2544         898.00      3912.03
  320.40        2978.50           2548         876.00      3816.10
  320.43        2978.75           2552         850.00      3702.73
  320.46        2979.00           2555         853.00      3715.81
  320.49        2979.25           2559         844.00      3676.57
  320.52        2979.50           2562         828.00      3606.81
  320.55        2979.75           2566         853.00      3715.81
  320.58        2980.00           2569         817.00      3558.84
  320.62        2980.25           2573         827.00      3602.45
  320.65        2980.50           2577         818.00      3563.20
  320.68        2980.75           2580         828.00      3606.81
  320.71        2981.00           2584         810.00      3528.32
  320.74        2981.25           2587         810.00      3528.32
  320.77        2981.50           2591         793.00      3454.20
  320.80        2981.75           2594         847.00      3689.65
  320.83        2982.00           2598         800.00      3484.72
  320.86        2982.25           2601         792.00      3449.84
  320.89        2982.50           2605         812.00      3537.04
  320.92        2982.75           2609         791.00      3445.48
  320.95        2983.00           2612         792.00      3449.84
  320.98        2983.25           2616         791.00      3445.48
  321.01        2983.50           2619         798.00      3476.00
  321.04        2983.75           2623         758.00      3301.59
  321.07        2984.00           2626         769.00      3349.55
HS scan finished at 05:21:18
end
************************************************************
  HS Scan of 
************************************************************
Integration time is 0.2294 seconds per sample
dh090117Reading 51.44 .94 2.96pr1000
************************************************************
Dead Time -------------------------  3.4E-08 
Number of Cycles Used -------------  4 
Starting Wavelength (Angstroms) ---  2950 
Final Wavelength (Angstoms) -------  2984 
Wavelength Increment (Angstroms) --  .25 
Filter Wheel #1 Position ---------- (1) Ground quartz diffuser (ND=2.32)
Filter Wheel #2 Position ---------- (1) Neutral Density 0.494



************************************************************
HS scan start time = 17:07:24
Dark Count =  1 


Time (GMT)  Wavelength (Ang)  Step Number  Raw Counts  Counts/Second

 1028.30        2950.00           2144         778.00      3387.49
 1028.49        2950.25           2147         771.00      3356.97
 1028.52        2950.50           2151         801.00      3487.77
 1028.55        2950.75           2155         770.00      3352.61
 1028.58        2951.00           2158         806.00      3509.57
 1028.61        2951.25           2162         788.00      3431.09
 1028.64        2951.50           2165         789.00      3435.45
 1028.67        2951.75           2169         777.00      3383.13
 1028.71        2952.00           2172         788.00      3431.09
 1028.74        2952.25           2176         841.00      3662.18
 1028.77        2952.50           2179         810.00      3527.01
 1028.80        2952.75           2183         803.00      3496.49
 1028.83        2953.00           2186         811.00      3531.37
 1028.86        2953.25           2190         798.00      3474.69
 1028.89        2953.50           2193         808.00      3518.29
 1028.92        2953.75           2197         790.00      3439.81
 1028.95        2954.00           2200         818.00      3561.90
 1028.98        2954.25           2204         808.00      3518.29
 1029.01        2954.50           2208         833.00      3627.30
 1029.04        2954.75           2211         843.00      3670.90
 1029.07        2955.00           2215         836.00      3640.38
 1029.10        2955.25           2218         813.00      3540.10
 1029.13        2955.50           2222         866.00      3771.19
 1029.16        2955.75           2225         917.00      3993.57
 1029.19        2956.00           2229         870.00      3788.63
 1029.23        2956.25           2232         834.00      3631.66
 1029.26        2956.50           2236         823.00      3583.70
 1029.29        2956.75           2239         854.00      3718.87
 1029.32        2957.00           2243         888.00      3867.12
 1029.35        2957.25           2246         892.00      3884.56
 1029.38        2957.50           2250         925.00      4028.45
 1029.41        2957.75           2254         877.00      3819.15
 1029.44        2958.00           2257         916.00      3989.21
 1029.47        2958.25           2261         881.00      3836.59
 1029.50        2958.50           2264         921.00      4011.01
 1029.53        2958.75           2268         920.00      4006.65
 1029.56        2959.00           2271         960.00      4181.07
 1029.59        2959.25           2275         948.00      4128.74
 1029.62        2959.50           2278         947.00      4124.38
 1029.65        2959.75           2282         962.00      4189.79
 1029.68        2960.00           2285         957.00      4167.98
 1029.71        2960.25           2289         976.00      4250.83
 1029.75        2960.50           2293         997.00      4342.40
 1029.78        2960.75           2296        1064.00      4634.56
 1029.81        2961.00           2300        1108.00      4826.42
 1029.84        2961.25           2303        1333.00      5807.60
 1029.87        2961.50           2307        3967.00     17298.75
 1029.90        2961.75           2310        9357.00     40841.33
 1029.93        2962.00           2314       19157.00     83742.90
 1029.96        2962.25           2317       27097.00    118594.10
 1029.99        2962.50           2321       37243.00    163248.90
 1030.02        2962.75           2324       44696.00    196138.00
 1030.05        2963.00           2328       55936.00    245878.70
 1030.08        2963.25           2331       65483.00    288260.40
 1030.11        2963.50           2335       78356.00    345602.20
 1030.14        2963.75           2339       89440.00    395155.90
 1030.17        2964.00           2342       97209.00    429989.50
 1030.20        2964.25           2346      108376.00    480204.80
 1030.23        2964.50           2349      117159.00    519821.50
 1030.27        2964.75           2353      129299.00    574758.40
 1030.30        2965.00           2356      137778.00    613251.50
 1030.33        2965.25           2360      147552.00    657750.30
 1030.36        2965.50           2363      154884.00    691221.10
 1030.39        2965.75           2367      165382.00    739279.10
 1030.42        2966.00           2370      173971.00    778716.70
 1030.45        2966.25           2374      184284.00    826212.40
 1030.48        2966.50           2378      192737.00    865258.50
 1030.51        2966.75           2381      194828.00    874933.50
 1030.54        2967.00           2385      195882.00    879812.80
 1030.57        2967.25           2388      195857.00    879697.00
 1030.60        2967.50           2392      195259.00    876928.50
 1030.63        2967.75           2395      195863.00    879724.80
 1030.66        2968.00           2399      194225.00    872142.80
 1030.69        2968.25           2402      189508.00    850330.70
 1030.72        2968.50           2406      179361.00    803520.50
 1030.75        2968.75           2409      170710.00    763730.70
 1030.79        2969.00           2413      159884.00    714090.40
 1030.82        2969.25           2417      149591.00    667050.70
 1030.85        2969.50           2420      141354.00    629516.40
 1030.88        2969.75           2424      129648.00    576340.80
 1030.91        2970.00           2427      119777.00    531651.10
 1030.94        2970.25           2431      106916.00    473629.70
 1030.97        2970.50           2434       98018.00    433621.60
 1031.00        2970.75           2438       86561.00    382268.40
 1031.03        2971.00           2441       77479.00    341688.50
 1031.06        2971.25           2445       65867.00    289967.60
 1031.09        2971.50           2449       54730.00    240533.70
 1031.12        2971.75           2452       46822.00    205533.30
 1031.15        2972.00           2456       34698.00    152035.00
 1031.18        2972.25           2459       25854.00    113132.70
 1031.21        2972.50           2463       14916.00     65161.65
 1031.24        2972.75           2466        8141.00     35526.76
 1031.27        2973.00           2470        3030.00     13209.94
 1031.31        2973.25           2473        1538.00      6701.61
 1031.34        2973.50           2477        1114.00      4852.59
 1031.37        2973.75           2481        1067.00      4647.64
 1031.40        2974.00           2484        1054.00      4590.95
 1031.43        2974.25           2488         999.00      4351.12
 1031.46        2974.50           2491         983.00      4281.36
 1031.49        2974.75           2495         987.00      4298.80
 1031.52        2975.00           2498         962.00      4189.79
 1031.55        2975.25           2502         968.00      4215.95
 1031.58        2975.50           2505         929.00      4045.89
 1031.61        2975.75           2509         914.00      3980.49
 1031.64        2976.00           2512         916.00      3989.21
 1031.67        2976.25           2516         884.00      3849.68
 1031.70        2976.50           2520         919.00      4002.29
 1031.73        2976.75           2523         869.00      3784.27
 1031.76        2977.00           2527         869.00      3784.27
 1031.79        2977.25           2530         886.00      3858.40
 1031.83        2977.50           2534         832.00      3622.94
 1031.86        2977.75           2537         876.00      3814.79
 1031.89        2978.00           2541         894.00      3893.28
 1031.92        2978.25           2544         851.00      3705.79
 1031.95        2978.50           2548         854.00      3718.87
 1031.98        2978.75           2552         820.00      3570.62
 1032.01        2979.00           2555         858.00      3736.31
 1032.04        2979.25           2559         834.00      3631.66
 1032.07        2979.50           2562         830.00      3614.22
 1032.10        2979.75           2566         832.00      3622.94
 1032.13        2980.00           2569         800.00      3483.41
 1032.16        2980.25           2573         802.00      3492.13
 1032.19        2980.50           2577         804.00      3500.85
 1032.22        2980.75           2580         797.00      3470.33
 1032.25        2981.00           2584         777.00      3383.13
 1032.28        2981.25           2587         794.00      3457.25
 1032.31        2981.50           2591         776.00      3378.77
 1032.34        2981.75           2594         799.00      3479.05
 1032.38        2982.00           2598         763.00      3322.08
 1032.41        2982.25           2601         774.00      3370.05
 1032.44        2982.50           2605         777.00      3383.13
 1032.47        2982.75           2609         781.00      3400.57
 1032.50        2983.00           2612         742.00      3230.52
 1032.53        2983.25           2616         778.00      3387.49
 1032.56        2983.50           2619         742.00      3230.52
 1032.59        2983.75           2623         779.00      3391.85
 1032.62        2984.00           2626         756.00      3291.56
HS scan finished at 17:12:51
end
