************************************************************
  HS Scan of (1) Internal mercury lamp
************************************************************
Integration time is 0.2294 seconds per sample
dh060119Reading 51.44 .94 2.78pr1000
************************************************************
Dead Time -------------------------  3.4E-08 
Number of Cycles Used -------------  4 
Starting Wavelength (Angstroms) ---  2950 
Final Wavelength (Angstoms) -------  2984 
Wavelength Increment (Angstroms) --  .25 
Filter Wheel #1 Position ---------- (1) Ground quartz diffuser (ND=2.32)
Filter Wheel #2 Position ---------- (1) Neutral Density 0.494



************************************************************
HS scan start time = 05:16:28
Dark Count =  .4 


Time (GMT)  Wavelength (Ang)  Step Number  Raw Counts  Counts/Second

  317.37        2950.00           2144        1436.00      6259.40
  317.56        2950.25           2147        1446.00      6303.01
  317.59        2950.50           2151        1457.00      6350.98
  317.62        2950.75           2155        1438.00      6268.12
  317.65        2951.00           2158        1440.00      6276.84
  317.68        2951.25           2162        1459.00      6359.70
  317.71        2951.50           2165        1506.00      6564.67
  317.74        2951.75           2169        1471.00      6412.03
  317.77        2952.00           2172        1465.00      6385.87
  317.80        2952.25           2176        1510.00      6582.12
  317.83        2952.50           2179        1506.00      6564.67
  317.86        2952.75           2183        1482.00      6460.01
  317.90        2953.00           2186        1493.00      6507.98
  317.93        2953.25           2190        1489.00      6490.53
  317.96        2953.50           2193        1487.00      6481.81
  317.99        2953.75           2197        1532.00      6678.06
  318.02        2954.00           2200        1518.00      6617.01
  318.05        2954.25           2204        1492.00      6503.62
  318.08        2954.50           2208        1529.00      6664.98
  318.11        2954.75           2211        1535.00      6691.15
  318.14        2955.00           2215        1530.00      6669.34
  318.17        2955.25           2218        1533.00      6682.43
  318.20        2955.50           2222        1565.00      6821.98
  318.23        2955.75           2225        1557.00      6787.09
  318.26        2956.00           2229        1544.00      6730.40
  318.29        2956.25           2232        1605.00      6996.43
  318.32        2956.50           2236        1558.00      6791.45
  318.35        2956.75           2239        1593.00      6944.10
  318.38        2957.00           2243        1663.00      7249.39
  318.42        2957.25           2246        1629.00      7101.10
  318.45        2957.50           2250        1636.00      7131.63
  318.48        2957.75           2254        1642.00      7157.80
  318.51        2958.00           2257        1614.00      7035.68
  318.54        2958.25           2261        1676.00      7306.09
  318.57        2958.50           2264        1682.00      7332.26
  318.60        2958.75           2268        1730.00      7541.60
  318.63        2959.00           2271        1720.00      7497.99
  318.66        2959.25           2275        1728.00      7532.88
  318.69        2959.50           2278        1750.00      7628.83
  318.72        2959.75           2282        1797.00      7833.82
  318.75        2960.00           2285        1780.00      7759.68
  318.78        2960.25           2289        1820.00      7934.14
  318.81        2960.50           2293        1853.00      8078.07
  318.84        2960.75           2296        1897.00      8269.98
  318.87        2961.00           2300        2001.00      8723.60
  318.90        2961.25           2303        2498.00     10891.57
  318.94        2961.50           2307        6616.00     28867.03
  318.97        2961.75           2310       14461.00     63172.16
  319.00        2962.00           2314       29908.00    130954.90
  319.03        2962.25           2317       44141.00    193689.00
  319.06        2962.50           2321       66594.00    293203.10
  319.09        2962.75           2324       82418.00    363745.50
  319.12        2963.00           2328      101678.00    450067.50
  319.15        2963.25           2331      116621.00    517394.40
  319.18        2963.50           2335      138823.00    618005.40
  319.21        2963.75           2339      162305.00    725179.30
  319.24        2964.00           2342      180082.00    806844.50
  319.27        2964.25           2346      201253.00    904705.00
  319.30        2964.50           2349      215983.00    973185.00
  319.33        2964.75           2353      237889.00   1075630.00
  319.36        2965.00           2356      253229.00   1147804.00
  319.40        2965.25           2360      273286.00   1242720.00
  319.43        2965.50           2363      288330.00   1314326.00
  319.46        2965.75           2367      308384.00   1410337.00
  319.49        2966.00           2370      322652.00   1479040.00
  319.52        2966.25           2374      340809.00   1566949.00
  319.55        2966.50           2378      353444.00   1628442.00
  319.58        2966.75           2381      356856.00   1645094.00
  319.61        2967.00           2385      358771.00   1654448.00
  319.64        2967.25           2388      359296.00   1657013.00
  319.67        2967.50           2392      358859.00   1654878.00
  319.70        2967.75           2395      358546.00   1653348.00
  319.74        2968.00           2399      353207.00   1627286.00
  319.77        2968.25           2402      344397.00   1584384.00
  319.80        2968.50           2406      328642.00   1507981.00
  319.83        2968.75           2409      315141.00   1442832.00
  319.86        2969.00           2413      294954.00   1345969.00
  319.89        2969.25           2417      274592.00   1248922.00
  319.92        2969.50           2420      259493.00   1177380.00
  319.95        2969.75           2424      238911.00   1080427.00
  319.98        2970.00           2427      224028.00   1010724.00
  320.01        2970.25           2431      202394.00    909997.90
  320.04        2970.50           2434      187320.00    840226.90
  320.07        2970.75           2438      166644.00    745069.80
  320.10        2971.00           2441      150157.00    669636.10
  320.13        2971.25           2445      127258.00    565510.50
  320.16        2971.50           2449      105812.00    468662.50
  320.19        2971.75           2452       89424.00    395086.90
  320.22        2972.00           2456       70599.00    311025.00
  320.25        2972.25           2459       56017.00    246240.40
  320.29        2972.50           2463       36137.00    158377.20
  320.32        2972.75           2466       20159.00     88139.06
  320.35        2973.00           2470        5925.00     25849.22
  320.38        2973.25           2473        2895.00     12623.55
  320.41        2973.50           2477        2041.00      8898.07
  320.44        2973.75           2481        1913.00      8339.77
  320.47        2974.00           2484        1877.00      8182.75
  320.50        2974.25           2488        1822.00      7942.86
  320.53        2974.50           2491        1771.00      7720.42
  320.56        2974.75           2495        1799.00      7842.54
  320.59        2975.00           2498        1761.00      7676.81
  320.62        2975.25           2502        1753.00      7641.92
  320.65        2975.50           2505        1717.00      7484.90
  320.68        2975.75           2509        1708.00      7445.65
  320.71        2976.00           2512        1675.00      7301.73
  320.74        2976.25           2516        1690.00      7367.15
  320.77        2976.50           2520        1626.00      7088.02
  320.81        2976.75           2523        1610.00      7018.24
  320.84        2977.00           2527        1582.00      6896.12
  320.87        2977.25           2530        1553.00      6769.65
  320.90        2977.50           2534        1599.00      6970.27
  320.93        2977.75           2537        1564.00      6817.62
  320.96        2978.00           2541        1568.00      6835.07
  320.99        2978.25           2544        1537.00      6699.87
  321.02        2978.50           2548        1503.00      6551.59
  321.05        2978.75           2552        1515.00      6603.92
  321.08        2979.00           2555        1474.00      6425.12
  321.11        2979.25           2559        1437.00      6263.76
  321.14        2979.50           2562        1486.00      6477.45
  321.17        2979.75           2566        1486.00      6477.45
  321.20        2980.00           2569        1453.00      6333.54
  321.23        2980.25           2573        1437.00      6263.76
  321.26        2980.50           2577        1435.00      6255.04
  321.29        2980.75           2580        1440.00      6276.84
  321.33        2981.00           2584        1424.00      6207.06
  321.36        2981.25           2587        1427.00      6220.15
  321.39        2981.50           2591        1422.00      6198.34
  321.42        2981.75           2594        1419.00      6185.26
  321.45        2982.00           2598        1415.00      6167.81
  321.48        2982.25           2601        1391.00      6063.15
  321.51        2982.50           2605        1385.00      6036.98
  321.54        2982.75           2609        1374.00      5989.01
  321.57        2983.00           2612        1399.00      6098.04
  321.60        2983.25           2616        1361.00      5932.32
  321.63        2983.50           2619        1347.00      5871.27
  321.66        2983.75           2623        1380.00      6015.18
  321.69        2984.00           2626        1360.00      5927.96
HS scan finished at 05:21:55
end
************************************************************
  HS Scan of (1) Internal mercury lamp
************************************************************
Integration time is 0.2294 seconds per sample
dh060119Reading 51.44 .94 2.98pr1000
************************************************************
Dead Time -------------------------  3.4E-08 
Number of Cycles Used -------------  4 
Starting Wavelength (Angstroms) ---  2950 
Final Wavelength (Angstoms) -------  2984 
Wavelength Increment (Angstroms) --  .25 
Filter Wheel #1 Position ---------- (1) Ground quartz diffuser (ND=2.32)
Filter Wheel #2 Position ---------- (1) Neutral Density 0.494



************************************************************
HS scan start time = 17:07:30
Dark Count =  .7 


Time (GMT)  Wavelength (Ang)  Step Number  Raw Counts  Counts/Second

 1028.40        2950.00           2144        1449.00      6314.78
 1028.59        2950.25           2147        1411.00      6149.06
 1028.62        2950.50           2151        1422.00      6197.03
 1028.65        2950.75           2155        1427.00      6218.84
 1028.68        2951.00           2158        1389.00      6053.12
 1028.71        2951.25           2162        1470.00      6406.36
 1028.74        2951.50           2165        1439.00      6271.17
 1028.77        2951.75           2169        1456.00      6345.31
 1028.80        2952.00           2172        1468.00      6397.64
 1028.83        2952.25           2176        1438.00      6266.81
 1028.86        2952.50           2179        1420.00      6188.31
 1028.89        2952.75           2183        1442.00      6284.26
 1028.93        2953.00           2186        1476.00      6432.53
 1028.96        2953.25           2190        1469.00      6402.00
 1028.99        2953.50           2193        1424.00      6205.76
 1029.02        2953.75           2197        1478.00      6441.25
 1029.05        2954.00           2200        1464.00      6380.20
 1029.08        2954.25           2204        1485.00      6471.78
 1029.11        2954.50           2208        1474.00      6423.81
 1029.14        2954.75           2211        1499.00      6532.84
 1029.17        2955.00           2215        1509.00      6576.45
 1029.20        2955.25           2218        1468.00      6397.64
 1029.23        2955.50           2222        1498.00      6528.48
 1029.26        2955.75           2225        1505.00      6559.00
 1029.29        2956.00           2229        1566.00      6825.04
 1029.32        2956.25           2232        1569.00      6838.12
 1029.35        2956.50           2236        1542.00      6720.37
 1029.38        2956.75           2239        1527.00      6654.95
 1029.41        2957.00           2243        1557.00      6785.79
 1029.45        2957.25           2246        1573.00      6855.57
 1029.49        2957.50           2250        1575.00      6864.29
 1029.52        2957.75           2254        1601.00      6977.68
 1029.55        2958.00           2257        1629.00      7099.80
 1029.58        2958.25           2261        1642.00      7156.49
 1029.61        2958.50           2264        1635.00      7125.96
 1029.64        2958.75           2268        1630.00      7104.16
 1029.67        2959.00           2271        1659.00      7230.64
 1029.70        2959.25           2275        1710.00      7453.07
 1029.73        2959.50           2278        1739.00      7579.55
 1029.76        2959.75           2282        1739.00      7579.55
 1029.79        2960.00           2285        1761.00      7675.50
 1029.82        2960.25           2289        1783.00      7771.45
 1029.85        2960.50           2293        1785.00      7780.18
 1029.88        2960.75           2296        1860.00      8107.29
 1029.92        2961.00           2300        1928.00      8403.88
 1029.95        2961.25           2303        2280.00      9939.28
 1029.98        2961.50           2307        5391.00     23516.18
 1030.01        2961.75           2310       12816.00     55970.85
 1030.04        2962.00           2314       28488.00    124709.50
 1030.07        2962.25           2317       42997.00    188635.40
 1030.10        2962.50           2321       63397.00    278991.00
 1030.13        2962.75           2324       78315.00    345420.50
 1030.16        2963.00           2328       97896.00    433075.10
 1030.19        2963.25           2331      114341.00    507100.20
 1030.22        2963.50           2335      137334.00    611234.60
 1030.25        2963.75           2339      160452.00    716691.90
 1030.28        2964.00           2342      176190.00    788924.40
 1030.31        2964.25           2346      197009.00    885033.10
 1030.34        2964.50           2349      212289.00    955979.70
 1030.37        2964.75           2353      233856.00   1056714.00
 1030.40        2965.00           2356      250115.00   1133122.00
 1030.44        2965.25           2360      272088.00   1237032.00
 1030.47        2965.50           2363      287052.00   1308228.00
 1030.50        2965.75           2367      305146.00   1394790.00
 1030.53        2966.00           2370      319895.00   1465738.00
 1030.56        2966.25           2374      338821.00   1557296.00
 1030.59        2966.50           2378      355545.00   1638692.00
 1030.62        2966.75           2381      363199.00   1676099.00
 1030.65        2967.00           2385      366209.00   1690837.00
 1030.68        2967.25           2388      367104.00   1695222.00
 1030.71        2967.50           2392      367343.00   1696393.00
 1030.74        2967.75           2395      367639.00   1697844.00
 1030.77        2968.00           2399      365348.00   1686620.00
 1030.80        2968.25           2402      359805.00   1659500.00
 1030.83        2968.50           2406      345525.00   1589869.00
 1030.86        2968.75           2409      330539.00   1517158.00
 1030.89        2969.00           2413      308435.00   1410581.00
 1030.92        2969.25           2417      286957.00   1307775.00
 1030.96        2969.50           2420      271612.00   1234773.00
 1030.99        2969.75           2424      250748.00   1136105.00
 1031.02        2970.00           2427      232950.00   1052468.00
 1031.05        2970.25           2431      208486.00    938289.40
 1031.08        2970.50           2434      191456.00    859335.90
 1031.11        2970.75           2438      169683.00    759015.70
 1031.14        2971.00           2441      151630.00    676358.30
 1031.17        2971.25           2445      130973.00    582351.30
 1031.20        2971.50           2449      110782.00    491048.00
 1031.23        2971.75           2452       95187.00    420916.80
 1031.26        2972.00           2456       73835.00    325439.50
 1031.29        2972.25           2459       57147.00    251249.20
 1031.32        2972.50           2463       34203.00    149856.20
 1031.35        2972.75           2466       19471.00     85120.89
 1031.38        2973.00           2470        6757.00     29481.59
 1031.41        2973.25           2473        3388.00     14773.33
 1031.44        2973.50           2477        2126.00      9267.52
 1031.48        2973.75           2481        1919.00      8364.63
 1031.51        2974.00           2484        1873.00      8163.99
 1031.54        2974.25           2488        1813.00      7902.30
 1031.57        2974.50           2491        1801.00      7849.96
 1031.60        2974.75           2495        1732.00      7549.02
 1031.63        2975.00           2498        1756.00      7653.69
 1031.66        2975.25           2502        1692.00      7374.56
 1031.69        2975.50           2505        1722.00      7505.40
 1031.72        2975.75           2509        1667.00      7265.53
 1031.75        2976.00           2512        1628.00      7095.43
 1031.78        2976.25           2516        1678.00      7313.50
 1031.81        2976.50           2520        1603.00      6986.40
 1031.84        2976.75           2523        1597.00      6960.23
 1031.87        2977.00           2527        1587.00      6916.62
 1031.90        2977.25           2530        1552.00      6763.98
 1031.93        2977.50           2534        1517.00      6611.34
 1031.96        2977.75           2537        1509.00      6576.45
 1032.00        2978.00           2541        1509.00      6576.45
 1032.03        2978.25           2544        1526.00      6650.59
 1032.06        2978.50           2548        1490.00      6493.59
 1032.09        2978.75           2552        1484.00      6467.42
 1032.12        2979.00           2555        1490.00      6493.59
 1032.15        2979.25           2559        1481.00      6454.34
 1032.18        2979.50           2562        1492.00      6502.31
 1032.21        2979.75           2566        1483.00      6463.06
 1032.24        2980.00           2569        1429.00      6227.56
 1032.27        2980.25           2573        1417.00      6175.23
 1032.30        2980.50           2577        1425.00      6210.12
 1032.33        2980.75           2580        1367.00      5957.18
 1032.36        2981.00           2584        1363.00      5939.74
 1032.39        2981.25           2587        1408.00      6135.98
 1032.42        2981.50           2591        1424.00      6205.76
 1032.45        2981.75           2594        1382.00      6022.59
 1032.48        2982.00           2598        1407.00      6131.62
 1032.52        2982.25           2601        1373.00      5983.34
 1032.55        2982.50           2605        1381.00      6018.23
 1032.58        2982.75           2609        1354.00      5900.49
 1032.61        2983.00           2612        1377.00      6000.79
 1032.64        2983.25           2616        1348.00      5874.32
 1032.67        2983.50           2619        1314.00      5726.05
 1032.70        2983.75           2623        1337.00      5826.35
 1032.73        2984.00           2626        1369.00      5965.90
HS scan finished at 17:12:57
end
