************************************************************
  HS Scan of (1) Internal mercury lamp
************************************************************
Integration time is 0.2294 seconds per sample
dh040119Reading 51.44 .94 2.62pr1000
************************************************************
Dead Time -------------------------  3.4E-08 
Number of Cycles Used -------------  4 
Starting Wavelength (Angstroms) ---  2950 
Final Wavelength (Angstoms) -------  2984 
Wavelength Increment (Angstroms) --  .25 
Filter Wheel #1 Position ---------- (1) Ground quartz diffuser (ND=2.32)
Filter Wheel #2 Position ---------- (1) Neutral Density 0.494



************************************************************
HS scan start time = 05:16:37
Dark Count =  .4 


Time (GMT)  Wavelength (Ang)  Step Number  Raw Counts  Counts/Second

  317.52        2950.00           2144        1570.00      6843.79
  317.71        2950.25           2147        1523.00      6638.81
  317.74        2950.50           2151        1540.00      6712.95
  317.77        2950.75           2155        1559.00      6795.82
  317.80        2951.00           2158        1592.00      6939.74
  317.83        2951.25           2162        1605.00      6996.43
  317.86        2951.50           2165        1579.00      6883.04
  317.89        2951.75           2169        1572.00      6852.51
  317.92        2952.00           2172        1568.00      6835.07
  317.95        2952.25           2176        1600.00      6974.63
  317.99        2952.50           2179        1599.00      6970.27
  318.02        2952.75           2183        1602.00      6983.35
  318.05        2953.00           2186        1576.00      6869.96
  318.08        2953.25           2190        1618.00      7053.13
  318.11        2953.50           2193        1617.00      7048.77
  318.14        2953.75           2197        1622.00      7070.58
  318.17        2954.00           2200        1628.00      7096.74
  318.20        2954.25           2204        1634.00      7122.91
  318.23        2954.50           2208        1627.00      7092.38
  318.26        2954.75           2211        1661.00      7240.67
  318.29        2955.00           2215        1700.00      7410.76
  318.32        2955.25           2218        1637.00      7135.99
  318.35        2955.50           2222        1683.00      7336.62
  318.38        2955.75           2225        1687.00      7354.06
  318.41        2956.00           2229        1734.00      7559.05
  318.44        2956.25           2232        1731.00      7545.96
  318.47        2956.50           2236        1675.00      7301.73
  318.51        2956.75           2239        1728.00      7532.88
  318.54        2957.00           2243        1790.00      7803.29
  318.57        2957.25           2246        1772.00      7724.78
  318.60        2957.50           2250        1808.00      7881.80
  318.63        2957.75           2254        1830.00      7977.75
  318.66        2958.00           2257        1818.00      7925.41
  318.69        2958.25           2261        1833.00      7990.84
  318.72        2958.50           2264        1823.00      7947.22
  318.75        2958.75           2268        1815.00      7912.33
  318.78        2959.00           2271        1839.00      8017.01
  318.81        2959.25           2275        1943.00      8470.62
  318.84        2959.50           2278        1901.00      8287.43
  318.87        2959.75           2282        1959.00      8540.40
  318.90        2960.00           2285        2006.00      8745.41
  318.93        2960.25           2289        2020.00      8806.47
  318.96        2960.50           2293        2086.00      9094.36
  318.99        2960.75           2296        2089.00      9107.44
  319.03        2961.00           2300        2256.00      9835.90
  319.06        2961.25           2303        2607.00     11367.08
  319.09        2961.50           2307        6706.00     29260.14
  319.12        2961.75           2310       16335.00     71378.78
  319.15        2962.00           2314       36733.00    161003.60
  319.18        2962.25           2317       54729.00    240531.90
  319.21        2962.50           2321       80881.00    356878.70
  319.24        2962.75           2324       99717.00    441255.00
  319.27        2963.00           2328      124106.00    551236.00
  319.30        2963.25           2331      142978.00    636911.60
  319.33        2963.50           2335      172659.00    772688.30
  319.36        2963.75           2339      200403.00    900763.20
  319.39        2964.00           2342      220140.00    992569.80
  319.42        2964.25           2346      246051.00   1113987.00
  319.45        2964.50           2349      265632.00   1206425.00
  319.48        2964.75           2353      290345.00   1323944.00
  319.51        2965.00           2356      309375.00   1415098.00
  319.55        2965.25           2360      335135.00   1539419.00
  319.58        2965.50           2363      353183.00   1627169.00
  319.61        2965.75           2367      377820.00   1747832.00
  319.64        2966.00           2370      394459.00   1829905.00
  319.67        2966.25           2374      414893.00   1931348.00
  319.70        2966.50           2378      429782.00   2005723.00
  319.73        2966.75           2381      433649.00   2025104.00
  319.76        2967.00           2385      435986.00   2036829.00
  319.79        2967.25           2388      436319.00   2038501.00
  319.82        2967.50           2392      436469.00   2039254.00
  319.85        2967.75           2395      431403.00   2013844.00
  319.88        2968.00           2399      427909.00   1996345.00
  319.91        2968.25           2402      415969.00   1936710.00
  319.94        2968.50           2406      397572.00   1845312.00
  319.97        2968.75           2409      381259.00   1764756.00
  320.00        2969.00           2413      358285.00   1652073.00
  320.03        2969.25           2417      332934.00   1528755.00
  320.07        2969.50           2420      315428.00   1444214.00
  320.10        2969.75           2424      291168.00   1327875.00
  320.13        2970.00           2427      273592.00   1244173.00
  320.16        2970.25           2431      248121.00   1123731.00
  320.19        2970.50           2434      226293.00   1021310.00
  320.22        2970.75           2438      199311.00    895700.80
  320.25        2971.00           2441      179305.00    803265.50
  320.28        2971.25           2445      153226.00    683648.20
  320.31        2971.50           2449      129157.00    574117.30
  320.34        2971.75           2452      108152.00    479198.50
  320.37        2972.00           2456       82537.00    364277.30
  320.40        2972.25           2459       63905.00    281249.50
  320.43        2972.50           2463       39934.00    175118.10
  320.46        2972.75           2466       23308.00    101955.30
  320.49        2973.00           2470        8052.00     35140.48
  320.52        2973.25           2473        3664.00     15979.04
  320.55        2973.50           2477        2320.00     10115.07
  320.59        2973.75           2481        2129.00      9281.92
  320.62        2974.00           2484        2130.00      9286.28
  320.65        2974.25           2488        2008.00      8754.13
  320.68        2974.50           2491        2016.00      8789.03
  320.71        2974.75           2495        1988.00      8666.89
  320.74        2975.00           2498        1906.00      8309.23
  320.77        2975.25           2502        1923.00      8383.38
  320.80        2975.50           2505        1892.00      8248.17
  320.83        2975.75           2509        1870.00      8152.22
  320.86        2976.00           2512        1845.00      8043.18
  320.89        2976.25           2516        1810.00      7890.52
  320.92        2976.50           2520        1783.00      7772.76
  320.95        2976.75           2523        1776.00      7742.23
  320.98        2977.00           2527        1767.00      7702.98
  321.01        2977.25           2530        1731.00      7545.96
  321.04        2977.50           2534        1723.00      7511.07
  321.07        2977.75           2537        1708.00      7445.65
  321.11        2978.00           2541        1671.00      7284.28
  321.14        2978.25           2544        1701.00      7415.12
  321.17        2978.50           2548        1635.00      7127.27
  321.20        2978.75           2552        1636.00      7131.63
  321.23        2979.00           2555        1642.00      7157.80
  321.26        2979.25           2559        1600.00      6974.63
  321.29        2979.50           2562        1625.00      7083.66
  321.32        2979.75           2566        1602.00      6983.35
  321.35        2980.00           2569        1562.00      6808.90
  321.38        2980.25           2573        1578.00      6878.68
  321.41        2980.50           2577        1592.00      6939.74
  321.44        2980.75           2580        1518.00      6617.01
  321.47        2981.00           2584        1536.00      6695.51
  321.50        2981.25           2587        1518.00      6617.01
  321.53        2981.50           2591        1506.00      6564.67
  321.56        2981.75           2594        1510.00      6582.12
  321.59        2982.00           2598        1515.00      6603.92
  321.62        2982.25           2601        1526.00      6651.90
  321.66        2982.50           2605        1517.00      6612.65
  321.69        2982.75           2609        1485.00      6473.09
  321.72        2983.00           2612        1505.00      6560.31
  321.75        2983.25           2616        1489.00      6490.53
  321.78        2983.50           2619        1485.00      6473.09
  321.81        2983.75           2623        1496.00      6521.06
  321.84        2984.00           2626        1461.00      6368.42
HS scan finished at 05:22:04
end
************************************************************
  HS Scan of (1) Internal mercury lamp
************************************************************
Integration time is 0.2294 seconds per sample
dh040119Reading 51.44 .94 2.64pr1000
************************************************************
Dead Time -------------------------  3.4E-08 
Number of Cycles Used -------------  4 
Starting Wavelength (Angstroms) ---  2950 
Final Wavelength (Angstoms) -------  2984 
Wavelength Increment (Angstroms) --  .25 
Filter Wheel #1 Position ---------- (1) Ground quartz diffuser (ND=2.32)
Filter Wheel #2 Position ---------- (1) Neutral Density 0.494



************************************************************
HS scan start time = 17:07:27
Dark Count =  .5 


Time (GMT)  Wavelength (Ang)  Step Number  Raw Counts  Counts/Second

 1028.36        2950.00           2144        1178.00      5133.85
 1028.55        2950.25           2147        1239.00      5399.86
 1028.58        2950.50           2151        1199.00      5225.43
 1028.61        2950.75           2155        1197.00      5216.71
 1028.64        2951.00           2158        1219.00      5312.64
 1028.67        2951.25           2162        1193.00      5199.26
 1028.70        2951.50           2165        1201.00      5234.15
 1028.73        2951.75           2169        1194.00      5203.62
 1028.76        2952.00           2172        1233.00      5373.69
 1028.79        2952.25           2176        1194.00      5203.62
 1028.82        2952.50           2179        1200.00      5229.79
 1028.86        2952.75           2183        1207.00      5260.31
 1028.89        2953.00           2186        1254.00      5465.27
 1028.92        2953.25           2190        1176.00      5125.13
 1028.95        2953.50           2193        1227.00      5347.53
 1028.98        2953.75           2197        1213.00      5286.48
 1029.01        2954.00           2200        1217.00      5303.92
 1029.04        2954.25           2204        1266.00      5517.60
 1029.07        2954.50           2208        1243.00      5417.30
 1029.10        2954.75           2211        1221.00      5321.36
 1029.13        2955.00           2215        1258.00      5482.71
 1029.16        2955.25           2218        1273.00      5548.13
 1029.19        2955.50           2222        1275.00      5556.85
 1029.22        2955.75           2225        1259.00      5487.07
 1029.25        2956.00           2229        1288.00      5613.54
 1029.28        2956.25           2232        1288.00      5613.54
 1029.31        2956.50           2236        1285.00      5600.46
 1029.34        2956.75           2239        1289.00      5617.90
 1029.37        2957.00           2243        1304.00      5683.31
 1029.41        2957.25           2246        1301.00      5670.23
 1029.44        2957.50           2250        1321.00      5757.45
 1029.47        2957.75           2254        1370.00      5971.13
 1029.50        2958.00           2257        1304.00      5683.31
 1029.53        2958.25           2261        1356.00      5910.08
 1029.56        2958.50           2264        1376.00      5997.30
 1029.59        2958.75           2268        1380.00      6014.74
 1029.62        2959.00           2271        1362.00      5936.25
 1029.65        2959.25           2275        1414.00      6163.02
 1029.68        2959.50           2278        1377.00      6001.66
 1029.71        2959.75           2282        1433.00      6245.88
 1029.74        2960.00           2285        1444.00      6293.85
 1029.77        2960.25           2289        1445.00      6298.21
 1029.80        2960.50           2293        1440.00      6276.40
 1029.83        2960.75           2296        1474.00      6424.68
 1029.86        2961.00           2300        1583.00      6900.05
 1029.90        2961.25           2303        1675.00      7301.29
 1029.93        2961.50           2307        3098.00     13508.82
 1029.96        2961.75           2310        7798.00     34030.20
 1029.99        2962.00           2314       18218.00     79628.99
 1030.02        2962.25           2317       27867.00    121980.50
 1030.05        2962.50           2321       42627.00    187002.60
 1030.08        2962.75           2324       54960.00    241555.10
 1030.11        2963.00           2328       71967.00    317117.00
 1030.14        2963.25           2331       84954.00    375082.10
 1030.17        2963.50           2335      100558.00    445033.20
 1030.20        2963.75           2339      116484.00    516775.30
 1030.23        2964.00           2342      128649.00    571814.00
 1030.26        2964.25           2346      146641.00    653599.40
 1030.29        2964.50           2349      159531.00    712476.90
 1030.32        2964.75           2353      174808.00    782568.00
 1030.35        2965.00           2356      187248.00    839894.10
 1030.38        2965.25           2360      202514.00    910554.20
 1030.42        2965.50           2363      212474.00    956841.80
 1030.45        2965.75           2367      226855.00   1023938.00
 1030.48        2966.00           2370      239596.00   1083643.00
 1030.51        2966.25           2374      254231.00   1152531.00
 1030.54        2966.50           2378      267378.00   1214696.00
 1030.57        2966.75           2381      271061.00   1232160.00
 1030.60        2967.00           2385      274885.00   1250314.00
 1030.63        2967.25           2388      275610.00   1253758.00
 1030.66        2967.50           2392      275241.00   1252005.00
 1030.69        2967.75           2395      275084.00   1251259.00
 1030.72        2968.00           2399      273587.00   1244149.00
 1030.75        2968.25           2402      269592.00   1225192.00
 1030.78        2968.50           2406      257926.00   1169976.00
 1030.81        2968.75           2409      246916.00   1118058.00
 1030.84        2969.00           2413      232693.00   1051265.00
 1030.87        2969.25           2417      219491.00    989541.20
 1030.90        2969.50           2420      208753.00    939531.60
 1030.94        2969.75           2424      192830.00    865691.00
 1030.97        2970.00           2427      180038.00    806641.30
 1031.00        2970.25           2431      162992.00    728326.40
 1031.03        2970.50           2434      150238.00    670005.30
 1031.06        2970.75           2438      134886.00    600113.20
 1031.09        2971.00           2441      122913.00    545836.40
 1031.12        2971.25           2445      104822.00    464206.80
 1031.15        2971.50           2449       87099.00    384678.10
 1031.18        2971.75           2452       74084.00    326550.20
 1031.21        2972.00           2456       56730.00    249401.00
 1031.24        2972.25           2459       44902.00    197050.30
 1031.27        2972.50           2463       29913.00    130976.50
 1031.30        2972.75           2466       18252.00     79778.01
 1031.33        2973.00           2470        7053.00     30775.43
 1031.36        2973.25           2473        3315.00     14455.67
 1031.39        2973.50           2477        1788.00      7794.13
 1031.42        2973.75           2481        1550.00      6756.13
 1031.45        2974.00           2484        1527.00      6655.82
 1031.49        2974.25           2488        1500.00      6538.07
 1031.52        2974.50           2491        1447.00      6306.93
 1031.55        2974.75           2495        1440.00      6276.40
 1031.58        2975.00           2498        1427.00      6219.71
 1031.61        2975.25           2502        1446.00      6302.57
 1031.64        2975.50           2505        1406.00      6128.13
 1031.67        2975.75           2509        1377.00      6001.66
 1031.70        2976.00           2512        1400.00      6101.96
 1031.73        2976.25           2516        1320.00      5753.09
 1031.76        2976.50           2520        1298.00      5657.15
 1031.79        2976.75           2523        1308.00      5700.76
 1031.82        2977.00           2527        1287.00      5609.18
 1031.85        2977.25           2530        1288.00      5613.54
 1031.88        2977.50           2534        1269.00      5530.68
 1031.91        2977.75           2537        1307.00      5696.40
 1031.94        2978.00           2541        1244.00      5421.66
 1031.97        2978.25           2544        1267.00      5521.96
 1032.01        2978.50           2548        1254.00      5465.27
 1032.04        2978.75           2552        1249.00      5443.47
 1032.07        2979.00           2555        1196.00      5212.35
 1032.10        2979.25           2559        1192.00      5194.90
 1032.13        2979.50           2562        1180.00      5142.57
 1032.16        2979.75           2566        1216.00      5299.56
 1032.19        2980.00           2569        1178.00      5133.85
 1032.22        2980.25           2573        1162.00      5064.08
 1032.25        2980.50           2577        1198.00      5221.07
 1032.28        2980.75           2580        1168.00      5090.24
 1032.31        2981.00           2584        1171.00      5103.33
 1032.34        2981.25           2587        1144.00      4985.59
 1032.37        2981.50           2591        1142.00      4976.87
 1032.40        2981.75           2594        1154.00      5029.20
 1032.43        2982.00           2598        1153.00      5024.83
 1032.46        2982.25           2601        1166.00      5081.52
 1032.49        2982.50           2605        1133.00      4937.62
 1032.53        2982.75           2609        1134.00      4941.98
 1032.56        2983.00           2612        1138.00      4959.42
 1032.59        2983.25           2616        1150.00      5011.75
 1032.62        2983.50           2619        1164.00      5072.80
 1032.65        2983.75           2623        1143.00      4981.23
 1032.68        2984.00           2626        1124.00      4898.37
HS scan finished at 17:12:54
end
