************************************************************
  HS Scan of (1) Internal mercury lamp
************************************************************
Integration time is 0.2294 seconds per sample
dh070119Reading 51.44 .94 2.96pr1000
************************************************************
Dead Time -------------------------  3.4E-08 
Number of Cycles Used -------------  4 
Starting Wavelength (Angstroms) ---  2950 
Final Wavelength (Angstoms) -------  2984 
Wavelength Increment (Angstroms) --  .25 
Filter Wheel #1 Position ---------- (1) Ground quartz diffuser (ND=2.32)
Filter Wheel #2 Position ---------- (1) Neutral Density 0.494



************************************************************
HS scan start time = 05:16:19
Dark Count =  .7 


Time (GMT)  Wavelength (Ang)  Step Number  Raw Counts  Counts/Second

  317.21        2950.00           2144        1461.00      6367.12
  317.40        2950.25           2147        1466.00      6388.92
  317.43        2950.50           2151        1481.00      6454.34
  317.47        2950.75           2155        1500.00      6537.20
  317.50        2951.00           2158        1495.00      6515.39
  317.53        2951.25           2162        1451.00      6323.50
  317.56        2951.50           2165        1488.00      6484.87
  317.59        2951.75           2169        1488.00      6484.87
  317.62        2952.00           2172        1510.00      6580.81
  317.65        2952.25           2176        1510.00      6580.81
  317.68        2952.50           2179        1523.00      6637.51
  317.71        2952.75           2183        1506.00      6563.37
  317.74        2953.00           2186        1521.00      6628.78
  317.77        2953.25           2190        1504.00      6554.64
  317.80        2953.50           2193        1536.00      6694.20
  317.83        2953.75           2197        1550.00      6755.26
  317.86        2954.00           2200        1518.00      6615.70
  317.89        2954.25           2204        1526.00      6650.59
  317.92        2954.50           2208        1538.00      6702.92
  317.95        2954.75           2211        1584.00      6903.54
  317.99        2955.00           2215        1526.00      6650.59
  318.02        2955.25           2218        1553.00      6768.34
  318.05        2955.50           2222        1578.00      6877.37
  318.08        2955.75           2225        1560.00      6798.87
  318.11        2956.00           2229        1607.00      7003.85
  318.14        2956.25           2232        1631.00      7108.52
  318.17        2956.50           2236        1620.00      7060.54
  318.20        2956.75           2239        1634.00      7121.60
  318.23        2957.00           2243        1625.00      7082.35
  318.26        2957.25           2246        1667.00      7265.53
  318.29        2957.50           2250        1640.00      7147.77
  318.32        2957.75           2254        1698.00      7400.73
  318.35        2958.00           2257        1691.00      7370.20
  318.38        2958.25           2261        1691.00      7370.20
  318.41        2958.50           2264        1721.00      7501.04
  318.44        2958.75           2268        1720.00      7496.68
  318.47        2959.00           2271        1731.00      7544.66
  318.52        2959.25           2275        1775.00      7736.56
  318.55        2959.50           2278        1802.00      7854.32
  318.58        2959.75           2282        1812.00      7897.94
  318.61        2960.00           2285        1811.00      7893.58
  318.64        2960.25           2289        1898.00      8273.03
  318.67        2960.50           2293        1952.00      8508.56
  318.70        2960.75           2296        1946.00      8482.39
  318.73        2961.00           2300        2043.00      8905.49
  318.77        2961.25           2303        2479.00     10807.37
  318.80        2961.50           2307        7534.00     32875.87
  318.83        2961.75           2310       18099.00     79106.56
  318.86        2962.00           2314       36339.00    159265.90
  318.89        2962.25           2317       51654.00    226910.90
  318.92        2962.50           2321       73151.00    322391.20
  318.95        2962.75           2324       88515.00    391015.30
  318.98        2963.00           2328      109696.00    486153.20
  319.01        2963.25           2331      126024.00    559919.00
  319.04        2963.50           2335      150624.00    671766.00
  319.07        2963.75           2339      176150.00    788740.40
  319.10        2964.00           2342      194384.00    872879.90
  319.13        2964.25           2346      214123.00    964518.50
  319.16        2964.50           2349      229883.00   1038104.00
  319.19        2964.75           2353      251707.00   1140626.00
  319.22        2965.00           2356      270382.00   1228937.00
  319.25        2965.25           2360      293475.00   1338896.00
  319.29        2965.50           2363      308601.00   1411378.00
  319.32        2965.75           2367      328349.00   1506563.00
  319.35        2966.00           2370      343132.00   1578233.00
  319.38        2966.25           2374      363616.00   1678140.00
  319.41        2966.50           2378      380277.00   1759920.00
  319.44        2966.75           2381      386375.00   1789969.00
  319.47        2967.00           2385      388781.00   1801843.00
  319.50        2967.25           2388      389051.00   1803176.00
  319.53        2967.50           2392      389559.00   1805684.00
  319.56        2967.75           2395      388555.00   1800727.00
  319.59        2968.00           2399      384266.00   1779569.00
  319.62        2968.25           2402      376835.00   1742986.00
  319.65        2968.50           2406      360619.00   1663479.00
  319.68        2968.75           2409      345420.00   1589358.00
  319.71        2969.00           2413      323099.00   1481196.00
  319.74        2969.25           2417      298060.00   1360828.00
  319.77        2969.50           2420      280830.00   1278582.00
  319.81        2969.75           2424      258974.00   1174926.00
  319.84        2970.00           2427      243270.00   1100905.00
  319.87        2970.25           2431      217187.00    978795.40
  319.90        2970.50           2434      198515.00    892010.20
  319.93        2970.75           2438      173964.00    778685.90
  319.96        2971.00           2441      158157.00    706188.50
  319.99        2971.25           2445      136570.00    607762.50
  320.02        2971.50           2449      112772.00    500021.30
  320.05        2971.75           2452       94352.00    417171.30
  320.08        2972.00           2456       71823.00    316474.70
  320.11        2972.25           2459       53172.00    233632.70
  320.14        2972.50           2463       31317.00    137152.00
  320.17        2972.75           2466       17011.00     74338.93
  320.20        2973.00           2470        5935.00     25891.57
  320.23        2973.25           2473        3073.00     13398.87
  320.26        2973.50           2477        2123.00      9254.44
  320.29        2973.75           2481        1996.00      8700.48
  320.33        2974.00           2484        1961.00      8547.82
  320.36        2974.25           2488        1890.00      8238.14
  320.39        2974.50           2491        1848.00      8054.95
  320.42        2974.75           2495        1820.00      7932.83
  320.45        2975.00           2498        1806.00      7871.77
  320.48        2975.25           2502        1753.00      7640.61
  320.51        2975.50           2505        1738.00      7575.19
  320.54        2975.75           2509        1730.00      7540.29
  320.57        2976.00           2512        1756.00      7653.69
  320.60        2976.25           2516        1743.00      7596.99
  320.63        2976.50           2520        1662.00      7243.72
  320.66        2976.75           2523        1726.00      7522.85
  320.69        2977.00           2527        1694.00      7383.28
  320.72        2977.25           2530        1583.00      6899.18
  320.75        2977.50           2534        1604.00      6990.76
  320.78        2977.75           2537        1599.00      6968.96
  320.81        2978.00           2541        1597.00      6960.23
  320.85        2978.25           2544        1567.00      6829.40
  320.88        2978.50           2548        1528.00      6659.31
  320.91        2978.75           2552        1574.00      6859.93
  320.94        2979.00           2555        1526.00      6650.59
  320.97        2979.25           2559        1543.00      6724.73
  321.00        2979.50           2562        1489.00      6489.23
  321.03        2979.75           2566        1489.00      6489.23
  321.06        2980.00           2569        1528.00      6659.31
  321.09        2980.25           2573        1458.00      6354.03
  321.12        2980.50           2577        1483.00      6463.06
  321.15        2980.75           2580        1452.00      6327.87
  321.18        2981.00           2584        1471.00      6410.73
  321.21        2981.25           2587        1510.00      6580.81
  321.24        2981.50           2591        1474.00      6423.81
  321.27        2981.75           2594        1431.00      6236.28
  321.30        2982.00           2598        1424.00      6205.76
  321.33        2982.25           2601        1438.00      6266.81
  321.38        2982.50           2605        1424.00      6205.76
  321.41        2982.75           2609        1414.00      6162.15
  321.44        2983.00           2612        1412.00      6153.42
  321.47        2983.25           2616        1438.00      6266.81
  321.50        2983.50           2619        1425.00      6210.12
  321.53        2983.75           2623        1387.00      6044.40
  321.56        2984.00           2626        1382.00      6022.59
HS scan finished at 05:21:47
end
************************************************************
  HS Scan of (1) Internal mercury lamp
************************************************************
Integration time is 0.2294 seconds per sample
dh070119Reading 51.44 .94 3.11pr1000
************************************************************
Dead Time -------------------------  3.4E-08 
Number of Cycles Used -------------  4 
Starting Wavelength (Angstroms) ---  2950 
Final Wavelength (Angstoms) -------  2984 
Wavelength Increment (Angstroms) --  .25 
Filter Wheel #1 Position ---------- (1) Ground quartz diffuser (ND=2.32)
Filter Wheel #2 Position ---------- (1) Neutral Density 0.494



************************************************************
HS scan start time = 17:07:29
Dark Count =  .9 


Time (GMT)  Wavelength (Ang)  Step Number  Raw Counts  Counts/Second

 1028.38        2950.00           2144        1164.00      5071.06
 1028.57        2950.25           2147        1221.00      5319.62
 1028.60        2950.50           2151        1197.00      5214.96
 1028.64        2950.75           2155        1203.00      5241.13
 1028.67        2951.00           2158        1189.00      5180.08
 1028.70        2951.25           2162        1242.00      5411.20
 1028.73        2951.50           2165        1197.00      5214.96
 1028.76        2951.75           2169        1211.00      5276.01
 1028.79        2952.00           2172        1213.00      5284.73
 1028.82        2952.25           2176        1231.00      5363.23
 1028.85        2952.50           2179        1209.00      5267.29
 1028.88        2952.75           2183        1250.00      5446.08
 1028.91        2953.00           2186        1208.00      5262.93
 1028.94        2953.25           2190        1266.00      5515.86
 1028.97        2953.50           2193        1264.00      5507.13
 1029.00        2953.75           2197        1238.00      5393.75
 1029.03        2954.00           2200        1254.00      5463.53
 1029.06        2954.25           2204        1246.00      5428.64
 1029.09        2954.50           2208        1263.00      5502.77
 1029.13        2954.75           2211        1283.00      5589.99
 1029.16        2955.00           2215        1248.00      5437.36
 1029.19        2955.25           2218        1263.00      5502.77
 1029.22        2955.50           2222        1292.00      5629.24
 1029.25        2955.75           2225        1269.00      5528.94
 1029.28        2956.00           2229        1294.00      5637.96
 1029.31        2956.25           2232        1303.00      5677.21
 1029.34        2956.50           2236        1278.00      5568.19
 1029.37        2956.75           2239        1313.00      5720.82
 1029.40        2957.00           2243        1360.00      5925.78
 1029.43        2957.25           2246        1333.00      5808.03
 1029.46        2957.50           2250        1316.00      5733.90
 1029.49        2957.75           2254        1366.00      5951.95
 1029.52        2958.00           2257        1388.00      6047.89
 1029.55        2958.25           2261        1381.00      6017.36
 1029.58        2958.50           2264        1396.00      6082.78
 1029.61        2958.75           2268        1361.00      5930.14
 1029.65        2959.00           2271        1426.00      6213.61
 1029.68        2959.25           2275        1437.00      6261.58
 1029.71        2959.50           2278        1458.00      6353.16
 1029.74        2959.75           2282        1479.00      6444.74
 1029.77        2960.00           2285        1481.00      6453.47
 1029.80        2960.25           2289        1498.00      6527.60
 1029.83        2960.50           2293        1524.00      6640.99
 1029.86        2960.75           2296        1620.00      7059.67
 1029.89        2961.00           2300        1655.00      7212.32
 1029.92        2961.25           2303        1811.00      7892.70
 1029.95        2961.50           2307        3637.00     15859.03
 1029.98        2961.75           2310        9638.00     42070.17
 1030.01        2962.00           2314       23968.00    104850.50
 1030.04        2962.25           2317       37719.00    165347.60
 1030.07        2962.50           2321       55635.00    244544.90
 1030.10        2962.75           2324       68995.00    303882.50
 1030.13        2963.00           2328       87674.00    387249.70
 1030.16        2963.25           2331      102485.00    453693.30
 1030.20        2963.50           2335      121958.00    541514.00
 1030.23        2963.75           2339      141768.00    631401.00
 1030.26        2964.00           2342      156680.00    699432.00
 1030.29        2964.25           2346      177163.00    793401.10
 1030.32        2964.50           2349      192332.00    863385.60
 1030.35        2964.75           2353      212901.00    958827.60
 1030.38        2965.00           2356      227955.00   1029081.00
 1030.41        2965.25           2360      247469.00   1120659.00
 1030.44        2965.50           2363      260746.00   1183302.00
 1030.47        2965.75           2367      279341.00   1271495.00
 1030.50        2966.00           2370      293214.00   1337648.00
 1030.54        2966.25           2374      309664.00   1416485.00
 1030.57        2966.50           2378      322517.00   1478386.00
 1030.60        2966.75           2381      327308.00   1501529.00
 1030.63        2967.00           2385      329410.00   1511694.00
 1030.66        2967.25           2388      330669.00   1517786.00
 1030.69        2967.50           2392      329448.00   1511878.00
 1030.72        2967.75           2395      329397.00   1511631.00
 1030.75        2968.00           2399      326537.00   1497802.00
 1030.78        2968.25           2402      320112.00   1466783.00
 1030.81        2968.50           2406      304820.00   1393225.00
 1030.84        2968.75           2409      291193.00   1327992.00
 1030.88        2969.00           2413      273058.00   1241635.00
 1030.91        2969.25           2417      256288.00   1162238.00
 1030.94        2969.50           2420      244171.00   1105141.00
 1030.97        2969.75           2424      226561.00   1022561.00
 1031.00        2970.00           2427      211141.00    950636.40
 1031.03        2970.25           2431      191137.00    857860.10
 1031.06        2970.50           2434      175432.00    785436.20
 1031.09        2970.75           2438      155789.00    695358.10
 1031.12        2971.00           2441      140649.00    626308.80
 1031.15        2971.25           2445      121088.00    537579.10
 1031.18        2971.50           2449      102544.00    453958.60
 1031.21        2971.75           2452       89278.00    394430.80
 1031.24        2972.00           2456       70766.00    311766.40
 1031.27        2972.25           2459       56230.00    247182.50
 1031.30        2972.50           2463       35837.00    157053.10
 1031.33        2972.75           2466       21792.00     95300.02
 1031.36        2973.00           2470        8101.00     35352.41
 1031.40        2973.25           2473        3688.00     16081.59
 1031.43        2973.50           2477        1979.00      8625.46
 1031.46        2973.75           2481        1617.00      7046.59
 1031.49        2974.00           2484        1625.00      7081.48
 1031.52        2974.25           2488        1525.00      6645.36
 1031.55        2974.50           2491        1538.00      6702.05
 1031.58        2974.75           2495        1485.00      6470.91
 1031.61        2975.00           2498        1478.00      6440.38
 1031.64        2975.25           2502        1433.00      6244.13
 1031.67        2975.50           2505        1442.00      6283.38
 1031.70        2975.75           2509        1423.00      6200.52
 1031.73        2976.00           2512        1401.00      6104.58
 1031.76        2976.25           2516        1402.00      6108.94
 1031.79        2976.50           2520        1358.00      5917.06
 1031.82        2976.75           2523        1348.00      5873.45
 1031.85        2977.00           2527        1357.00      5912.70
 1031.88        2977.25           2530        1349.00      5877.81
 1031.91        2977.50           2534        1321.00      5755.70
 1031.95        2977.75           2537        1280.00      5576.91
 1031.98        2978.00           2541        1255.00      5467.89
 1032.01        2978.25           2544        1291.00      5624.88
 1032.04        2978.50           2548        1250.00      5446.08
 1032.07        2978.75           2552        1271.00      5537.66
 1032.10        2979.00           2555        1221.00      5319.62
 1032.13        2979.25           2559        1249.00      5441.72
 1032.16        2979.50           2562        1221.00      5319.62
 1032.19        2979.75           2566        1231.00      5363.23
 1032.22        2980.00           2569        1227.00      5345.78
 1032.25        2980.25           2573        1198.00      5219.32
 1032.28        2980.50           2577        1223.00      5328.34
 1032.31        2980.75           2580        1203.00      5241.13
 1032.34        2981.00           2584        1181.00      5145.19
 1032.37        2981.25           2587        1236.00      5385.03
 1032.40        2981.50           2591        1172.00      5105.94
 1032.43        2981.75           2594        1156.00      5036.17
 1032.47        2982.00           2598        1171.00      5101.58
 1032.50        2982.25           2601        1167.00      5084.14
 1032.53        2982.50           2605        1117.00      4866.11
 1032.56        2982.75           2609        1182.00      5149.55
 1032.59        2983.00           2612        1125.00      4900.99
 1032.62        2983.25           2616        1118.00      4870.47
 1032.65        2983.50           2619        1128.00      4914.07
 1032.68        2983.75           2623        1140.00      4966.40
 1032.71        2984.00           2626        1102.00      4800.70
HS scan finished at 17:12:56
end
