************************************************************
  HS Scan of (1) Internal mercury lamp
************************************************************
Integration time is 0.2294 seconds per sample
dh080118Reading 51.44 .94 2.56pr1000
************************************************************
Dead Time -------------------------  3.4E-08 
Number of Cycles Used -------------  4 
Starting Wavelength (Angstroms) ---  2950 
Final Wavelength (Angstoms) -------  2984 
Wavelength Increment (Angstroms) --  .25 
Filter Wheel #1 Position ---------- (1) Ground quartz diffuser (ND=2.32)
Filter Wheel #2 Position ---------- (1) Neutral Density 0.494



************************************************************
HS scan start time = 05:16:08
Dark Count =  .4 


Time (GMT)  Wavelength (Ang)  Step Number  Raw Counts  Counts/Second

  317.04        2950.00           2144          88.00       381.87
  317.23        2950.25           2147          84.00       364.43
  317.26        2950.50           2151          83.00       360.07
  317.29        2950.75           2155          84.00       364.43
  317.32        2951.00           2158          91.00       394.95
  317.35        2951.25           2162          89.00       386.23
  317.38        2951.50           2165          90.00       390.59
  317.41        2951.75           2169          88.00       381.87
  317.44        2952.00           2172          89.00       386.23
  317.48        2952.25           2176          98.00       425.46
  317.51        2952.50           2179          90.00       390.59
  317.54        2952.75           2183          87.00       377.51
  317.57        2953.00           2186          90.00       390.59
  317.60        2953.25           2190          94.00       408.03
  317.63        2953.50           2193          86.00       373.15
  317.66        2953.75           2197         118.00       512.65
  317.69        2954.00           2200          88.00       381.87
  317.72        2954.25           2204          85.00       368.79
  317.75        2954.50           2208         105.00       455.98
  317.78        2954.75           2211          99.00       429.82
  317.81        2955.00           2215          93.00       403.67
  317.84        2955.25           2218          99.00       429.82
  317.87        2955.50           2222          99.00       429.82
  317.90        2955.75           2225          99.00       429.82
  317.93        2956.00           2229         106.00       460.34
  317.96        2956.25           2232          98.00       425.46
  318.00        2956.50           2236         113.00       490.85
  318.03        2956.75           2239          95.00       412.39
  318.06        2957.00           2243          98.00       425.46
  318.09        2957.25           2246         112.00       486.49
  318.12        2957.50           2250         112.00       486.49
  318.15        2957.75           2254         107.00       464.70
  318.18        2958.00           2257         101.00       438.54
  318.21        2958.25           2261         136.00       591.12
  318.24        2958.50           2264          99.00       429.82
  318.27        2958.75           2268         104.00       451.62
  318.30        2959.00           2271         115.00       499.57
  318.33        2959.25           2275          95.00       412.39
  318.36        2959.50           2278         108.00       469.06
  318.39        2959.75           2282         110.00       477.78
  318.42        2960.00           2285         118.00       512.65
  318.45        2960.25           2289         105.00       455.98
  318.48        2960.50           2293         122.00       530.09
  318.52        2960.75           2296         157.00       682.67
  318.55        2961.00           2300         154.00       669.59
  318.58        2961.25           2303         348.00      1515.34
  318.61        2961.50           2307        1096.00      4776.71
  318.64        2961.75           2310        1901.00      8287.43
  318.67        2962.00           2314        3107.00     13548.53
  318.70        2962.25           2317        4077.00     17781.45
  318.73        2962.50           2321        5429.00     23683.41
  318.76        2962.75           2324        6444.00     28115.80
  318.79        2963.00           2328        7702.00     33611.19
  318.82        2963.25           2331        8867.00     38702.16
  318.85        2963.50           2335       10319.00     45049.78
  318.88        2963.75           2339       11884.00     51894.45
  318.91        2964.00           2342       13242.00     57836.38
  318.94        2964.25           2346       14480.00     63255.34
  318.97        2964.50           2349       15203.00     66420.98
  319.00        2964.75           2353       16562.00     72373.16
  319.04        2965.00           2356       17478.00     76386.46
  319.07        2965.25           2360       19027.00     83175.60
  319.10        2965.50           2363       19895.00     86981.36
  319.13        2965.75           2367       21183.00     92630.42
  319.16        2966.00           2370       22141.00     96833.55
  319.19        2966.25           2374       23278.00    101823.60
  319.22        2966.50           2378       23986.00    104931.70
  319.25        2966.75           2381       24100.00    105432.20
  319.28        2967.00           2385       24252.00    106099.60
  319.31        2967.25           2388       24317.00    106385.00
  319.34        2967.50           2392       24084.00    105361.90
  319.37        2967.75           2395       23926.00    104668.30
  319.40        2968.00           2399       23298.00    101911.40
  319.43        2968.25           2402       22317.00     97605.86
  319.46        2968.50           2406       21062.00     92099.62
  319.49        2968.75           2409       19970.00     87310.24
  319.52        2969.00           2413       18348.00     80199.21
  319.56        2969.25           2417       17102.00     74738.94
  319.59        2969.50           2420       16022.00     70007.77
  319.62        2969.75           2424       14601.00     63785.09
  319.65        2970.00           2427       13550.00     59184.36
  319.68        2970.25           2431       12074.00     52725.65
  319.71        2970.50           2434       10868.00     47450.51
  319.74        2970.75           2438        9479.00     41377.27
  319.77        2971.00           2441        8542.00     37281.75
  319.80        2971.25           2445        7182.00     31339.39
  319.83        2971.50           2449        5770.00     25172.37
  319.86        2971.75           2452        4768.00     20797.61
  319.89        2972.00           2456        3438.00     14992.82
  319.92        2972.25           2459        2407.00     10494.59
  319.95        2972.50           2463        1129.00      4920.61
  319.98        2972.75           2466         538.00      2343.69
  320.01        2973.00           2470         197.00       857.04
  320.04        2973.25           2473         144.00       625.99
  320.08        2973.50           2477         128.00       556.24
  320.11        2973.75           2481         151.00       656.51
  320.14        2974.00           2484         129.00       560.60
  320.17        2974.25           2488         134.00       582.40
  320.20        2974.50           2491         106.00       460.34
  320.23        2974.75           2495         109.00       473.42
  320.26        2975.00           2498         120.00       521.37
  320.29        2975.25           2502         105.00       455.98
  320.32        2975.50           2505         101.00       438.54
  320.35        2975.75           2509         123.00       534.45
  320.38        2976.00           2512         101.00       438.54
  320.41        2976.25           2516         116.00       503.93
  320.44        2976.50           2520         121.00       525.73
  320.47        2976.75           2523         103.00       447.26
  320.50        2977.00           2527          97.00       421.10
  320.53        2977.25           2530          99.00       429.82
  320.56        2977.50           2534          99.00       429.82
  320.60        2977.75           2537          93.00       403.67
  320.63        2978.00           2541         119.00       517.01
  320.66        2978.25           2544          96.00       416.75
  320.69        2978.50           2548          95.00       412.39
  320.72        2978.75           2552          88.00       381.87
  320.75        2979.00           2555          94.00       408.03
  320.78        2979.25           2559          93.00       403.67
  320.81        2979.50           2562          85.00       368.79
  320.84        2979.75           2566          83.00       360.07
  320.87        2980.00           2569          86.00       373.15
  320.90        2980.25           2573          89.00       386.23
  320.93        2980.50           2577          98.00       425.46
  320.96        2980.75           2580          93.00       403.67
  320.99        2981.00           2584          85.00       368.79
  321.02        2981.25           2587          87.00       377.51
  321.05        2981.50           2591          89.00       386.23
  321.08        2981.75           2594          84.00       364.43
  321.12        2982.00           2598          80.00       347.00
  321.15        2982.25           2601          83.00       360.07
  321.18        2982.50           2605          86.00       373.15
  321.21        2982.75           2609          77.00       333.92
  321.24        2983.00           2612          82.00       355.71
  321.27        2983.25           2616          86.00       373.15
  321.30        2983.50           2619          86.00       373.15
  321.33        2983.75           2623          87.00       377.51
  321.36        2984.00           2626          77.00       333.92
HS scan finished at 05:21:35
end
************************************************************
  HS Scan of (1) Internal mercury lamp
************************************************************
Integration time is 0.2294 seconds per sample
dh080118Reading 51.44 .94 2.86pr1000
************************************************************
Dead Time -------------------------  3.4E-08 
Number of Cycles Used -------------  4 
Starting Wavelength (Angstroms) ---  2950 
Final Wavelength (Angstoms) -------  2984 
Wavelength Increment (Angstroms) --  .25 
Filter Wheel #1 Position ---------- (1) Ground quartz diffuser (ND=2.32)
Filter Wheel #2 Position ---------- (1) Neutral Density 0.494



************************************************************
HS scan start time = 17:07:28
Dark Count =  .7 


Time (GMT)  Wavelength (Ang)  Step Number  Raw Counts  Counts/Second

 1028.37        2950.00           2144          70.00       302.10
 1028.56        2950.25           2147          75.00       323.89
 1028.59        2950.50           2151          71.00       306.45
 1028.62        2950.75           2155          71.00       306.45
 1028.66        2951.00           2158          68.00       293.38
 1028.69        2951.25           2162          74.00       319.53
 1028.72        2951.50           2165          65.00       280.30
 1028.75        2951.75           2169          76.00       328.25
 1028.78        2952.00           2172          77.00       332.61
 1028.81        2952.25           2176          70.00       302.10
 1028.84        2952.50           2179          75.00       323.89
 1028.87        2952.75           2183          70.00       302.10
 1028.90        2953.00           2186          76.00       328.25
 1028.93        2953.25           2190          71.00       306.45
 1028.96        2953.50           2193          81.00       350.05
 1028.99        2953.75           2197          75.00       323.89
 1029.02        2954.00           2200          70.00       302.10
 1029.05        2954.25           2204          74.00       319.53
 1029.08        2954.50           2208          70.00       302.10
 1029.11        2954.75           2211          74.00       319.53
 1029.14        2955.00           2215          73.00       315.17
 1029.18        2955.25           2218          66.00       284.66
 1029.21        2955.50           2222          76.00       328.25
 1029.24        2955.75           2225          71.00       306.45
 1029.27        2956.00           2229          75.00       323.89
 1029.30        2956.25           2232          79.00       341.33
 1029.33        2956.50           2236          83.00       358.77
 1029.36        2956.75           2239          77.00       332.61
 1029.39        2957.00           2243          74.00       319.53
 1029.42        2957.25           2246          68.00       293.38
 1029.45        2957.50           2250          79.00       341.33
 1029.48        2957.75           2254          76.00       328.25
 1029.51        2958.00           2257          79.00       341.33
 1029.54        2958.25           2261          79.00       341.33
 1029.57        2958.50           2264          83.00       358.77
 1029.60        2958.75           2268          86.00       371.84
 1029.63        2959.00           2271          86.00       371.84
 1029.66        2959.25           2275          83.00       358.77
 1029.70        2959.50           2278          90.00       389.28
 1029.73        2959.75           2282          89.00       384.92
 1029.76        2960.00           2285          91.00       393.64
 1029.79        2960.25           2289          96.00       415.44
 1029.82        2960.50           2293          95.00       411.08
 1029.85        2960.75           2296          97.00       419.80
 1029.88        2961.00           2300         123.00       533.14
 1029.91        2961.25           2303         271.00      1178.34
 1029.94        2961.50           2307         874.00      3807.38
 1029.97        2961.75           2310        1539.00      6707.28
 1030.00        2962.00           2314        2606.00     11361.41
 1030.03        2962.25           2317        3358.00     14642.42
 1030.06        2962.50           2321        4510.00     19670.08
 1030.09        2962.75           2324        5475.00     23882.94
 1030.12        2963.00           2328        6571.00     28669.17
 1030.15        2963.25           2331        7453.00     32521.99
 1030.18        2963.50           2335        8823.00     38508.54
 1030.22        2963.75           2339        9955.00     43456.93
 1030.25        2964.00           2342       10825.00     47261.15
 1030.28        2964.25           2346       11872.00     51840.64
 1030.31        2964.50           2349       12804.00     55918.34
 1030.34        2964.75           2353       14146.00     61791.85
 1030.37        2965.00           2356       15018.00     65609.58
 1030.40        2965.25           2360       16136.00     70505.78
 1030.43        2965.50           2363       16934.00     74001.57
 1030.46        2965.75           2367       17917.00     78308.93
 1030.49        2966.00           2370       18782.00     82100.27
 1030.52        2966.25           2374       19979.00     87348.39
 1030.55        2966.50           2378       21080.00     92177.28
 1030.58        2966.75           2381       20735.00     90663.97
 1030.61        2967.00           2385       20557.00     89883.25
 1030.64        2967.25           2388       20451.00     89418.35
 1030.67        2967.50           2392       20385.00     89128.88
 1030.70        2967.75           2395       20105.00     87900.94
 1030.73        2968.00           2399       19685.00     86059.21
 1030.77        2968.25           2402       18905.00     82639.46
 1030.80        2968.50           2406       17776.00     77691.01
 1030.83        2968.75           2409       16987.00     74233.78
 1030.86        2969.00           2413       15597.00     68145.06
 1030.89        2969.25           2417       14476.00     63236.51
 1030.92        2969.50           2420       13795.00     60255.40
 1030.95        2969.75           2424       12458.00     54404.38
 1030.98        2970.00           2427       11630.00     50782.03
 1031.01        2970.25           2431       10443.00     45590.67
 1031.04        2970.50           2434        9185.00     40090.79
 1031.07        2970.75           2438        8149.00     35563.02
 1031.10        2971.00           2441        7250.00     31635.14
 1031.13        2971.25           2445        6085.00     26546.62
 1031.16        2971.50           2449        4857.00     21184.83
 1031.19        2971.75           2452        3914.00     17068.75
 1031.22        2972.00           2456        2698.00     11762.77
 1031.25        2972.25           2459        1937.00      8443.14
 1031.29        2972.50           2463         903.00      3933.83
 1031.32        2972.75           2466         427.00      1858.44
 1031.35        2973.00           2470         150.00       650.84
 1031.38        2973.25           2473         109.00       472.11
 1031.41        2973.50           2477         105.00       454.67
 1031.44        2973.75           2481         108.00       467.75
 1031.47        2974.00           2484         115.00       498.26
 1031.50        2974.25           2488          93.00       402.36
 1031.53        2974.50           2491          90.00       389.28
 1031.56        2974.75           2495          96.00       415.44
 1031.59        2975.00           2498          89.00       384.92
 1031.62        2975.25           2502          83.00       358.77
 1031.65        2975.50           2505          93.00       402.36
 1031.68        2975.75           2509          86.00       371.84
 1031.71        2976.00           2512          87.00       376.20
 1031.74        2976.25           2516          74.00       319.53
 1031.77        2976.50           2520          81.00       350.05
 1031.81        2976.75           2523          76.00       328.25
 1031.84        2977.00           2527          72.00       310.81
 1031.87        2977.25           2530          75.00       323.89
 1031.90        2977.50           2534          81.00       350.05
 1031.93        2977.75           2537          74.00       319.53
 1031.96        2978.00           2541          76.00       328.25
 1031.99        2978.25           2544          73.00       315.17
 1032.02        2978.50           2548          85.00       367.49
 1032.05        2978.75           2552          73.00       315.17
 1032.08        2979.00           2555          68.00       293.38
 1032.11        2979.25           2559          73.00       315.17
 1032.14        2979.50           2562          75.00       323.89
 1032.17        2979.75           2566          71.00       306.45
 1032.20        2980.00           2569          67.00       289.02
 1032.23        2980.25           2573          82.00       354.41
 1032.26        2980.50           2577          69.00       297.74
 1032.29        2980.75           2580          65.00       280.30
 1032.33        2981.00           2584          71.00       306.45
 1032.36        2981.25           2587          76.00       328.25
 1032.39        2981.50           2591          74.00       319.53
 1032.42        2981.75           2594          62.00       267.22
 1032.45        2982.00           2598          71.00       306.45
 1032.48        2982.25           2601          71.00       306.45
 1032.51        2982.50           2605          74.00       319.53
 1032.54        2982.75           2609          68.00       293.38
 1032.57        2983.00           2612          65.00       280.30
 1032.60        2983.25           2616          67.00       289.02
 1032.63        2983.50           2619          67.00       289.02
 1032.66        2983.75           2623          62.00       267.22
 1032.69        2984.00           2626          65.00       280.30
HS scan finished at 17:12:55
end
