************************************************************
  HS Scan of (1) Internal mercury lamp
************************************************************
Integration time is 0.2294 seconds per sample
dh090119Reading 51.44 .94 2.41pr1000
************************************************************
Dead Time -------------------------  3.4E-08 
Number of Cycles Used -------------  4 
Starting Wavelength (Angstroms) ---  2950 
Final Wavelength (Angstoms) -------  2984 
Wavelength Increment (Angstroms) --  .25 
Filter Wheel #1 Position ---------- (1) Ground quartz diffuser (ND=2.32)
Filter Wheel #2 Position ---------- (1) Neutral Density 0.494



************************************************************
HS scan start time = 05:18:54
Dark Count =  .4 


Time (GMT)  Wavelength (Ang)  Step Number  Raw Counts  Counts/Second

  319.80        2950.00           2144        1480.00      6451.28
  319.99        2950.25           2147        1542.00      6721.68
  320.02        2950.50           2151        1474.00      6425.12
  320.05        2950.75           2155        1498.00      6529.78
  320.08        2951.00           2158        1518.00      6617.01
  320.11        2951.25           2162        1550.00      6756.57
  320.14        2951.50           2165        1480.00      6451.28
  320.17        2951.75           2169        1539.00      6708.59
  320.20        2952.00           2172        1551.00      6760.93
  320.23        2952.25           2176        1511.00      6586.48
  320.26        2952.50           2179        1530.00      6669.34
  320.29        2952.75           2183        1513.00      6595.20
  320.32        2953.00           2186        1532.00      6678.06
  320.36        2953.25           2190        1526.00      6651.90
  320.39        2953.50           2193        1523.00      6638.81
  320.42        2953.75           2197        1552.00      6765.29
  320.45        2954.00           2200        1615.00      7040.05
  320.48        2954.25           2204        1547.00      6743.48
  320.51        2954.50           2208        1573.00      6856.87
  320.54        2954.75           2211        1595.00      6952.82
  320.57        2955.00           2215        1566.00      6826.34
  320.60        2955.25           2218        1608.00      7009.52
  320.63        2955.50           2222        1552.00      6765.29
  320.66        2955.75           2225        1591.00      6935.38
  320.69        2956.00           2229        1569.00      6839.43
  320.72        2956.25           2232        1615.00      7040.05
  320.75        2956.50           2236        1573.00      6856.87
  320.78        2956.75           2239        1604.00      6992.07
  320.81        2957.00           2243        1631.00      7109.83
  320.84        2957.25           2246        1643.00      7162.16
  320.88        2957.50           2250        1677.00      7310.45
  320.91        2957.75           2254        1672.00      7288.64
  320.94        2958.00           2257        1696.00      7393.31
  320.97        2958.25           2261        1682.00      7332.26
  321.00        2958.50           2264        1720.00      7497.99
  321.03        2958.75           2268        1781.00      7764.04
  321.06        2959.00           2271        1723.00      7511.07
  321.09        2959.25           2275        1775.00      7737.87
  321.12        2959.50           2278        1727.00      7528.52
  321.15        2959.75           2282        1823.00      7947.22
  321.18        2960.00           2285        1818.00      7925.41
  321.21        2960.25           2289        1848.00      8056.26
  321.24        2960.50           2293        1906.00      8309.23
  321.27        2960.75           2296        1932.00      8422.64
  321.30        2961.00           2300        2010.00      8762.85
  321.33        2961.25           2303        2594.00     11310.36
  321.36        2961.50           2307        7079.00     30889.45
  321.40        2961.75           2310       14959.00     65352.55
  321.43        2962.00           2314       28961.00    126790.40
  321.46        2962.25           2317       41915.00    183859.80
  321.49        2962.50           2321       61544.00    270761.90
  321.52        2962.75           2324       75784.00    334130.10
  321.55        2963.00           2328       93876.00    415038.00
  321.58        2963.25           2331      107770.00    477478.00
  321.61        2963.50           2335      127251.00    565478.80
  321.64        2963.75           2339      148962.00    664183.80
  321.67        2964.00           2342      164422.00    734880.50
  321.70        2964.25           2346      184504.00    827230.10
  321.73        2964.50           2349      196922.00    884631.60
  321.76        2964.75           2353      216530.00    975734.20
  321.79        2965.00           2356      230155.00   1039378.00
  321.82        2965.25           2360      248244.00   1124310.00
  321.87        2965.50           2363      261477.00   1186761.00
  321.90        2965.75           2367      279661.00   1273020.00
  321.93        2966.00           2370      292860.00   1335958.00
  321.96        2966.25           2374      308841.00   1412532.00
  321.99        2966.50           2378      318848.00   1460691.00
  322.02        2966.75           2381      322649.00   1479026.00
  322.05        2967.00           2385      323732.00   1484254.00
  322.08        2967.25           2388      324300.00   1486997.00
  322.11        2967.50           2392      323453.00   1482907.00
  322.14        2967.75           2395      323259.00   1481970.00
  322.18        2968.00           2399      317579.00   1454575.00
  322.21        2968.25           2402      309645.00   1416396.00
  322.24        2968.50           2406      295575.00   1348938.00
  322.27        2968.75           2409      283533.00   1291455.00
  322.30        2969.00           2413      264899.00   1202954.00
  322.33        2969.25           2417      245542.00   1111592.00
  322.36        2969.50           2420      232444.00   1050098.00
  322.39        2969.75           2424      214224.00    964990.20
  322.42        2970.00           2427      200702.00    902149.60
  322.45        2970.25           2431      181290.00    812410.60
  322.48        2970.50           2434      167071.00    747028.60
  322.51        2970.75           2438      147860.00    659157.60
  322.54        2971.00           2441      132213.00    587978.60
  322.57        2971.25           2445      112005.00    496563.40
  322.60        2971.50           2449       92202.00    407533.00
  322.63        2971.75           2452       78508.00    346283.30
  322.66        2972.00           2456       61219.00    269318.90
  322.70        2972.25           2459       47886.00    210240.30
  322.73        2972.50           2463       29145.00    127599.50
  322.76        2972.75           2466       15591.00     68120.10
  322.79        2973.00           2470        4671.00     20374.18
  322.82        2973.25           2473        2541.00     11079.15
  322.85        2973.50           2477        2006.00      8745.41
  322.88        2973.75           2481        1841.00      8025.73
  322.91        2974.00           2484        1869.00      8147.85
  322.94        2974.25           2488        1816.00      7916.69
  322.97        2974.50           2491        1790.00      7803.29
  323.00        2974.75           2495        1776.00      7742.23
  323.03        2975.00           2498        1770.00      7716.06
  323.06        2975.25           2502        1731.00      7545.96
  323.09        2975.50           2505        1725.00      7519.80
  323.12        2975.75           2509        1679.00      7319.17
  323.15        2976.00           2512        1699.00      7406.40
  323.18        2976.25           2516        1629.00      7101.10
  323.21        2976.50           2520        1640.00      7149.08
  323.25        2976.75           2523        1635.00      7127.27
  323.28        2977.00           2527        1603.00      6987.71
  323.31        2977.25           2530        1576.00      6869.96
  323.34        2977.50           2534        1581.00      6891.76
  323.37        2977.75           2537        1539.00      6708.59
  323.40        2978.00           2541        1560.00      6800.18
  323.43        2978.25           2544        1555.00      6778.37
  323.46        2978.50           2548        1555.00      6778.37
  323.49        2978.75           2552        1496.00      6521.06
  323.52        2979.00           2555        1526.00      6651.90
  323.55        2979.25           2559        1501.00      6542.87
  323.58        2979.50           2562        1493.00      6507.98
  323.61        2979.75           2566        1484.00      6468.73
  323.64        2980.00           2569        1478.00      6442.56
  323.67        2980.25           2573        1479.00      6446.92
  323.70        2980.50           2577        1473.00      6420.76
  323.73        2980.75           2580        1456.00      6346.62
  323.77        2981.00           2584        1418.00      6180.90
  323.80        2981.25           2587        1402.00      6111.12
  323.83        2981.50           2591        1431.00      6237.59
  323.86        2981.75           2594        1443.00      6289.92
  323.89        2982.00           2598        1390.00      6058.79
  323.92        2982.25           2601        1389.00      6054.43
  323.95        2982.50           2605        1459.00      6359.70
  323.98        2982.75           2609        1425.00      6211.43
  324.01        2983.00           2612        1392.00      6067.51
  324.04        2983.25           2616        1400.00      6102.40
  324.07        2983.50           2619        1396.00      6084.96
  324.10        2983.75           2623        1404.00      6119.84
  324.13        2984.00           2626        1392.00      6067.51
HS scan finished at 05:24:21
end
************************************************************
  HS Scan of (1) Internal mercury lamp
************************************************************
Integration time is 0.2294 seconds per sample
dh090119Reading 51.44 .94 2.76pr1000
************************************************************
Dead Time -------------------------  3.4E-08 
Number of Cycles Used -------------  4 
Starting Wavelength (Angstroms) ---  2950 
Final Wavelength (Angstoms) -------  2984 
Wavelength Increment (Angstroms) --  .25 
Filter Wheel #1 Position ---------- (1) Ground quartz diffuser (ND=2.32)
Filter Wheel #2 Position ---------- (1) Neutral Density 0.494



************************************************************
HS scan start time = 17:07:24
Dark Count =  .5 


Time (GMT)  Wavelength (Ang)  Step Number  Raw Counts  Counts/Second

 1028.29        2950.00           2144        1069.00      4658.54
 1028.49        2950.25           2147        1080.00      4706.51
 1028.52        2950.50           2151        1059.00      4614.93
 1028.55        2950.75           2155        1107.00      4824.24
 1028.58        2951.00           2158        1079.00      4702.15
 1028.61        2951.25           2162        1064.00      4636.74
 1028.64        2951.50           2165        1110.00      4837.33
 1028.67        2951.75           2169        1084.00      4723.95
 1028.70        2952.00           2172        1098.00      4785.00
 1028.73        2952.25           2176        1079.00      4702.15
 1028.76        2952.50           2179        1085.00      4728.31
 1028.79        2952.75           2183        1115.00      4859.13
 1028.82        2953.00           2186        1100.00      4793.72
 1028.85        2953.25           2190        1125.00      4902.74
 1028.88        2953.50           2193        1153.00      5024.83
 1028.92        2953.75           2197        1110.00      4837.33
 1028.95        2954.00           2200        1107.00      4824.24
 1028.98        2954.25           2204        1114.00      4854.77
 1029.01        2954.50           2208        1115.00      4859.13
 1029.04        2954.75           2211        1121.00      4885.29
 1029.07        2955.00           2215        1154.00      5029.20
 1029.10        2955.25           2218        1145.00      4989.95
 1029.13        2955.50           2222        1151.00      5016.11
 1029.16        2955.75           2225        1176.00      5125.13
 1029.19        2956.00           2229        1166.00      5081.52
 1029.22        2956.25           2232        1162.00      5064.08
 1029.25        2956.50           2236        1164.00      5072.80
 1029.28        2956.75           2239        1177.00      5129.49
 1029.31        2957.00           2243        1197.00      5216.71
 1029.34        2957.25           2246        1163.00      5068.44
 1029.37        2957.50           2250        1209.00      5269.03
 1029.40        2957.75           2254        1209.00      5269.03
 1029.44        2958.00           2257        1233.00      5373.69
 1029.47        2958.25           2261        1230.00      5360.61
 1029.50        2958.50           2264        1267.00      5521.96
 1029.53        2958.75           2268        1241.00      5408.58
 1029.56        2959.00           2271        1265.00      5513.24
 1029.59        2959.25           2275        1293.00      5635.34
 1029.62        2959.50           2278        1309.00      5705.12
 1029.65        2959.75           2282        1313.00      5722.56
 1029.68        2960.00           2285        1316.00      5735.64
 1029.71        2960.25           2289        1338.00      5831.58
 1029.74        2960.50           2293        1370.00      5971.13
 1029.77        2960.75           2296        1375.00      5992.94
 1029.80        2961.00           2300        1413.00      6158.66
 1029.83        2961.25           2303        1424.00      6206.63
 1029.86        2961.50           2307        1900.00      8282.63
 1029.89        2961.75           2310        4145.00     18077.81
 1029.92        2962.00           2314       12792.00     55866.70
 1029.96        2962.25           2317       22498.00     98399.71
 1029.99        2962.50           2321       37117.00    162695.70
 1030.02        2962.75           2324       48709.00    213879.70
 1030.05        2963.00           2328       63887.00    281169.00
 1030.08        2963.25           2331       77227.00    340566.40
 1030.11        2963.50           2335       95135.00    420684.50
 1030.14        2963.75           2339      112557.00    499052.40
 1030.17        2964.00           2342      125018.00    555364.30
 1030.20        2964.25           2346      140778.00    626897.60
 1030.23        2964.50           2349      153044.00    682816.50
 1030.26        2964.75           2353      167968.00    751144.10
 1030.29        2965.00           2356      179522.00    804264.30
 1030.32        2965.25           2360      194963.00    875560.60
 1030.35        2965.50           2363      206038.00    926914.60
 1030.38        2965.75           2367      221363.00    998277.40
 1030.41        2966.00           2370      233305.00   1054132.00
 1030.44        2966.25           2374      248621.00   1126085.00
 1030.48        2966.50           2378      259559.00   1177692.00
 1030.51        2966.75           2381      264271.00   1199981.00
 1030.54        2967.00           2385      267397.00   1214786.00
 1030.57        2967.25           2388      267611.00   1215800.00
 1030.60        2967.50           2392      267584.00   1215672.00
 1030.63        2967.75           2395      267489.00   1215222.00
 1030.66        2968.00           2399      265540.00   1205989.00
 1030.69        2968.25           2402      261000.00   1184504.00
 1030.72        2968.50           2406      249376.00   1129642.00
 1030.75        2968.75           2409      238322.00   1077662.00
 1030.78        2969.00           2413      223313.00   1007383.00
 1030.81        2969.25           2417      208340.00    937611.70
 1030.84        2969.50           2420      197009.00    885034.10
 1030.87        2969.75           2424      182163.00    816434.00
 1030.90        2970.00           2427      170581.00    763140.60
 1030.93        2970.25           2431      154656.00    690181.30
 1030.96        2970.50           2434      142535.00    634894.30
 1031.00        2970.75           2438      126911.00    563937.90
 1031.03        2971.00           2441      114689.00    508671.60
 1031.06        2971.25           2445       96904.00    428622.70
 1031.09        2971.50           2449       81371.00    359067.10
 1031.12        2971.75           2452       69581.00    306492.50
 1031.15        2972.00           2456       54598.00    239951.00
 1031.18        2972.25           2459       44044.00    193260.10
 1031.21        2972.50           2463       28338.00    124050.90
 1031.24        2972.75           2466       16767.00     73270.80
 1031.27        2973.00           2470        6105.00     26634.84
 1031.30        2973.25           2473        2947.00     12849.99
 1031.33        2973.50           2477        1677.00      7310.01
 1031.36        2973.75           2481        1436.00      6258.96
 1031.39        2974.00           2484        1412.00      6154.30
 1031.42        2974.25           2488        1374.00      5988.58
 1031.45        2974.50           2491        1384.00      6032.19
 1031.48        2974.75           2495        1331.00      5801.06
 1031.52        2975.00           2498        1317.00      5740.00
 1031.55        2975.25           2502        1296.00      5648.43
 1031.58        2975.50           2505        1320.00      5753.09
 1031.61        2975.75           2509        1272.00      5543.76
 1031.64        2976.00           2512        1266.00      5517.60
 1031.67        2976.25           2516        1253.00      5460.91
 1031.70        2976.50           2520        1245.00      5426.02
 1031.73        2976.75           2523        1223.00      5330.09
 1031.76        2977.00           2527        1205.00      5251.59
 1031.79        2977.25           2530        1203.00      5242.87
 1031.82        2977.50           2534        1156.00      5037.92
 1031.85        2977.75           2537        1157.00      5042.28
 1031.88        2978.00           2541        1171.00      5103.33
 1031.91        2978.25           2544        1147.00      4998.67
 1031.94        2978.50           2548        1116.00      4863.49
 1031.97        2978.75           2552        1122.00      4889.65
 1032.00        2979.00           2555        1138.00      4959.42
 1032.03        2979.25           2559        1109.00      4832.97
 1032.07        2979.50           2562        1087.00      4737.03
 1032.10        2979.75           2566        1132.00      4933.26
 1032.13        2980.00           2569        1121.00      4885.29
 1032.16        2980.25           2573        1066.00      4645.46
 1032.19        2980.50           2577        1080.00      4706.51
 1032.22        2980.75           2580        1039.00      4527.72
 1032.25        2981.00           2584        1066.00      4645.46
 1032.28        2981.25           2587        1071.00      4667.26
 1032.31        2981.50           2591        1060.00      4619.30
 1032.34        2981.75           2594        1049.00      4571.33
 1032.37        2982.00           2598        1047.00      4562.61
 1032.40        2982.25           2601        1043.00      4545.17
 1032.43        2982.50           2605        1045.00      4553.89
 1032.46        2982.75           2609        1015.00      4423.07
 1032.49        2983.00           2612        1057.00      4606.21
 1032.52        2983.25           2616        1070.00      4662.90
 1032.55        2983.50           2619        1035.00      4510.28
 1032.59        2983.75           2623        1014.00      4418.71
 1032.62        2984.00           2626        1012.00      4409.99
HS scan finished at 17:12:50
end
