************************************************************
  HS Scan of 
************************************************************
Integration time is 0.2294 seconds per sample
dh020117Reading 51.44 .94 2.41pr1000
************************************************************
Dead Time -------------------------  3.4E-08 
Number of Cycles Used -------------  4 
Starting Wavelength (Angstroms) ---  2950 
Final Wavelength (Angstoms) -------  2984 
Wavelength Increment (Angstroms) --  .25 
Filter Wheel #1 Position ---------- (1) Ground quartz diffuser (ND=2.32)
Filter Wheel #2 Position ---------- (1) Neutral Density 0.494



************************************************************
HS scan start time = 05:19:33
Dark Count =  .2 


Time (GMT)  Wavelength (Ang)  Step Number  Raw Counts  Counts/Second

  320.46        2950.00           2144          57.00       247.60
  320.65        2950.25           2147          67.00       291.20
  320.68        2950.50           2151          67.00       291.20
  320.71        2950.75           2155          61.00       265.04
  320.74        2951.00           2158          60.00       260.68
  320.77        2951.25           2162          60.00       260.68
  320.80        2951.50           2165          53.00       230.17
  320.83        2951.75           2169          70.00       304.28
  320.86        2952.00           2172          63.00       273.76
  320.90        2952.25           2176          58.00       251.96
  320.93        2952.50           2179          67.00       291.20
  320.96        2952.75           2183          68.00       295.56
  320.99        2953.00           2186          65.00       282.48
  321.02        2953.25           2190          61.00       265.04
  321.05        2953.50           2193          63.00       273.76
  321.08        2953.75           2197          62.00       269.40
  321.11        2954.00           2200          61.00       265.04
  321.14        2954.25           2204          60.00       260.68
  321.17        2954.50           2208          59.00       256.32
  321.20        2954.75           2211          60.00       260.68
  321.23        2955.00           2215          61.00       265.04
  321.26        2955.25           2218          59.00       256.32
  321.29        2955.50           2222          63.00       273.76
  321.32        2955.75           2225          64.00       278.12
  321.35        2956.00           2229          62.00       269.40
  321.38        2956.25           2232          62.00       269.40
  321.42        2956.50           2236          61.00       265.04
  321.45        2956.75           2239          64.00       278.12
  321.48        2957.00           2243          63.00       273.76
  321.51        2957.25           2246          63.00       273.76
  321.54        2957.50           2250          68.00       295.56
  321.57        2957.75           2254          61.00       265.04
  321.60        2958.00           2257          63.00       273.76
  321.63        2958.25           2261          65.00       282.48
  321.66        2958.50           2264          65.00       282.48
  321.69        2958.75           2268          53.00       230.17
  321.72        2959.00           2271          64.00       278.12
  321.75        2959.25           2275          69.00       299.92
  321.78        2959.50           2278          70.00       304.28
  321.81        2959.75           2282          70.00       304.28
  321.84        2960.00           2285          72.00       312.99
  321.87        2960.25           2289          62.00       269.40
  321.90        2960.50           2293          73.00       317.35
  321.94        2960.75           2296          71.00       308.63
  321.97        2961.00           2300          70.00       304.28
  322.00        2961.25           2303         103.00       448.13
  322.03        2961.50           2307         300.00      1306.95
  322.06        2961.75           2310         606.00      2641.04
  322.09        2962.00           2314        1162.00      5065.39
  322.12        2962.25           2317        1604.00      6992.95
  322.15        2962.50           2321        2253.00      9823.68
  322.18        2962.75           2324        2696.00     11756.23
  322.21        2963.00           2328        3323.00     14491.88
  322.24        2963.25           2331        3757.00     16385.76
  322.27        2963.50           2335        4496.00     19611.15
  322.30        2963.75           2339        5174.00     22570.93
  322.33        2964.00           2342        5799.00     25299.87
  322.36        2964.25           2346        6304.00     27505.22
  322.39        2964.50           2349        6854.00     29907.47
  322.42        2964.75           2353        7541.00     32908.64
  322.45        2965.00           2356        8071.00     35224.38
  322.49        2965.25           2360        8590.00     37492.40
  322.52        2965.50           2363        9053.00     39516.00
  322.55        2965.75           2367        9740.00     42519.14
  322.58        2966.00           2370       10134.00     44241.74
  322.61        2966.25           2374       10669.00     46581.13
  322.64        2966.50           2378       11186.00     48842.16
  322.67        2966.75           2381       11188.00     48850.90
  322.70        2967.00           2385       11216.00     48973.37
  322.73        2967.25           2388       11333.00     49485.11
  322.76        2967.50           2392       11233.00     49047.73
  322.79        2967.75           2395       11132.00     48605.98
  322.82        2968.00           2399       10884.00     47521.36
  322.85        2968.25           2402       10594.00     46253.15
  322.88        2968.50           2406       10002.00     43664.60
  322.91        2968.75           2409        9513.00     41526.77
  322.94        2969.00           2413        8833.00     38554.43
  322.97        2969.25           2417        8184.00     35718.15
  323.01        2969.50           2420        7583.00     33092.14
  323.04        2969.75           2424        6985.00     30479.70
  323.07        2970.00           2427        6638.00     28964.00
  323.10        2970.25           2431        5909.00     25780.22
  323.13        2970.50           2434        5379.00     23465.97
  323.16        2970.75           2438        4699.00     20497.28
  323.19        2971.00           2441        4075.00     17773.60
  323.22        2971.25           2445        3511.00     15312.24
  323.25        2971.50           2449        2874.00     12532.80
  323.28        2971.75           2452        2423.00     10565.26
  323.31        2972.00           2456        1775.00      7738.74
  323.34        2972.25           2459        1330.00      5798.01
  323.37        2972.50           2463         742.00      3234.01
  323.40        2972.75           2466         401.00      1747.27
  323.43        2973.00           2470         135.00       587.63
  323.46        2973.25           2473          89.00       387.10
  323.49        2973.50           2477          63.00       273.76
  323.53        2973.75           2481          69.00       299.92
  323.56        2974.00           2484          68.00       295.56
  323.59        2974.25           2488          66.00       286.84
  323.62        2974.50           2491          69.00       299.92
  323.65        2974.75           2495          65.00       282.48
  323.68        2975.00           2498          60.00       260.68
  323.71        2975.25           2502          60.00       260.68
  323.74        2975.50           2505          81.00       352.23
  323.77        2975.75           2509          84.00       365.31
  323.80        2976.00           2512          80.00       347.87
  323.83        2976.25           2516          80.00       347.87
  323.86        2976.50           2520          86.00       374.02
  323.89        2976.75           2523          81.00       352.23
  323.92        2977.00           2527          85.00       369.66
  323.95        2977.25           2530          91.00       395.82
  323.98        2977.50           2534          93.00       404.54
  324.01        2977.75           2537          88.00       382.74
  324.05        2978.00           2541          93.00       404.54
  324.08        2978.25           2544          91.00       395.82
  324.11        2978.50           2548         101.00       439.41
  324.14        2978.75           2552         116.00       504.80
  324.17        2979.00           2555          89.00       387.10
  324.20        2979.25           2559         100.00       435.05
  324.23        2979.50           2562          89.00       387.10
  324.26        2979.75           2566          91.00       395.82
  324.29        2980.00           2569          67.00       291.20
  324.32        2980.25           2573          73.00       317.35
  324.35        2980.50           2577          73.00       317.35
  324.38        2980.75           2580          70.00       304.28
  324.41        2981.00           2584          68.00       295.56
  324.44        2981.25           2587          64.00       278.12
  324.47        2981.50           2591          60.00       260.68
  324.50        2981.75           2594          65.00       282.48
  324.54        2982.00           2598          55.00       238.89
  324.57        2982.25           2601          70.00       304.28
  324.60        2982.50           2605          63.00       273.76
  324.63        2982.75           2609          63.00       273.76
  324.66        2983.00           2612          59.00       256.32
  324.69        2983.25           2616          64.00       278.12
  324.72        2983.50           2619          56.00       243.25
  324.75        2983.75           2623          52.00       225.81
  324.78        2984.00           2626          60.00       260.68
HS scan finished at 05:25:00
end
************************************************************
  HS Scan of 
************************************************************
Integration time is 0.2294 seconds per sample
dh020117Reading 51.44 .94 2.66pr1000
************************************************************
Dead Time -------------------------  3.4E-08 
Number of Cycles Used -------------  4 
Starting Wavelength (Angstroms) ---  2950 
Final Wavelength (Angstoms) -------  2984 
Wavelength Increment (Angstroms) --  .25 
Filter Wheel #1 Position ---------- (1) Ground quartz diffuser (ND=2.32)
Filter Wheel #2 Position ---------- (1) Neutral Density 0.494



************************************************************
HS scan start time = 17:07:13
Dark Count =  .5 


Time (GMT)  Wavelength (Ang)  Step Number  Raw Counts  Counts/Second

 1028.12        2950.00           2144          63.00       272.45
 1028.31        2950.25           2147          67.00       289.89
 1028.34        2950.50           2151          58.00       250.66
 1028.38        2950.75           2155          58.00       250.66
 1028.41        2951.00           2158          62.00       268.09
 1028.44        2951.25           2162          63.00       272.45
 1028.47        2951.50           2165          58.00       250.66
 1028.50        2951.75           2169          55.00       237.58
 1028.53        2952.00           2172          53.00       228.86
 1028.56        2952.25           2176          62.00       268.09
 1028.59        2952.50           2179          53.00       228.86
 1028.62        2952.75           2183          54.00       233.22
 1028.65        2953.00           2186          53.00       228.86
 1028.68        2953.25           2190          67.00       289.89
 1028.71        2953.50           2193          61.00       263.73
 1028.74        2953.75           2197          60.00       259.37
 1028.77        2954.00           2200          53.00       228.86
 1028.80        2954.25           2204          54.00       233.22
 1028.83        2954.50           2208          59.00       255.02
 1028.86        2954.75           2211          55.00       237.58
 1028.90        2955.00           2215          54.00       233.22
 1028.93        2955.25           2218          58.00       250.66
 1028.96        2955.50           2222          53.00       228.86
 1028.99        2955.75           2225          58.00       250.66
 1029.02        2956.00           2229          58.00       250.66
 1029.05        2956.25           2232          58.00       250.66
 1029.08        2956.50           2236          62.00       268.09
 1029.11        2956.75           2239          60.00       259.37
 1029.14        2957.00           2243          58.00       250.66
 1029.17        2957.25           2246          56.00       241.94
 1029.20        2957.50           2250          48.00       207.06
 1029.23        2957.75           2254          59.00       255.02
 1029.26        2958.00           2257          60.00       259.37
 1029.29        2958.25           2261          58.00       250.66
 1029.32        2958.50           2264          59.00       255.02
 1029.35        2958.75           2268          61.00       263.73
 1029.38        2959.00           2271          60.00       259.37
 1029.42        2959.25           2275          68.00       294.25
 1029.45        2959.50           2278          63.00       272.45
 1029.48        2959.75           2282          54.00       233.22
 1029.51        2960.00           2285          63.00       272.45
 1029.54        2960.25           2289          65.00       281.17
 1029.57        2960.50           2293          67.00       289.89
 1029.60        2960.75           2296          66.00       285.53
 1029.63        2961.00           2300          72.00       311.69
 1029.66        2961.25           2303          76.00       329.12
 1029.69        2961.50           2307         162.00       704.03
 1029.72        2961.75           2310         403.00      1754.68
 1029.75        2962.00           2314         932.00      4061.15
 1029.78        2962.25           2317        1385.00      6036.55
 1029.81        2962.50           2321        1932.00      8422.20
 1029.84        2962.75           2324        2342.00     10210.61
 1029.87        2963.00           2328        2918.00     12723.46
 1029.90        2963.25           2331        3442.00     15009.84
 1029.93        2963.50           2335        4115.00     17946.87
 1029.97        2963.75           2339        4687.00     20443.59
 1030.00        2964.00           2342        5151.00     22469.21
 1030.03        2964.25           2346        5825.00     25412.10
 1030.06        2964.50           2349        6341.00     27665.51
 1030.09        2964.75           2353        6897.00     30093.99
 1030.12        2965.00           2356        7385.00     32225.79
 1030.15        2965.25           2360        8004.00     34930.30
 1030.18        2965.50           2363        8509.00     37137.10
 1030.21        2965.75           2367        9041.00     39462.24
 1030.24        2966.00           2370        9491.00     41429.28
 1030.27        2966.25           2374       10017.00     43728.87
 1030.30        2966.50           2378       10421.00     45495.35
 1030.33        2966.75           2381       10556.00     46085.67
 1030.36        2967.00           2385       10516.00     45910.76
 1030.39        2967.25           2388       10529.00     45967.61
 1030.42        2967.50           2392       10490.00     45797.07
 1030.46        2967.75           2395       10469.00     45705.24
 1030.49        2968.00           2399       10359.00     45224.24
 1030.52        2968.25           2402       10045.00     43851.30
 1030.55        2968.50           2406        9540.00     41643.49
 1030.58        2968.75           2409        9028.00     39405.42
 1030.61        2969.00           2413        8464.00     36940.44
 1030.64        2969.25           2417        7852.00     34266.14
 1030.67        2969.50           2420        7338.00     32020.46
 1030.70        2969.75           2424        6846.00     29871.21
 1030.73        2970.00           2427        6342.00     27669.88
 1030.76        2970.25           2431        5754.00     25102.06
 1030.79        2970.50           2434        5243.00     22870.88
 1030.82        2970.75           2438        4605.00     20085.64
 1030.85        2971.00           2441        4195.00     18296.04
 1030.88        2971.25           2445        3552.00     15489.85
 1030.91        2971.50           2449        2989.00     13033.24
 1030.94        2971.75           2452        2567.00     11192.14
 1030.98        2972.00           2456        2026.00      8832.21
 1031.01        2972.25           2459        1616.00      7043.97
 1031.04        2972.50           2463         985.00      4292.26
 1031.07        2972.75           2466         588.00      2561.25
 1031.10        2973.00           2470         216.00       939.44
 1031.13        2973.25           2473         100.00       433.75
 1031.16        2973.50           2477          66.00       285.53
 1031.19        2973.75           2481          57.00       246.30
 1031.22        2974.00           2484          57.00       246.30
 1031.25        2974.25           2488          61.00       263.73
 1031.28        2974.50           2491          58.00       250.66
 1031.31        2974.75           2495          55.00       237.58
 1031.34        2975.00           2498          59.00       255.02
 1031.37        2975.25           2502          59.00       255.02
 1031.40        2975.50           2505          53.00       228.86
 1031.43        2975.75           2509          54.00       233.22
 1031.46        2976.00           2512          56.00       241.94
 1031.50        2976.25           2516          53.00       228.86
 1031.53        2976.50           2520          57.00       246.30
 1031.56        2976.75           2523          57.00       246.30
 1031.59        2977.00           2527          61.00       263.73
 1031.62        2977.25           2530          55.00       237.58
 1031.65        2977.50           2534          50.00       215.78
 1031.68        2977.75           2537          55.00       237.58
 1031.71        2978.00           2541          51.00       220.14
 1031.74        2978.25           2544          54.00       233.22
 1031.77        2978.50           2548          49.00       211.42
 1031.80        2978.75           2552          50.00       215.78
 1031.83        2979.00           2555          57.00       246.30
 1031.86        2979.25           2559          42.00       180.91
 1031.89        2979.50           2562          50.00       215.78
 1031.92        2979.75           2566          48.00       207.06
 1031.95        2980.00           2569          52.00       224.50
 1031.98        2980.25           2573          55.00       237.58
 1032.02        2980.50           2577          47.00       202.70
 1032.05        2980.75           2580          46.00       198.34
 1032.08        2981.00           2584          43.00       185.27
 1032.11        2981.25           2587          50.00       215.78
 1032.14        2981.50           2591          44.00       189.63
 1032.17        2981.75           2594          49.00       211.42
 1032.20        2982.00           2598          49.00       211.42
 1032.23        2982.25           2601          42.00       180.91
 1032.26        2982.50           2605          49.00       211.42
 1032.29        2982.75           2609          53.00       228.86
 1032.32        2983.00           2612          45.00       193.99
 1032.35        2983.25           2616          46.00       198.34
 1032.38        2983.50           2619          50.00       215.78
 1032.41        2983.75           2623          50.00       215.78
 1032.44        2984.00           2626          42.00       180.91
HS scan finished at 17:12:40
end
