************************************************************
  HS Scan of 
************************************************************
Integration time is 0.2294 seconds per sample
dh080117Reading 51.44 .94 3.03pr1000
************************************************************
Dead Time -------------------------  3.4E-08 
Number of Cycles Used -------------  4 
Starting Wavelength (Angstroms) ---  2950 
Final Wavelength (Angstoms) -------  2984 
Wavelength Increment (Angstroms) --  .25 
Filter Wheel #1 Position ---------- (1) Ground quartz diffuser (ND=2.32)
Filter Wheel #2 Position ---------- (1) Neutral Density 0.494



************************************************************
HS scan start time = 05:16:04
Dark Count =  1 


Time (GMT)  Wavelength (Ang)  Step Number  Raw Counts  Counts/Second

  316.97        2950.00           2144         765.00      3330.80
  317.16        2950.25           2147         779.00      3391.85
  317.19        2950.50           2151         768.00      3343.89
  317.22        2950.75           2155         771.00      3356.97
  317.26        2951.00           2158         762.00      3317.72
  317.29        2951.25           2162         780.00      3396.21
  317.32        2951.50           2165         787.00      3426.73
  317.35        2951.75           2169         799.00      3479.05
  317.38        2952.00           2172         785.00      3418.01
  317.41        2952.25           2176         776.00      3378.77
  317.44        2952.50           2179         792.00      3448.53
  317.47        2952.75           2183         810.00      3527.01
  317.50        2953.00           2186         779.00      3391.85
  317.53        2953.25           2190         793.00      3452.89
  317.56        2953.50           2193         818.00      3561.90
  317.59        2953.75           2197         790.00      3439.81
  317.62        2954.00           2200         799.00      3479.05
  317.65        2954.25           2204         821.00      3574.98
  317.68        2954.50           2208         838.00      3649.10
  317.71        2954.75           2211         823.00      3583.70
  317.74        2955.00           2215         853.00      3714.51
  317.78        2955.25           2218         842.00      3666.54
  317.81        2955.50           2222         829.00      3609.86
  317.84        2955.75           2225         848.00      3692.70
  317.87        2956.00           2229         881.00      3836.59
  317.90        2956.25           2232         875.00      3810.43
  317.93        2956.50           2236         881.00      3836.59
  317.96        2956.75           2239         872.00      3797.35
  317.99        2957.00           2243         870.00      3788.63
  318.02        2957.25           2246         868.00      3779.91
  318.05        2957.50           2250         865.00      3766.83
  318.08        2957.75           2254         893.00      3888.92
  318.11        2958.00           2257         915.00      3984.85
  318.14        2958.25           2261         920.00      4006.65
  318.17        2958.50           2264         904.00      3936.88
  318.20        2958.75           2268         950.00      4137.46
  318.23        2959.00           2271         954.00      4154.90
  318.26        2959.25           2275         951.00      4141.82
  318.30        2959.50           2278         935.00      4072.05
  318.33        2959.75           2282         954.00      4154.90
  318.36        2960.00           2285         993.00      4324.96
  318.39        2960.25           2289         990.00      4311.88
  318.42        2960.50           2293        1011.00      4403.45
  318.45        2960.75           2296        1027.00      4473.22
  318.48        2961.00           2300        1149.00      5005.21
  318.51        2961.25           2303        1352.00      5890.46
  318.54        2961.50           2307        4560.00     19887.03
  318.57        2961.75           2310       10262.00     44797.92
  318.60        2962.00           2314       20451.00     89417.03
  318.64        2962.25           2317       28867.00    126374.40
  318.67        2962.50           2321       40290.00    176686.00
  318.70        2962.75           2324       49520.00    217465.10
  318.73        2963.00           2328       60885.00    267833.30
  318.76        2963.25           2331       69908.00    307945.90
  318.79        2963.50           2335       82588.00    364502.50
  318.82        2963.75           2339       95716.00    423288.90
  318.85        2964.00           2342      105991.00    469465.50
  318.88        2964.25           2346      118934.00    527841.00
  318.91        2964.50           2349      127238.00    565417.10
  318.94        2964.75           2353      138277.00    615520.00
  318.98        2965.00           2356      147104.00    655707.80
  319.01        2965.25           2360      160097.00    715065.40
  319.04        2965.50           2363      169014.00    755942.80
  319.07        2965.75           2367      180635.00    809389.50
  319.10        2966.00           2370      189129.00    848579.50
  319.13        2966.25           2374      199662.00    897324.90
  319.16        2966.50           2378      208138.00    936670.40
  319.19        2966.75           2381      211233.00    951064.00
  319.22        2967.00           2385      212126.00    955219.60
  319.25        2967.25           2388      212413.00    956555.50
  319.28        2967.50           2392      212091.00    955056.80
  319.31        2967.75           2395      211890.00    954121.30
  319.34        2968.00           2399      209386.00    942472.60
  319.37        2968.25           2402      203302.00    914208.70
  319.40        2968.50           2406      192976.00    866363.90
  319.43        2968.75           2409      184411.00    826798.30
  319.46        2969.00           2413      172152.00    770355.60
  319.50        2969.25           2417      158951.00    709820.10
  319.53        2969.50           2420      149793.00    667972.40
  319.56        2969.75           2424      137394.00    611506.00
  319.59        2970.00           2427      128556.00    571390.10
  319.62        2970.25           2431      115469.00    512190.20
  319.65        2970.50           2434      106090.00    469911.10
  319.68        2970.75           2438       92413.00    408476.00
  319.71        2971.00           2441       82934.00    366048.90
  319.74        2971.25           2445       70523.00    310684.00
  319.77        2971.50           2449       58312.00    256414.90
  319.80        2971.75           2452       49245.00    216248.50
  319.83        2972.00           2456       37657.00    165073.90
  319.86        2972.25           2459       28956.00    126765.80
  319.89        2972.50           2463       16340.00     71398.05
  319.92        2972.75           2466        8150.00     35566.09
  319.95        2973.00           2470        2505.00     10919.49
  319.98        2973.25           2473        1388.00      6047.45
  320.01        2973.50           2477        1107.00      4822.06
  320.05        2973.75           2481        1090.00      4747.93
  320.08        2974.00           2484        1042.00      4538.63
  320.11        2974.25           2488        1039.00      4525.54
  320.14        2974.50           2491         992.00      4320.60
  320.17        2974.75           2495         980.00      4268.27
  320.20        2975.00           2498        1016.00      4425.25
  320.23        2975.25           2502         986.00      4294.44
  320.26        2975.50           2505         957.00      4167.98
  320.29        2975.75           2509         939.00      4089.50
  320.32        2976.00           2512         923.00      4019.73
  320.35        2976.25           2516         952.00      4146.18
  320.38        2976.50           2520         895.00      3897.64
  320.41        2976.75           2523         951.00      4141.82
  320.44        2977.00           2527         896.00      3902.00
  320.47        2977.25           2530         864.00      3762.47
  320.50        2977.50           2534         894.00      3893.28
  320.54        2977.75           2537         896.00      3902.00
  320.57        2978.00           2541         860.00      3745.03
  320.60        2978.25           2544         866.00      3771.19
  320.63        2978.50           2548         841.00      3662.18
  320.66        2978.75           2552         848.00      3692.70
  320.69        2979.00           2555         872.00      3797.35
  320.72        2979.25           2559         819.00      3566.26
  320.75        2979.50           2562         799.00      3479.05
  320.78        2979.75           2566         830.00      3614.22
  320.81        2980.00           2569         823.00      3583.70
  320.84        2980.25           2573         808.00      3518.29
  320.87        2980.50           2577         806.00      3509.57
  320.90        2980.75           2580         800.00      3483.41
  320.93        2981.00           2584         796.00      3465.97
  320.96        2981.25           2587         806.00      3509.57
  320.99        2981.50           2591         795.00      3461.61
  321.02        2981.75           2594         758.00      3300.28
  321.06        2982.00           2598         795.00      3461.61
  321.09        2982.25           2601         784.00      3413.65
  321.12        2982.50           2605         783.00      3409.29
  321.15        2982.75           2609         837.00      3644.74
  321.18        2983.00           2612         769.00      3348.25
  321.21        2983.25           2616         781.00      3400.57
  321.24        2983.50           2619         769.00      3348.25
  321.27        2983.75           2623         755.00      3287.20
  321.30        2984.00           2626         766.00      3335.16
HS scan finished at 05:21:31
end
************************************************************
  HS Scan of 
************************************************************
Integration time is 0.2294 seconds per sample
dh080117Reading 51.44 .94 3.11pr1000
************************************************************
Dead Time -------------------------  3.4E-08 
Number of Cycles Used -------------  4 
Starting Wavelength (Angstroms) ---  2950 
Final Wavelength (Angstoms) -------  2984 
Wavelength Increment (Angstroms) --  .25 
Filter Wheel #1 Position ---------- (1) Ground quartz diffuser (ND=2.32)
Filter Wheel #2 Position ---------- (1) Neutral Density 0.494



************************************************************
HS scan start time = 17:07:17
Dark Count =  1.2 


Time (GMT)  Wavelength (Ang)  Step Number  Raw Counts  Counts/Second

 1028.18        2950.00           2144         748.00      3255.81
 1028.38        2950.25           2147         762.00      3316.85
 1028.41        2950.50           2151         784.00      3412.78
 1028.44        2950.75           2155         771.00      3356.09
 1028.47        2951.00           2158         770.00      3351.73
 1028.50        2951.25           2162         773.00      3364.81
 1028.53        2951.50           2165         772.00      3360.45
 1028.56        2951.75           2169         754.00      3281.97
 1028.59        2952.00           2172         771.00      3356.09
 1028.62        2952.25           2176         739.00      3216.57
 1028.65        2952.50           2179         787.00      3425.86
 1028.68        2952.75           2183         792.00      3447.66
 1028.71        2953.00           2186         789.00      3434.58
 1028.74        2953.25           2190         764.00      3325.57
 1028.77        2953.50           2193         767.00      3338.65
 1028.80        2953.75           2197         783.00      3408.42
 1028.83        2954.00           2200         790.00      3438.94
 1028.87        2954.25           2204         795.00      3460.74
 1028.90        2954.50           2208         819.00      3565.38
 1028.93        2954.75           2211         793.00      3452.02
 1028.96        2955.00           2215         788.00      3430.22
 1028.99        2955.25           2218         825.00      3591.55
 1029.02        2955.50           2222         804.00      3499.98
 1029.05        2955.75           2225         822.00      3578.47
 1029.08        2956.00           2229         808.00      3517.42
 1029.11        2956.25           2232         818.00      3561.02
 1029.14        2956.50           2236         817.00      3556.66
 1029.17        2956.75           2239         837.00      3643.87
 1029.20        2957.00           2243         866.00      3770.32
 1029.23        2957.25           2246         855.00      3722.35
 1029.26        2957.50           2250         864.00      3761.60
 1029.29        2957.75           2254         840.00      3656.95
 1029.32        2958.00           2257         841.00      3661.31
 1029.35        2958.25           2261         898.00      3909.85
 1029.39        2958.50           2264         929.00      4045.02
 1029.42        2958.75           2268         864.00      3761.60
 1029.45        2959.00           2271         904.00      3936.01
 1029.48        2959.25           2275         925.00      4027.58
 1029.51        2959.50           2278         929.00      4045.02
 1029.54        2959.75           2282         930.00      4049.38
 1029.57        2960.00           2285         970.00      4223.80
 1029.60        2960.25           2289         973.00      4236.88
 1029.63        2960.50           2293         981.00      4271.76
 1029.66        2960.75           2296        1048.00      4563.92
 1029.69        2961.00           2300        1073.00      4672.93
 1029.72        2961.25           2303        1374.00      5985.53
 1029.75        2961.50           2307        4397.00     19174.66
 1029.78        2961.75           2310       10046.00     43852.61
 1029.81        2962.00           2314       20075.00     87767.19
 1029.84        2962.25           2317       28696.00    125621.70
 1029.87        2962.50           2321       41055.00    180060.60
 1029.91        2962.75           2324       49894.00    219119.00
 1029.94        2963.00           2328       61280.00    269586.20
 1029.97        2963.25           2331       70095.00    308777.50
 1030.00        2963.50           2335       81799.00    360976.00
 1030.03        2963.75           2339       95133.00    420672.30
 1030.06        2964.00           2342      104867.00    464406.10
 1030.09        2964.25           2346      117262.00    520285.80
 1030.12        2964.50           2349      125872.00    559228.30
 1030.15        2964.75           2353      137034.00    609868.90
 1030.18        2965.00           2356      144996.00    646099.50
 1030.21        2965.25           2360      157089.00    701301.10
 1030.24        2965.50           2363      165572.00    740149.50
 1030.27        2965.75           2367      177546.00    795162.60
 1030.30        2966.00           2370      184960.00    829330.20
 1030.33        2966.25           2374      195516.00    878117.20
 1030.36        2966.50           2378      201346.00    905132.60
 1030.39        2966.75           2381      203048.00    913028.90
 1030.43        2967.00           2385      203439.00    914843.50
 1030.46        2967.25           2388      203684.00    915980.70
 1030.49        2967.50           2392      203639.00    915771.80
 1030.52        2967.75           2395      203311.00    914249.60
 1030.55        2968.00           2399      198529.00    892072.80
 1030.58        2968.25           2402      192850.00    865780.20
 1030.61        2968.50           2406      183644.00    823259.50
 1030.64        2968.75           2409      176072.00    788379.20
 1030.67        2969.00           2413      165053.00    737769.60
 1030.70        2969.25           2417      152598.00    680776.20
 1030.73        2969.50           2420      144032.00    641708.00
 1030.76        2969.75           2424      132499.00    589272.90
 1030.79        2970.00           2427      124368.00    552418.30
 1030.82        2970.25           2431      112462.00    498620.80
 1030.85        2970.50           2434      103407.00    457838.10
 1030.88        2970.75           2438       91485.00    404316.00
 1030.91        2971.00           2441       81876.00    361320.10
 1030.95        2971.25           2445       69345.00    305438.90
 1030.98        2971.50           2449       56899.00    250147.30
 1031.01        2971.75           2452       48320.00    212156.10
 1031.04        2972.00           2456       36578.00    160317.00
 1031.07        2972.25           2459       28080.00    122913.70
 1031.10        2972.50           2463       16526.00     72211.96
 1031.13        2972.75           2466        8800.00     38405.83
 1031.16        2973.00           2470        2672.00     11647.16
 1031.19        2973.25           2473        1344.00      5854.70
 1031.22        2973.50           2477        1094.00      4764.50
 1031.25        2973.75           2481        1047.00      4559.56
 1031.28        2974.00           2484        1011.00      4402.58
 1031.31        2974.25           2488         973.00      4236.88
 1031.34        2974.50           2491         974.00      4241.24
 1031.37        2974.75           2495         952.00      4145.31
 1031.40        2975.00           2498         975.00      4245.60
 1031.43        2975.25           2502         937.00      4079.90
 1031.46        2975.50           2505         927.00      4036.30
 1031.50        2975.75           2509         929.00      4045.02
 1031.53        2976.00           2512         913.00      3975.25
 1031.56        2976.25           2516         893.00      3888.05
 1031.59        2976.50           2520         892.00      3883.69
 1031.62        2976.75           2523         889.00      3870.61
 1031.65        2977.00           2527         888.00      3866.25
 1031.68        2977.25           2530         846.00      3683.11
 1031.71        2977.50           2534         879.00      3827.00
 1031.74        2977.75           2537         834.00      3630.79
 1031.77        2978.00           2541         846.00      3683.11
 1031.80        2978.25           2544         840.00      3656.95
 1031.83        2978.50           2548         808.00      3517.42
 1031.86        2978.75           2552         811.00      3530.50
 1031.89        2979.00           2555         822.00      3578.47
 1031.92        2979.25           2559         798.00      3473.82
 1031.95        2979.50           2562         815.00      3547.94
 1031.98        2979.75           2566         813.00      3539.22
 1032.02        2980.00           2569         795.00      3460.74
 1032.05        2980.25           2573         779.00      3390.98
 1032.08        2980.50           2577         805.00      3504.34
 1032.11        2980.75           2580         796.00      3465.10
 1032.14        2981.00           2584         791.00      3443.30
 1032.17        2981.25           2587         763.00      3321.21
 1032.20        2981.50           2591         768.00      3343.01
 1032.23        2981.75           2594         791.00      3443.30
 1032.26        2982.00           2598         778.00      3386.61
 1032.29        2982.25           2601         764.00      3325.57
 1032.32        2982.50           2605         735.00      3199.13
 1032.35        2982.75           2609         742.00      3229.65
 1032.38        2983.00           2612         741.00      3225.29
 1032.41        2983.25           2616         743.00      3234.01
 1032.44        2983.50           2619         746.00      3247.09
 1032.47        2983.75           2623         743.00      3234.01
 1032.50        2984.00           2626         761.00      3312.49
HS scan finished at 17:12:44
end
