************************************************************
  HS Scan of (1) Internal mercury lamp
************************************************************
Integration time is 0.2294 seconds per sample
dh050119Reading 51.44 .94 2.64pr1000
************************************************************
Dead Time -------------------------  3.4E-08 
Number of Cycles Used -------------  4 
Starting Wavelength (Angstroms) ---  2950 
Final Wavelength (Angstoms) -------  2984 
Wavelength Increment (Angstroms) --  .25 
Filter Wheel #1 Position ---------- (1) Ground quartz diffuser (ND=2.32)
Filter Wheel #2 Position ---------- (1) Neutral Density 0.494



************************************************************
HS scan start time = 05:16:31
Dark Count =  .6 


Time (GMT)  Wavelength (Ang)  Step Number  Raw Counts  Counts/Second

  317.42        2950.00           2144        1429.00      6228.00
  317.61        2950.25           2147        1430.00      6232.36
  317.64        2950.50           2151        1454.00      6337.02
  317.67        2950.75           2155        1490.00      6494.02
  317.70        2951.00           2158        1488.00      6485.30
  317.73        2951.25           2162        1444.00      6293.41
  317.76        2951.50           2165        1476.00      6432.97
  317.79        2951.75           2169        1444.00      6293.41
  317.82        2952.00           2172        1487.00      6480.94
  317.85        2952.25           2176        1478.00      6441.69
  317.88        2952.50           2179        1503.00      6550.72
  317.92        2952.75           2183        1492.00      6502.75
  317.95        2953.00           2186        1463.00      6376.27
  317.98        2953.25           2190        1499.00      6533.27
  318.01        2953.50           2193        1496.00      6520.19
  318.04        2953.75           2197        1497.00      6524.55
  318.07        2954.00           2200        1511.00      6585.61
  318.10        2954.25           2204        1528.00      6659.75
  318.13        2954.50           2208        1527.00      6655.39
  318.16        2954.75           2211        1559.00      6794.94
  318.19        2955.00           2215        1523.00      6637.94
  318.22        2955.25           2218        1551.00      6760.05
  318.25        2955.50           2222        1543.00      6725.16
  318.28        2955.75           2225        1556.00      6781.86
  318.31        2956.00           2229        1580.00      6886.53
  318.34        2956.25           2232        1565.00      6821.11
  318.37        2956.50           2236        1576.00      6869.08
  318.40        2956.75           2239        1590.00      6930.14
  318.44        2957.00           2243        1580.00      6886.53
  318.47        2957.25           2246        1625.00      7082.79
  318.50        2957.50           2250        1611.00      7021.73
  318.53        2957.75           2254        1648.00      7183.10
  318.56        2958.00           2257        1629.00      7100.23
  318.59        2958.25           2261        1666.00      7261.60
  318.62        2958.50           2264        1681.00      7327.02
  318.65        2958.75           2268        1715.00      7475.31
  318.68        2959.00           2271        1667.00      7265.96
  318.71        2959.25           2275        1683.00      7335.75
  318.74        2959.50           2278        1719.00      7492.75
  318.77        2959.75           2282        1731.00      7545.09
  318.80        2960.00           2285        1754.00      7645.41
  318.83        2960.25           2289        1840.00      8020.50
  318.86        2960.50           2293        1839.00      8016.14
  318.89        2960.75           2296        1853.00      8077.20
  318.92        2961.00           2300        1930.00      8413.04
  318.96        2961.25           2303        2303.00     10040.04
  318.99        2961.50           2307        6599.00     28791.91
  319.02        2961.75           2310       15241.00     66586.50
  319.05        2962.00           2314       30860.00    135141.80
  319.08        2962.25           2317       42589.00    186834.40
  319.11        2962.50           2321       60483.00    266050.50
  319.14        2962.75           2324       75090.00    331034.50
  319.17        2963.00           2328       94943.00    419822.70
  319.20        2963.25           2331      108629.00    481346.20
  319.23        2963.50           2335      129570.00    575988.90
  319.26        2963.75           2339      149380.00    666089.90
  319.29        2964.00           2342      166284.00    743417.60
  319.32        2964.25           2346      186733.00    837516.00
  319.35        2964.50           2349      201259.00    904731.90
  319.38        2964.75           2353      220411.00    993833.50
  319.41        2965.00           2356      233976.00   1057277.00
  319.44        2965.25           2360      253926.00   1151091.00
  319.48        2965.50           2363      269227.00   1223460.00
  319.51        2965.75           2367      286765.00   1306860.00
  319.54        2966.00           2370      299642.00   1368404.00
  319.57        2966.25           2374      317749.00   1455393.00
  319.60        2966.50           2378      331244.00   1520571.00
  319.63        2966.75           2381      336103.00   1544111.00
  319.66        2967.00           2385      338376.00   1555137.00
  319.69        2967.25           2388      339808.00   1562087.00
  319.72        2967.50           2392      339253.00   1559393.00
  319.75        2967.75           2395      339026.00   1558291.00
  319.78        2968.00           2399      334941.00   1538478.00
  319.81        2968.25           2402      325662.00   1493575.00
  319.84        2968.50           2406      310222.00   1419168.00
  319.87        2968.75           2409      297616.00   1358703.00
  319.90        2969.00           2413      280241.00   1275779.00
  319.93        2969.25           2417      258628.00   1173292.00
  319.96        2969.50           2420      242138.00   1095585.00
  319.99        2969.75           2424      222129.00   1001853.00
  320.03        2970.00           2427      207791.00    935059.30
  320.06        2970.25           2431      188106.00    843855.80
  320.09        2970.50           2434      172893.00    773763.00
  320.12        2970.75           2438      151406.00    675336.10
  320.15        2971.00           2441      135405.00    602470.10
  320.18        2971.25           2445      114675.00    508608.00
  320.21        2971.50           2449       96524.00    426916.60
  320.24        2971.75           2452       81666.00    360384.60
  320.27        2972.00           2456       63394.00    278978.10
  320.30        2972.25           2459       49527.00    217497.80
  320.33        2972.50           2463       29631.00    129735.80
  320.36        2972.75           2466       16073.00     70230.27
  320.39        2973.00           2470        5331.00     23254.65
  320.42        2973.25           2473        2735.00     11924.63
  320.45        2973.50           2477        1994.00      8692.19
  320.48        2973.75           2481        1933.00      8426.13
  320.51        2974.00           2484        1831.00      7981.24
  320.55        2974.25           2488        1779.00      7754.44
  320.58        2974.50           2491        1779.00      7754.44
  320.61        2974.75           2495        1746.00      7610.51
  320.64        2975.00           2498        1746.00      7610.51
  320.67        2975.25           2502        1722.00      7505.84
  320.70        2975.50           2505        1703.00      7422.97
  320.73        2975.75           2509        1696.00      7392.44
  320.76        2976.00           2512        1647.00      7178.74
  320.79        2976.25           2516        1632.00      7113.32
  320.82        2976.50           2520        1588.00      6921.42
  320.85        2976.75           2523        1577.00      6873.45
  320.88        2977.00           2527        1551.00      6760.05
  320.91        2977.25           2530        1531.00      6672.83
  320.94        2977.50           2534        1553.00      6768.78
  320.97        2977.75           2537        1537.00      6699.00
  321.00        2978.00           2541        1536.00      6694.64
  321.03        2978.25           2544        1524.00      6642.30
  321.07        2978.50           2548        1528.00      6659.75
  321.10        2978.75           2552        1528.00      6659.75
  321.13        2979.00           2555        1506.00      6563.80
  321.16        2979.25           2559        1491.00      6498.39
  321.19        2979.50           2562        1502.00      6546.36
  321.23        2979.75           2566        1430.00      6232.36
  321.26        2980.00           2569        1445.00      6297.77
  321.29        2980.25           2573        1464.00      6380.64
  321.32        2980.50           2577        1413.00      6158.22
  321.35        2980.75           2580        1464.00      6380.64
  321.38        2981.00           2584        1432.00      6241.08
  321.41        2981.25           2587        1452.00      6328.30
  321.44        2981.50           2591        1393.00      6071.00
  321.47        2981.75           2594        1437.00      6262.89
  321.50        2982.00           2598        1383.00      6027.39
  321.53        2982.25           2601        1380.00      6014.31
  321.56        2982.50           2605        1399.00      6097.17
  321.59        2982.75           2609        1365.00      5948.89
  321.62        2983.00           2612        1364.00      5944.53
  321.65        2983.25           2616        1372.00      5979.42
  321.68        2983.50           2619        1368.00      5961.98
  321.71        2983.75           2623        1359.00      5922.73
  321.75        2984.00           2626        1362.00      5935.81
HS scan finished at 05:21:58
end
************************************************************
  HS Scan of (1) Internal mercury lamp
************************************************************
Integration time is 0.2294 seconds per sample
dh050119Reading 51.44 .94 2.78pr1000
************************************************************
Dead Time -------------------------  3.4E-08 
Number of Cycles Used -------------  4 
Starting Wavelength (Angstroms) ---  2950 
Final Wavelength (Angstoms) -------  2984 
Wavelength Increment (Angstroms) --  .25 
Filter Wheel #1 Position ---------- (1) Ground quartz diffuser (ND=2.32)
Filter Wheel #2 Position ---------- (1) Neutral Density 0.494



************************************************************
HS scan start time = 17:07:28
Dark Count =  .7 


Time (GMT)  Wavelength (Ang)  Step Number  Raw Counts  Counts/Second

 1028.36        2950.00           2144        1406.00      6127.26
 1028.56        2950.25           2147        1463.00      6375.84
 1028.59        2950.50           2151        1407.00      6131.62
 1028.62        2950.75           2155        1420.00      6188.31
 1028.65        2951.00           2158        1429.00      6227.56
 1028.68        2951.25           2162        1408.00      6135.98
 1028.71        2951.50           2165        1460.00      6362.75
 1028.74        2951.75           2169        1469.00      6402.00
 1028.77        2952.00           2172        1443.00      6288.62
 1028.80        2952.25           2176        1441.00      6279.89
 1028.83        2952.50           2179        1464.00      6380.20
 1028.86        2952.75           2183        1453.00      6332.23
 1028.89        2953.00           2186        1443.00      6288.62
 1028.92        2953.25           2190        1470.00      6406.36
 1028.95        2953.50           2193        1480.00      6449.98
 1028.98        2953.75           2197        1450.00      6319.14
 1029.02        2954.00           2200        1464.00      6380.20
 1029.05        2954.25           2204        1483.00      6463.06
 1029.08        2954.50           2208        1510.00      6580.81
 1029.11        2954.75           2211        1567.00      6829.40
 1029.14        2955.00           2215        1506.00      6563.37
 1029.17        2955.25           2218        1555.00      6777.06
 1029.20        2955.50           2222        1514.00      6598.25
 1029.23        2955.75           2225        1552.00      6763.98
 1029.26        2956.00           2229        1540.00      6711.64
 1029.29        2956.25           2232        1546.00      6737.81
 1029.32        2956.50           2236        1577.00      6873.01
 1029.35        2956.75           2239        1530.00      6668.03
 1029.38        2957.00           2243        1555.00      6777.06
 1029.41        2957.25           2246        1574.00      6859.93
 1029.44        2957.50           2250        1620.00      7060.54
 1029.47        2957.75           2254        1556.00      6781.42
 1029.50        2958.00           2257        1612.00      7025.65
 1029.54        2958.25           2261        1621.00      7064.91
 1029.57        2958.50           2264        1623.00      7073.63
 1029.60        2958.75           2268        1670.00      7278.61
 1029.63        2959.00           2271        1641.00      7152.13
 1029.66        2959.25           2275        1654.00      7208.83
 1029.69        2959.50           2278        1747.00      7614.44
 1029.72        2959.75           2282        1723.00      7509.76
 1029.75        2960.00           2285        1727.00      7527.21
 1029.78        2960.25           2289        1742.00      7592.63
 1029.81        2960.50           2293        1818.00      7924.11
 1029.84        2960.75           2296        1811.00      7893.58
 1029.87        2961.00           2300        1887.00      8225.06
 1029.90        2961.25           2303        2123.00      9254.44
 1029.93        2961.50           2307        4226.00     18430.46
 1029.96        2961.75           2310       10222.00     44624.32
 1029.99        2962.00           2314       24082.00    105351.90
 1030.02        2962.25           2317       37499.00    164378.60
 1030.06        2962.50           2321       57645.00    253457.70
 1030.09        2962.75           2324       72360.00    318866.80
 1030.12        2963.00           2328       91823.00    405832.90
 1030.15        2963.25           2331      108082.00    478881.80
 1030.18        2963.50           2335      128318.00    570312.70
 1030.21        2963.75           2339      148766.00    663288.30
 1030.24        2964.00           2342      164637.00    735864.70
 1030.27        2964.25           2346      185148.00    830200.00
 1030.30        2964.50           2349      200711.00    902190.00
 1030.33        2964.75           2353      221598.00    999373.50
 1030.36        2965.00           2356      235647.00   1065111.00
 1030.39        2965.25           2360      254339.00   1153040.00
 1030.42        2965.50           2363      269368.00   1224128.00
 1030.45        2965.75           2367      290018.00   1322382.00
 1030.48        2966.00           2370      303792.00   1388294.00
 1030.51        2966.25           2374      320912.00   1470643.00
 1030.54        2966.50           2378      334588.00   1536767.00
 1030.57        2966.75           2381      339058.00   1558446.00
 1030.61        2967.00           2385      341859.00   1572047.00
 1030.64        2967.25           2388      343057.00   1577869.00
 1030.67        2967.50           2392      342705.00   1576158.00
 1030.70        2967.75           2395      342155.00   1573485.00
 1030.73        2968.00           2399      339720.00   1561659.00
 1030.76        2968.25           2402      332297.00   1525668.00
 1030.79        2968.50           2406      316093.00   1447415.00
 1030.82        2968.75           2409      304540.00   1391882.00
 1030.85        2969.00           2413      287512.00   1310422.00
 1030.88        2969.25           2417      269878.00   1226547.00
 1030.91        2969.50           2420      255131.00   1156777.00
 1030.94        2969.75           2424      234152.00   1058101.00
 1030.97        2970.00           2427      219210.00    988229.40
 1031.00        2970.25           2431      199512.00    896630.90
 1031.03        2970.50           2434      184516.00    827284.10
 1031.06        2970.75           2438      164763.00    736442.30
 1031.09        2971.00           2441      148624.00    662640.60
 1031.13        2971.25           2445      127400.00    566152.50
 1031.16        2971.50           2449      106689.00    472609.00
 1031.19        2971.75           2452       91669.00    405142.80
 1031.22        2972.00           2456       72317.00    318675.30
 1031.25        2972.25           2459       57714.00    253763.80
 1031.28        2972.50           2463       37973.00    166468.30
 1031.31        2972.75           2466       24315.00    106374.90
 1031.34        2973.00           2470        9088.00     39666.80
 1031.37        2973.25           2473        3995.00     17422.26
 1031.40        2973.50           2477        2142.00      9337.31
 1031.43        2973.75           2481        1868.00      8142.18
 1031.46        2974.00           2484        1848.00      8054.95
 1031.49        2974.25           2488        1848.00      8054.95
 1031.52        2974.50           2491        1734.00      7557.74
 1031.55        2974.75           2495        1733.00      7553.38
 1031.58        2975.00           2498        1729.00      7535.93
 1031.61        2975.25           2502        1706.00      7435.62
 1031.65        2975.50           2505        1678.00      7313.50
 1031.68        2975.75           2509        1660.00      7235.00
 1031.71        2976.00           2512        1642.00      7156.49
 1031.74        2976.25           2516        1626.00      7086.71
 1031.77        2976.50           2520        1603.00      6986.40
 1031.80        2976.75           2523        1609.00      7012.57
 1031.83        2977.00           2527        1558.00      6790.15
 1031.86        2977.25           2530        1554.00      6772.70
 1031.89        2977.50           2534        1520.00      6624.42
 1031.92        2977.75           2537        1542.00      6720.37
 1031.95        2978.00           2541        1522.00      6633.14
 1031.98        2978.25           2544        1517.00      6611.34
 1032.01        2978.50           2548        1486.00      6476.14
 1032.04        2978.75           2552        1491.00      6497.95
 1032.07        2979.00           2555        1460.00      6362.75
 1032.10        2979.25           2559        1435.00      6253.73
 1032.13        2979.50           2562        1452.00      6327.87
 1032.17        2979.75           2566        1452.00      6327.87
 1032.20        2980.00           2569        1438.00      6266.81
 1032.23        2980.25           2573        1454.00      6336.59
 1032.26        2980.50           2577        1450.00      6319.14
 1032.29        2980.75           2580        1417.00      6175.23
 1032.32        2981.00           2584        1391.00      6061.84
 1032.35        2981.25           2587        1399.00      6096.73
 1032.38        2981.50           2591        1374.00      5987.71
 1032.41        2981.75           2594        1378.00      6005.15
 1032.44        2982.00           2598        1399.00      6096.73
 1032.47        2982.25           2601        1398.00      6092.37
 1032.50        2982.50           2605        1361.00      5931.01
 1032.53        2982.75           2609        1360.00      5926.65
 1032.56        2983.00           2612        1360.00      5926.65
 1032.59        2983.25           2616        1355.00      5904.85
 1032.62        2983.50           2619        1341.00      5843.79
 1032.65        2983.75           2623        1350.00      5883.04
 1032.69        2984.00           2626        1343.00      5852.52
HS scan finished at 17:12:55
end
