************************************************************
  HS Scan of (1) Internal mercury lamp
************************************************************
Integration time is 0.2294 seconds per sample
dh040118Reading 51.44 .94 2.74pr1000
************************************************************
Dead Time -------------------------  3.4E-08 
Number of Cycles Used -------------  4 
Starting Wavelength (Angstroms) ---  2950 
Final Wavelength (Angstoms) -------  2984 
Wavelength Increment (Angstroms) --  .25 
Filter Wheel #1 Position ---------- (1) Ground quartz diffuser (ND=2.32)
Filter Wheel #2 Position ---------- (1) Neutral Density 0.494



************************************************************
HS scan start time = 05:16:37
Dark Count =  .5 


Time (GMT)  Wavelength (Ang)  Step Number  Raw Counts  Counts/Second

  317.52        2950.00           2144          71.00       307.33
  317.71        2950.25           2147          88.00       381.43
  317.74        2950.50           2151          86.00       372.72
  317.77        2950.75           2155          84.00       364.00
  317.80        2951.00           2158          81.00       350.92
  317.83        2951.25           2162          72.00       311.69
  317.86        2951.50           2165          74.00       320.40
  317.89        2951.75           2169          83.00       359.64
  317.92        2952.00           2172          83.00       359.64
  317.95        2952.25           2176          82.00       355.28
  317.99        2952.50           2179          77.00       333.48
  318.02        2952.75           2183          90.00       390.15
  318.05        2953.00           2186          82.00       355.28
  318.08        2953.25           2190          79.00       342.20
  318.11        2953.50           2193          87.00       377.08
  318.14        2953.75           2197          80.00       346.56
  318.17        2954.00           2200          83.00       359.64
  318.20        2954.25           2204          95.00       411.95
  318.23        2954.50           2208          83.00       359.64
  318.26        2954.75           2211          90.00       390.15
  318.29        2955.00           2215         100.00       433.75
  318.32        2955.25           2218          87.00       377.08
  318.35        2955.50           2222          82.00       355.28
  318.38        2955.75           2225          95.00       411.95
  318.41        2956.00           2229          80.00       346.56
  318.44        2956.25           2232          86.00       372.72
  318.47        2956.50           2236          92.00       398.87
  318.51        2956.75           2239          93.00       403.23
  318.54        2957.00           2243          94.00       407.59
  318.58        2957.25           2246         105.00       455.54
  318.61        2957.50           2250          93.00       403.23
  318.64        2957.75           2254          98.00       425.03
  318.67        2958.00           2257          97.00       420.67
  318.70        2958.25           2261          93.00       403.23
  318.74        2958.50           2264          96.00       416.31
  318.77        2958.75           2268          89.00       385.79
  318.80        2959.00           2271          97.00       420.67
  318.83        2959.25           2275          99.00       429.39
  318.86        2959.50           2278         101.00       438.11
  318.89        2959.75           2282         104.00       451.18
  318.92        2960.00           2285          98.00       425.03
  318.95        2960.25           2289         129.00       560.17
  318.98        2960.50           2293         117.00       507.86
  319.01        2960.75           2296         129.00       560.17
  319.04        2961.00           2300         121.00       525.29
  319.07        2961.25           2303         209.00       908.92
  319.10        2961.50           2307         795.00      3463.79
  319.13        2961.75           2310        1675.00      7301.29
  319.16        2962.00           2314        2907.00     12675.47
  319.19        2962.25           2317        3877.00     16908.15
  319.22        2962.50           2321        5174.00     22569.63
  319.25        2962.75           2324        6168.00     26909.97
  319.29        2963.00           2328        7639.00     33335.50
  319.32        2963.25           2331        8680.00     37884.43
  319.35        2963.50           2335       10115.00     44157.36
  319.38        2963.75           2339       11512.00     50266.74
  319.41        2964.00           2342       12605.00     55048.45
  319.44        2964.25           2346       14080.00     61503.81
  319.47        2964.50           2349       14997.00     65518.51
  319.50        2964.75           2353       16560.00     72363.97
  319.53        2965.00           2356       17581.00     76837.36
  319.56        2965.25           2360       19060.00     83319.84
  319.59        2965.50           2363       20009.00     87480.83
  319.62        2965.75           2367       21770.00     95205.24
  319.65        2966.00           2370       22604.00     98864.90
  319.68        2966.25           2374       23378.00    102262.10
  319.71        2966.50           2378       23938.00    104720.50
  319.74        2966.75           2381       23958.00    104808.30
  319.77        2967.00           2385       23883.00    104479.00
  319.81        2967.25           2388       24060.00    105256.10
  319.84        2967.50           2392       23805.00    104136.60
  319.87        2967.75           2395       23725.00    103785.40
  319.90        2968.00           2399       22908.00    100199.10
  319.93        2968.25           2402       22262.00     97364.06
  319.96        2968.50           2406       21142.00     92450.12
  319.99        2968.75           2409       20071.00     87752.71
  320.02        2969.00           2413       18740.00     81917.02
  320.05        2969.25           2417       17247.00     75373.82
  320.08        2969.50           2420       16191.00     70747.56
  320.11        2969.75           2424       14912.00     65146.32
  320.14        2970.00           2427       13664.00     59682.89
  320.17        2970.25           2431       12194.00     53250.21
  320.20        2970.50           2434       11285.00     49273.85
  320.23        2970.75           2438        9844.00     42972.51
  320.26        2971.00           2441        8994.00     39256.81
  320.29        2971.25           2445        7616.00     33235.01
  320.33        2971.50           2449        6184.00     26979.84
  320.36        2971.75           2452        5191.00     22643.85
  320.39        2972.00           2456        3858.00     16825.23
  320.42        2972.25           2459        2941.00     12823.81
  320.45        2972.50           2463        1651.00      7196.62
  320.48        2972.75           2466         825.00      3594.60
  320.51        2973.00           2470         299.00      1301.28
  320.54        2973.25           2473         153.00       664.79
  320.57        2973.50           2477         156.00       677.87
  320.60        2973.75           2481         128.00       555.81
  320.63        2974.00           2484         119.00       516.57
  320.66        2974.25           2488         111.00       481.70
  320.69        2974.50           2491         106.00       459.90
  320.72        2974.75           2495         110.00       477.34
  320.75        2975.00           2498          94.00       407.59
  320.78        2975.25           2502          98.00       425.03
  320.81        2975.50           2505         100.00       433.75
  320.85        2975.75           2509         104.00       451.18
  320.88        2976.00           2512          93.00       403.23
  320.91        2976.25           2516          91.00       394.51
  320.94        2976.50           2520          80.00       346.56
  320.97        2976.75           2523          96.00       416.31
  321.00        2977.00           2527         110.00       477.34
  321.03        2977.25           2530          83.00       359.64
  321.06        2977.50           2534          87.00       377.08
  321.09        2977.75           2537          93.00       403.23
  321.12        2978.00           2541          83.00       359.64
  321.15        2978.25           2544          89.00       385.79
  321.18        2978.50           2548          92.00       398.87
  321.21        2978.75           2552          83.00       359.64
  321.24        2979.00           2555          90.00       390.15
  321.27        2979.25           2559          79.00       342.20
  321.30        2979.50           2562          85.00       368.36
  321.33        2979.75           2566          83.00       359.64
  321.37        2980.00           2569          79.00       342.20
  321.40        2980.25           2573          81.00       350.92
  321.43        2980.50           2577          87.00       377.08
  321.46        2980.75           2580          87.00       377.08
  321.49        2981.00           2584          82.00       355.28
  321.52        2981.25           2587          76.00       329.12
  321.55        2981.50           2591          83.00       359.64
  321.58        2981.75           2594          74.00       320.40
  321.61        2982.00           2598          86.00       372.72
  321.64        2982.25           2601          74.00       320.40
  321.67        2982.50           2605          85.00       368.36
  321.70        2982.75           2609          77.00       333.48
  321.73        2983.00           2612          81.00       350.92
  321.76        2983.25           2616          77.00       333.48
  321.79        2983.50           2619          78.00       337.84
  321.82        2983.75           2623          75.00       324.76
  321.85        2984.00           2626          67.00       289.89
HS scan finished at 05:22:04
end
************************************************************
  HS Scan of (1) Internal mercury lamp
************************************************************
Integration time is 0.2294 seconds per sample
dh040118Reading 51.44 .94 2.92pr1000
************************************************************
Dead Time -------------------------  3.4E-08 
Number of Cycles Used -------------  4 
Starting Wavelength (Angstroms) ---  2950 
Final Wavelength (Angstoms) -------  2984 
Wavelength Increment (Angstroms) --  .25 
Filter Wheel #1 Position ---------- (1) Ground quartz diffuser (ND=2.32)
Filter Wheel #2 Position ---------- (1) Neutral Density 0.494



************************************************************
HS scan start time = 17:07:29
Dark Count =  .9 


Time (GMT)  Wavelength (Ang)  Step Number  Raw Counts  Counts/Second

 1028.38        2950.00           2144          85.00       366.61
 1028.57        2950.25           2147          76.00       327.38
 1028.60        2950.50           2151          85.00       366.61
 1028.63        2950.75           2155          82.00       353.54
 1028.66        2951.00           2158          76.00       327.38
 1028.69        2951.25           2162          77.00       331.74
 1028.72        2951.50           2165          85.00       366.61
 1028.75        2951.75           2169          75.00       323.02
 1028.78        2952.00           2172          79.00       340.46
 1028.81        2952.25           2176          71.00       305.58
 1028.84        2952.50           2179          77.00       331.74
 1028.87        2952.75           2183          88.00       379.69
 1028.91        2953.00           2186          78.00       336.10
 1028.94        2953.25           2190          84.00       362.25
 1028.97        2953.50           2193          84.00       362.25
 1029.00        2953.75           2197          71.00       305.58
 1029.03        2954.00           2200          84.00       362.25
 1029.06        2954.25           2204          92.00       397.13
 1029.09        2954.50           2208          84.00       362.25
 1029.12        2954.75           2211          82.00       353.54
 1029.15        2955.00           2215          84.00       362.25
 1029.18        2955.25           2218          89.00       384.05
 1029.21        2955.50           2222          84.00       362.25
 1029.24        2955.75           2225          88.00       379.69
 1029.27        2956.00           2229          93.00       401.49
 1029.30        2956.25           2232          89.00       384.05
 1029.33        2956.50           2236          83.00       357.89
 1029.36        2956.75           2239          81.00       349.18
 1029.39        2957.00           2243          91.00       392.77
 1029.43        2957.25           2246          93.00       401.49
 1029.46        2957.50           2250          98.00       423.28
 1029.49        2957.75           2254          84.00       362.25
 1029.52        2958.00           2257         117.00       506.11
 1029.55        2958.25           2261         102.00       440.72
 1029.58        2958.50           2264         111.00       479.96
 1029.61        2958.75           2268         101.00       436.36
 1029.64        2959.00           2271          93.00       401.49
 1029.67        2959.25           2275         102.00       440.72
 1029.70        2959.50           2278          97.00       418.92
 1029.73        2959.75           2282          97.00       418.92
 1029.76        2960.00           2285         121.00       523.55
 1029.79        2960.25           2289         101.00       436.36
 1029.82        2960.50           2293          98.00       423.28
 1029.85        2960.75           2296         111.00       479.96
 1029.88        2961.00           2300         128.00       554.06
 1029.91        2961.25           2303         185.00       802.55
 1029.95        2961.50           2307         673.00      2930.11
 1029.98        2961.75           2310        1379.00      6008.64
 1030.01        2962.00           2314        2697.00     11757.53
 1030.04        2962.25           2317        3782.00     16491.81
 1030.07        2962.50           2321        5095.00     22222.98
 1030.10        2962.75           2324        5972.00     26052.27
 1030.13        2963.00           2328        7530.00     32857.53
 1030.16        2963.25           2331        8620.00     37620.45
 1030.19        2963.50           2335       10143.00     44278.03
 1030.22        2963.75           2339       11628.00     50772.40
 1030.25        2964.00           2342       12777.00     55799.31
 1030.28        2964.25           2346       14080.00     61502.06
 1030.31        2964.50           2349       15165.00     66252.38
 1030.34        2964.75           2353       16325.00     71332.78
 1030.37        2965.00           2356       17232.00     75306.35
 1030.40        2965.25           2360       18399.00     80420.55
 1030.43        2965.50           2363       19342.00     84554.41
 1030.47        2965.75           2367       21285.00     93075.68
 1030.50        2966.00           2370       21976.00     96107.34
 1030.53        2966.25           2374       23262.00    101751.20
 1030.56        2966.50           2378       23768.00    103972.40
 1030.59        2966.75           2381       24049.00    105206.10
 1030.62        2967.00           2385       23887.00    104494.80
 1030.65        2967.25           2388       24027.00    105109.50
 1030.68        2967.50           2392       23872.00    104429.00
 1030.71        2967.75           2395       23689.00    103625.60
 1030.74        2968.00           2399       23641.00    103414.90
 1030.77        2968.25           2402       22376.00     97862.57
 1030.80        2968.50           2406       20898.00     91378.06
 1030.83        2968.75           2409       19967.00     87294.89
 1030.86        2969.00           2413       18559.00     81121.87
 1030.89        2969.25           2417       17203.00     75179.28
 1030.92        2969.50           2420       15948.00     69681.46
 1030.95        2969.75           2424       14664.00     64058.73
 1030.99        2970.00           2427       13516.00     59033.37
 1031.02        2970.25           2431       12102.00     52845.96
 1031.05        2970.50           2434       11233.00     49044.66
 1031.08        2970.75           2438        9851.00     43001.36
 1031.11        2971.00           2441        8670.00     37838.97
 1031.14        2971.25           2445        7300.00     31852.70
 1031.17        2971.50           2449        5820.00     25388.52
 1031.20        2971.75           2452        4726.00     20612.09
 1031.23        2972.00           2456        3519.00     15344.10
 1031.26        2972.25           2459        2500.00     10898.11
 1031.29        2972.50           2463        1247.00      5433.00
 1031.32        2972.75           2466         628.00      2733.91
 1031.35        2973.00           2470         207.00       898.46
 1031.38        2973.25           2473         159.00       689.21
 1031.41        2973.50           2477         131.00       567.14
 1031.44        2973.75           2481         107.00       462.52
 1031.47        2974.00           2484         103.00       445.08
 1031.50        2974.25           2488         109.00       471.24
 1031.54        2974.50           2491         104.00       449.44
 1031.57        2974.75           2495         103.00       445.08
 1031.60        2975.00           2498         118.00       510.47
 1031.63        2975.25           2502         129.00       558.42
 1031.66        2975.50           2505         117.00       506.11
 1031.69        2975.75           2509         102.00       440.72
 1031.72        2976.00           2512         110.00       475.60
 1031.75        2976.25           2516         100.00       432.00
 1031.78        2976.50           2520          86.00       370.97
 1031.81        2976.75           2523          93.00       401.49
 1031.84        2977.00           2527          90.00       388.41
 1031.87        2977.25           2530          88.00       379.69
 1031.90        2977.50           2534          87.00       375.33
 1031.93        2977.75           2537          97.00       418.92
 1031.96        2978.00           2541          86.00       370.97
 1031.99        2978.25           2544          92.00       397.13
 1032.02        2978.50           2548          93.00       401.49
 1032.06        2978.75           2552          80.00       344.82
 1032.09        2979.00           2555          81.00       349.18
 1032.12        2979.25           2559          83.00       357.89
 1032.15        2979.50           2562          83.00       357.89
 1032.18        2979.75           2566          83.00       357.89
 1032.21        2980.00           2569          81.00       349.18
 1032.24        2980.25           2573          84.00       362.25
 1032.27        2980.50           2577          74.00       318.66
 1032.30        2980.75           2580          78.00       336.10
 1032.33        2981.00           2584          81.00       349.18
 1032.36        2981.25           2587          80.00       344.82
 1032.39        2981.50           2591          76.00       327.38
 1032.42        2981.75           2594          84.00       362.25
 1032.45        2982.00           2598          83.00       357.89
 1032.48        2982.25           2601          86.00       370.97
 1032.51        2982.50           2605          80.00       344.82
 1032.54        2982.75           2609          83.00       357.89
 1032.58        2983.00           2612          77.00       331.74
 1032.61        2983.25           2616          68.00       292.51
 1032.64        2983.50           2619          73.00       314.30
 1032.67        2983.75           2623          83.00       357.89
 1032.70        2984.00           2626          78.00       336.10
HS scan finished at 17:12:55
end
