************************************************************
  HS Scan of 
************************************************************
Integration time is 0.2294 seconds per sample
dh010117Reading 51.44 .94 2.62pr1000
************************************************************
Dead Time -------------------------  3.4E-08 
Number of Cycles Used -------------  4 
Starting Wavelength (Angstroms) ---  2950 
Final Wavelength (Angstoms) -------  2984 
Wavelength Increment (Angstroms) --  .25 
Filter Wheel #1 Position ---------- (1) Ground quartz diffuser (ND=2.32)
Filter Wheel #2 Position ---------- (1) Neutral Density 0.494



************************************************************
HS scan start time = 17:09:53
Dark Count =  .3 


Time (GMT)  Wavelength (Ang)  Step Number  Raw Counts  Counts/Second

 1030.78        2950.00           2144         104.00       452.06
 1030.97        2950.25           2147         118.00       513.09
 1031.00        2950.50           2151          90.00       391.03
 1031.03        2950.75           2155         104.00       452.06
 1031.06        2951.00           2158         117.00       508.73
 1031.09        2951.25           2162          95.00       412.82
 1031.12        2951.50           2165         104.00       452.06
 1031.15        2951.75           2169          96.00       417.18
 1031.18        2952.00           2172          95.00       412.82
 1031.22        2952.25           2176         129.00       561.04
 1031.25        2952.50           2179          92.00       399.74
 1031.28        2952.75           2183         102.00       443.34
 1031.31        2953.00           2186          87.00       377.95
 1031.34        2953.25           2190          98.00       425.90
 1031.37        2953.50           2193          99.00       430.26
 1031.40        2953.75           2197         100.00       434.62
 1031.43        2954.00           2200         102.00       443.34
 1031.46        2954.25           2204          97.00       421.54
 1031.49        2954.50           2208          88.00       382.31
 1031.52        2954.75           2211         102.00       443.34
 1031.55        2955.00           2215          92.00       399.74
 1031.58        2955.25           2218         105.00       456.42
 1031.61        2955.50           2222         101.00       438.98
 1031.64        2955.75           2225         100.00       434.62
 1031.67        2956.00           2229         116.00       504.37
 1031.70        2956.25           2232         100.00       434.62
 1031.74        2956.50           2236         108.00       469.49
 1031.77        2956.75           2239         102.00       443.34
 1031.80        2957.00           2243         107.00       465.13
 1031.83        2957.25           2246         143.00       622.07
 1031.86        2957.50           2250         121.00       526.16
 1031.89        2957.75           2254         103.00       447.70
 1031.92        2958.00           2257         129.00       561.04
 1031.95        2958.25           2261         125.00       543.60
 1031.98        2958.50           2264         132.00       574.12
 1032.01        2958.75           2268         112.00       486.93
 1032.04        2959.00           2271         139.00       604.63
 1032.07        2959.25           2275         144.00       626.43
 1032.10        2959.50           2278         134.00       582.84
 1032.13        2959.75           2282         120.00       521.81
 1032.16        2960.00           2285         125.00       543.60
 1032.19        2960.25           2289         115.00       500.01
 1032.22        2960.50           2293         135.00       587.20
 1032.26        2960.75           2296         132.00       574.12
 1032.29        2961.00           2300         165.00       717.98
 1032.32        2961.25           2303         149.00       648.23
 1032.35        2961.50           2307         352.00      1533.21
 1032.38        2961.75           2310         828.00      3608.55
 1032.41        2962.00           2314        1874.00      8170.10
 1032.44        2962.25           2317        2702.00     11781.96
 1032.47        2962.50           2321        3780.00     16485.70
 1032.50        2962.75           2324        4760.00     20763.13
 1032.53        2963.00           2328        6151.00     26836.60
 1032.56        2963.25           2331        7064.00     30824.36
 1032.59        2963.50           2335        8357.00     36473.72
 1032.62        2963.75           2339        9673.00     42225.80
 1032.65        2964.00           2342       10783.00     47079.23
 1032.68        2964.25           2346       12191.00     53237.96
 1032.71        2964.50           2349       13250.00     57871.83
 1032.74        2964.75           2353       14386.00     62844.25
 1032.78        2965.00           2356       15326.00     66960.04
 1032.81        2965.25           2360       16450.00     71882.97
 1032.84        2965.50           2363       17297.00     75593.78
 1032.87        2965.75           2367       18521.00     80957.94
 1032.90        2966.00           2370       19594.00     85661.94
 1032.93        2966.25           2374       20767.00     90806.08
 1032.96        2966.50           2378       21495.00     93999.59
 1032.99        2966.75           2381       21911.00     95824.78
 1033.02        2967.00           2385       21947.00     95982.72
 1033.05        2967.25           2388       21775.00     95228.05
 1033.08        2967.50           2392       21855.00     95579.06
 1033.11        2967.75           2395       21977.00     96114.36
 1033.14        2968.00           2399       21646.00     94662.07
 1033.17        2968.25           2402       21081.00     92183.41
 1033.20        2968.50           2406       20029.00     87569.40
 1033.23        2968.75           2409       19135.00     83649.52
 1033.26        2969.00           2413       17993.00     78643.75
 1033.29        2969.25           2417       16835.00     73569.58
 1033.33        2969.50           2420       15889.00     69425.68
 1033.36        2969.75           2424       14485.00     63277.67
 1033.39        2970.00           2427       13507.00     58996.60
 1033.42        2970.25           2431       12355.00     53955.48
 1033.45        2970.50           2434       11290.00     49296.60
 1033.48        2970.75           2438       10163.00     44368.10
 1033.51        2971.00           2441        9064.00     39563.65
 1033.54        2971.25           2445        7841.00     34218.95
 1033.57        2971.50           2449        6416.00     27993.94
 1033.60        2971.75           2452        5397.00     23544.13
 1033.63        2972.00           2456        3991.00     17406.55
 1033.66        2972.25           2459        3108.00     13553.32
 1033.69        2972.50           2463        1907.00      8314.03
 1033.72        2972.75           2466        1214.00      5291.71
 1033.75        2973.00           2470         438.00      1908.14
 1033.78        2973.25           2473         187.00       813.88
 1033.81        2973.50           2477         136.00       591.56
 1033.85        2973.75           2481         116.00       504.37
 1033.88        2974.00           2484         124.00       539.24
 1033.91        2974.25           2488         157.00       683.10
 1033.94        2974.50           2491         121.00       526.16
 1033.97        2974.75           2495         115.00       500.01
 1034.00        2975.00           2498         110.00       478.21
 1034.03        2975.25           2502         120.00       521.81
 1034.06        2975.50           2505         131.00       569.76
 1034.09        2975.75           2509         108.00       469.49
 1034.12        2976.00           2512         110.00       478.21
 1034.15        2976.25           2516         109.00       473.85
 1034.18        2976.50           2520         114.00       495.65
 1034.21        2976.75           2523         100.00       434.62
 1034.24        2977.00           2527         105.00       456.42
 1034.27        2977.25           2530         120.00       521.81
 1034.30        2977.50           2534         104.00       452.06
 1034.34        2977.75           2537         126.00       547.96
 1034.37        2978.00           2541         130.00       565.40
 1034.40        2978.25           2544         128.00       556.68
 1034.43        2978.50           2548         101.00       438.98
 1034.46        2978.75           2552          93.00       404.10
 1034.49        2979.00           2555          94.00       408.46
 1034.52        2979.25           2559          77.00       334.35
 1034.55        2979.50           2562          84.00       364.87
 1034.58        2979.75           2566          82.00       356.15
 1034.61        2980.00           2569          83.00       360.51
 1034.64        2980.25           2573          73.00       316.92
 1034.67        2980.50           2577          82.00       356.15
 1034.70        2980.75           2580          81.00       351.79
 1034.73        2981.00           2584          71.00       308.20
 1034.76        2981.25           2587          71.00       308.20
 1034.79        2981.50           2591          64.00       277.68
 1034.82        2981.75           2594          73.00       316.92
 1034.85        2982.00           2598          75.00       325.64
 1034.89        2982.25           2601          63.00       273.32
 1034.92        2982.50           2605          70.00       303.84
 1034.95        2982.75           2609          60.00       260.25
 1034.98        2983.00           2612          63.00       273.32
 1035.01        2983.25           2616          67.00       290.76
 1035.04        2983.50           2619          68.00       295.12
 1035.07        2983.75           2623          61.00       264.61
 1035.10        2984.00           2626          53.00       229.73
HS scan finished at 17:15:19
end
