************************************************************
  HS Scan of 
************************************************************
Integration time is 0.2294 seconds per sample
dh060117Reading 51.44 .94 2.82pr1000
************************************************************
Dead Time -------------------------  3.4E-08 
Number of Cycles Used -------------  4 
Starting Wavelength (Angstroms) ---  2950 
Final Wavelength (Angstoms) -------  2984 
Wavelength Increment (Angstroms) --  .25 
Filter Wheel #1 Position ---------- (1) Ground quartz diffuser (ND=2.32)
Filter Wheel #2 Position ---------- (1) Neutral Density 0.494



************************************************************
HS scan start time = 17:07:15
Dark Count =  .7 


Time (GMT)  Wavelength (Ang)  Step Number  Raw Counts  Counts/Second

 1028.15        2950.00           2144         780.00      3397.52
 1028.35        2950.25           2147         799.00      3480.36
 1028.38        2950.50           2151         811.00      3532.68
 1028.41        2950.75           2155         811.00      3532.68
 1028.44        2951.00           2158         811.00      3532.68
 1028.47        2951.25           2162         798.00      3476.00
 1028.50        2951.50           2165         832.00      3624.25
 1028.53        2951.75           2169         835.00      3637.33
 1028.56        2952.00           2172         834.00      3632.97
 1028.59        2952.25           2176         832.00      3624.25
 1028.62        2952.50           2179         813.00      3541.40
 1028.65        2952.75           2183         828.00      3606.81
 1028.68        2953.00           2186         850.00      3702.73
 1028.71        2953.25           2190         839.00      3654.77
 1028.75        2953.50           2193         845.00      3680.93
 1028.78        2953.75           2197         840.00      3659.13
 1028.81        2954.00           2200         812.00      3537.04
 1028.84        2954.25           2204         851.00      3707.09
 1028.87        2954.50           2208         855.00      3724.53
 1028.90        2954.75           2211         857.00      3733.26
 1028.93        2955.00           2215         843.00      3672.21
 1028.96        2955.25           2218         914.00      3981.79
 1028.99        2955.50           2222         869.00      3785.58
 1029.02        2955.75           2225         887.00      3864.06
 1029.05        2956.00           2229         909.00      3959.99
 1029.08        2956.25           2232         873.00      3803.02
 1029.11        2956.50           2236         867.00      3776.86
 1029.14        2956.75           2239         889.00      3872.79
 1029.17        2957.00           2243         872.00      3798.66
 1029.20        2957.25           2246         893.00      3890.23
 1029.23        2957.50           2250         923.00      4021.04
 1029.27        2957.75           2254         923.00      4021.04
 1029.30        2958.00           2257         963.00      4195.46
 1029.33        2958.25           2261         959.00      4178.01
 1029.36        2958.50           2264         972.00      4234.70
 1029.39        2958.75           2268         969.00      4221.62
 1029.42        2959.00           2271         962.00      4191.09
 1029.45        2959.25           2275         979.00      4265.22
 1029.48        2959.50           2278         971.00      4230.34
 1029.51        2959.75           2282         998.00      4348.07
 1029.54        2960.00           2285        1009.00      4396.04
 1029.57        2960.25           2289        1055.00      4596.62
 1029.60        2960.50           2293        1052.00      4583.54
 1029.63        2960.75           2296        1055.00      4596.62
 1029.66        2961.00           2300        1162.00      5063.21
 1029.70        2961.25           2303        1479.00      6445.62
 1029.73        2961.50           2307        5212.00     22734.66
 1029.76        2961.75           2310       11416.00     49845.96
 1029.79        2962.00           2314       21679.00     94805.10
 1029.82        2962.25           2317       29859.00    130738.10
 1029.85        2962.50           2321       41055.00    180062.80
 1029.88        2962.75           2324       49691.00    218223.00
 1029.91        2963.00           2328       62215.00    273740.40
 1029.94        2963.25           2331       72512.00    319544.00
 1029.98        2963.50           2335       85622.00    378068.90
 1030.01        2963.75           2339       97282.00    430318.60
 1030.04        2964.00           2342      106051.00    469736.80
 1030.07        2964.25           2346      118862.00    527517.00
 1030.10        2964.50           2349      128653.00    571831.10
 1030.13        2964.75           2353      141295.00    629249.30
 1030.16        2965.00           2356      150153.00    669616.60
 1030.19        2965.25           2360      160841.00    718473.00
 1030.22        2965.50           2363      168436.00    753291.10
 1030.25        2965.75           2367      181265.00    812293.90
 1030.28        2966.00           2370      190113.00    853127.80
 1030.31        2966.25           2374      201248.00    904680.40
 1030.34        2966.50           2378      208328.00    937554.90
 1030.37        2966.75           2381      210017.00    945408.50
 1030.40        2967.00           2385      211369.00    951698.20
 1030.43        2967.25           2388      211339.00    951558.50
 1030.46        2967.50           2392      210978.00    949878.90
 1030.50        2967.75           2395      210747.00    948804.20
 1030.53        2968.00           2399      208229.00    937094.80
 1030.56        2968.25           2402      202385.00    909954.80
 1030.59        2968.50           2406      190558.00    855184.60
 1030.62        2968.75           2409      182584.00    818373.90
 1030.65        2969.00           2413      170673.00    763562.10
 1030.68        2969.25           2417      159826.00    713826.20
 1030.71        2969.50           2420      152165.00    678801.10
 1030.74        2969.75           2424      139179.00    619623.00
 1030.77        2970.00           2427      128692.00    572008.00
 1030.80        2970.25           2431      115854.00    513929.70
 1030.83        2970.50           2434      107051.00    474238.80
 1030.86        2970.75           2438       93928.00    415269.80
 1030.89        2971.00           2441       84674.00    373829.00
 1030.92        2971.25           2445       71753.00    316162.90
 1030.95        2971.50           2449       57639.00    253431.10
 1030.98        2971.75           2452       47863.00    210137.30
 1031.02        2972.00           2456       35359.00    154948.00
 1031.05        2972.25           2459       26706.00    116877.20
 1031.08        2972.50           2463       15656.00     68403.46
 1031.11        2972.75           2466        7990.00     34868.26
 1031.14        2973.00           2470        2750.00     11989.63
 1031.17        2973.25           2473        1495.00      6515.39
 1031.20        2973.50           2477        1195.00      5207.11
 1031.23        2973.75           2481        1097.00      4779.77
 1031.26        2974.00           2484        1059.00      4614.06
 1031.29        2974.25           2488        1052.00      4583.54
 1031.32        2974.50           2491        1047.00      4561.74
 1031.35        2974.75           2495        1024.00      4461.44
 1031.38        2975.00           2498        1011.00      4404.76
 1031.41        2975.25           2502         991.00      4317.55
 1031.44        2975.50           2505         988.00      4304.47
 1031.47        2975.75           2509         983.00      4282.66
 1031.50        2976.00           2512         935.00      4073.36
 1031.54        2976.25           2516         932.00      4060.28
 1031.57        2976.50           2520         917.00      3994.88
 1031.60        2976.75           2523         904.00      3938.19
 1031.63        2977.00           2527         940.00      4095.16
 1031.66        2977.25           2530         931.00      4055.92
 1031.69        2977.50           2534         883.00      3846.62
 1031.72        2977.75           2537         888.00      3868.42
 1031.75        2978.00           2541         902.00      3929.47
 1031.78        2978.25           2544         886.00      3859.70
 1031.81        2978.50           2548         865.00      3768.14
 1031.84        2978.75           2552         908.00      3955.63
 1031.87        2979.00           2555         849.00      3698.37
 1031.90        2979.25           2559         849.00      3698.37
 1031.93        2979.50           2562         867.00      3776.86
 1031.96        2979.75           2566         855.00      3724.53
 1031.99        2980.00           2569         846.00      3685.29
 1032.02        2980.25           2573         851.00      3707.09
 1032.05        2980.50           2577         854.00      3720.17
 1032.09        2980.75           2580         857.00      3733.26
 1032.12        2981.00           2584         829.00      3611.17
 1032.15        2981.25           2587         816.00      3554.48
 1032.18        2981.50           2591         804.00      3502.16
 1032.21        2981.75           2594         803.00      3497.80
 1032.24        2982.00           2598         815.00      3550.12
 1032.27        2982.25           2601         802.00      3493.44
 1032.30        2982.50           2605         795.00      3462.92
 1032.33        2982.75           2609         807.00      3515.24
 1032.36        2983.00           2612         800.00      3484.72
 1032.39        2983.25           2616         795.00      3462.92
 1032.42        2983.50           2619         766.00      3336.47
 1032.45        2983.75           2623         776.00      3380.07
 1032.48        2984.00           2626         769.00      3349.55
HS scan finished at 17:12:42
end
