************************************************************
  HS Scan of (1) Internal mercury lamp
************************************************************
Integration time is 0.2294 seconds per sample
dh030118Reading 51.44 .94 2.76pr1000
************************************************************
Dead Time -------------------------  3.4E-08 
Number of Cycles Used -------------  4 
Starting Wavelength (Angstroms) ---  2950 
Final Wavelength (Angstoms) -------  2984 
Wavelength Increment (Angstroms) --  .25 
Filter Wheel #1 Position ---------- (1) Ground quartz diffuser (ND=2.32)
Filter Wheel #2 Position ---------- (1) Neutral Density 0.494



************************************************************
HS scan start time = 05:16:37
Dark Count =  .7 


Time (GMT)  Wavelength (Ang)  Step Number  Raw Counts  Counts/Second

  317.52        2950.00           2144          75.00       323.89
  317.71        2950.25           2147          91.00       393.64
  317.74        2950.50           2151          92.00       398.00
  317.78        2950.75           2155          80.00       345.69
  317.81        2951.00           2158          74.00       319.53
  317.84        2951.25           2162          86.00       371.84
  317.87        2951.50           2165          91.00       393.64
  317.90        2951.75           2169          84.00       363.13
  317.93        2952.00           2172          85.00       367.49
  317.96        2952.25           2176          79.00       341.33
  317.99        2952.50           2179          79.00       341.33
  318.02        2952.75           2183          79.00       341.33
  318.05        2953.00           2186          85.00       367.49
  318.08        2953.25           2190          84.00       363.13
  318.12        2953.50           2193          92.00       398.00
  318.15        2953.75           2197          90.00       389.28
  318.18        2954.00           2200          91.00       393.64
  318.21        2954.25           2204          95.00       411.08
  318.24        2954.50           2208          87.00       376.20
  318.27        2954.75           2211          87.00       376.20
  318.30        2955.00           2215          83.00       358.77
  318.33        2955.25           2218          92.00       398.00
  318.37        2955.50           2222          93.00       402.36
  318.40        2955.75           2225          88.00       380.56
  318.43        2956.00           2229          81.00       350.05
  318.46        2956.25           2232          87.00       376.20
  318.49        2956.50           2236          92.00       398.00
  318.52        2956.75           2239         112.00       485.19
  318.55        2957.00           2243          78.00       336.97
  318.58        2957.25           2246         102.00       441.59
  318.61        2957.50           2250          93.00       402.36
  318.64        2957.75           2254          98.00       424.16
  318.67        2958.00           2257         100.00       432.87
  318.70        2958.25           2261         115.00       498.26
  318.73        2958.50           2264         114.00       493.91
  318.76        2958.75           2268          96.00       415.44
  318.79        2959.00           2271          96.00       415.44
  318.82        2959.25           2275         134.00       581.09
  318.85        2959.50           2278         103.00       445.95
  318.89        2959.75           2282         107.00       463.39
  318.92        2960.00           2285         100.00       432.87
  318.95        2960.25           2289         124.00       537.50
  318.98        2960.50           2293         144.00       624.69
  319.01        2960.75           2296         118.00       511.34
  319.04        2961.00           2300         168.00       729.31
  319.07        2961.25           2303         400.00      1740.73
  319.10        2961.50           2307        1148.00      5002.16
  319.13        2961.75           2310        2023.00      8818.25
  319.16        2962.00           2314        3308.00     14424.25
  319.19        2962.25           2317        4330.00     18884.40
  319.22        2962.50           2321        5658.00     24682.00
  319.25        2962.75           2324        6607.00     28826.41
  319.28        2963.00           2328        8172.00     35663.53
  319.31        2963.25           2331        9262.00     40427.37
  319.34        2963.50           2335       10696.00     46697.01
  319.37        2963.75           2339       12215.00     53341.20
  319.40        2964.00           2342       13232.00     57791.30
  319.44        2964.25           2346       14843.00     64843.33
  319.47        2964.50           2349       15917.00     69546.56
  319.50        2964.75           2353       17252.00     75394.86
  319.53        2965.00           2356       18133.00     79255.57
  319.56        2965.25           2360       19328.00     84493.91
  319.59        2965.50           2363       20368.00     89054.33
  319.62        2965.75           2367       21859.00     95594.86
  319.65        2966.00           2370       22734.00     99434.56
  319.68        2966.25           2374       24089.00    105382.60
  319.71        2966.50           2378       24365.00    106594.40
  319.74        2966.75           2381       24497.00    107174.10
  319.77        2967.00           2385       24428.00    106871.10
  319.80        2967.25           2388       24540.00    107362.90
  319.83        2967.50           2392       24387.00    106691.00
  319.86        2967.75           2395       24454.00    106985.20
  319.89        2968.00           2399       23517.00    102871.40
  319.93        2968.25           2402       22588.00     98793.81
  319.96        2968.50           2406       20995.00     91804.42
  319.99        2968.75           2409       19944.00     87194.91
  320.02        2969.00           2413       18832.00     82319.44
  320.05        2969.25           2417       17556.00     76726.93
  320.08        2969.50           2420       16659.00     72796.78
  320.11        2969.75           2424       15000.00     65530.76
  320.14        2970.00           2427       13638.00     59568.22
  320.17        2970.25           2431       11909.00     52002.50
  320.20        2970.50           2434       10915.00     47654.75
  320.23        2970.75           2438        9474.00     41354.10
  320.26        2971.00           2441        8394.00     36633.66
  320.29        2971.25           2445        6990.00     30499.35
  320.32        2971.50           2449        5492.00     23957.17
  320.35        2971.75           2452        4450.00     19408.18
  320.38        2972.00           2456        3077.00     13416.32
  320.41        2972.25           2459        2131.00      9289.33
  320.44        2972.50           2463        1079.00      4701.28
  320.48        2972.75           2466         493.00      2146.19
  320.51        2973.00           2470         190.00       825.22
  320.54        2973.25           2473         132.00       572.37
  320.57        2973.50           2477         138.00       598.53
  320.60        2973.75           2481         113.00       489.55
  320.63        2974.00           2484         143.00       620.33
  320.66        2974.25           2488          98.00       424.16
  320.69        2974.50           2491         104.00       450.31
  320.72        2974.75           2495         120.00       520.06
  320.75        2975.00           2498         132.00       572.37
  320.78        2975.25           2502         113.00       489.55
  320.81        2975.50           2505         115.00       498.26
  320.84        2975.75           2509          97.00       419.80
  320.87        2976.00           2512          94.00       406.72
  320.90        2976.25           2516          99.00       428.52
  320.93        2976.50           2520          92.00       398.00
  320.96        2976.75           2523         100.00       432.87
  321.00        2977.00           2527          99.00       428.52
  321.03        2977.25           2530          97.00       419.80
  321.06        2977.50           2534          86.00       371.84
  321.09        2977.75           2537          97.00       419.80
  321.12        2978.00           2541          86.00       371.84
  321.15        2978.25           2544          84.00       363.13
  321.18        2978.50           2548          87.00       376.20
  321.21        2978.75           2552          92.00       398.00
  321.24        2979.00           2555          86.00       371.84
  321.27        2979.25           2559          92.00       398.00
  321.30        2979.50           2562          89.00       384.92
  321.33        2979.75           2566          85.00       367.49
  321.36        2980.00           2569          79.00       341.33
  321.39        2980.25           2573          81.00       350.05
  321.42        2980.50           2577          77.00       332.61
  321.45        2980.75           2580          88.00       380.56
  321.48        2981.00           2584          90.00       389.28
  321.52        2981.25           2587          77.00       332.61
  321.55        2981.50           2591          74.00       319.53
  321.58        2981.75           2594          84.00       363.13
  321.61        2982.00           2598          86.00       371.84
  321.64        2982.25           2601          88.00       380.56
  321.67        2982.50           2605          79.00       341.33
  321.70        2982.75           2609          81.00       350.05
  321.73        2983.00           2612          85.00       367.49
  321.76        2983.25           2616          71.00       306.45
  321.79        2983.50           2619          81.00       350.05
  321.82        2983.75           2623          80.00       345.69
  321.85        2984.00           2626          77.00       332.61
HS scan finished at 05:22:05
end
************************************************************
  HS Scan of (1) Internal mercury lamp
************************************************************
Integration time is 0.2294 seconds per sample
dh030118Reading 51.44 .94 2.94pr1000
************************************************************
Dead Time -------------------------  3.4E-08 
Number of Cycles Used -------------  4 
Starting Wavelength (Angstroms) ---  2950 
Final Wavelength (Angstoms) -------  2984 
Wavelength Increment (Angstroms) --  .25 
Filter Wheel #1 Position ---------- (1) Ground quartz diffuser (ND=2.32)
Filter Wheel #2 Position ---------- (1) Neutral Density 0.494



************************************************************
HS scan start time = 17:07:24
Dark Count =  .8 


Time (GMT)  Wavelength (Ang)  Step Number  Raw Counts  Counts/Second

 1028.29        2950.00           2144          68.00       292.94
 1028.48        2950.25           2147          79.00       340.89
 1028.52        2950.50           2151          84.00       362.69
 1028.55        2950.75           2155          66.00       284.22
 1028.58        2951.00           2158          79.00       340.89
 1028.61        2951.25           2162          81.00       349.61
 1028.64        2951.50           2165          71.00       306.02
 1028.67        2951.75           2169          79.00       340.89
 1028.70        2952.00           2172          78.00       336.53
 1028.73        2952.25           2176          79.00       340.89
 1028.76        2952.50           2179          84.00       362.69
 1028.79        2952.75           2183          84.00       362.69
 1028.82        2953.00           2186          80.00       345.25
 1028.85        2953.25           2190          76.00       327.82
 1028.88        2953.50           2193          80.00       345.25
 1028.91        2953.75           2197          84.00       362.69
 1028.94        2954.00           2200          75.00       323.46
 1028.97        2954.25           2204          83.00       358.33
 1029.00        2954.50           2208          76.00       327.82
 1029.04        2954.75           2211          85.00       367.05
 1029.07        2955.00           2215          81.00       349.61
 1029.10        2955.25           2218          79.00       340.89
 1029.13        2955.50           2222          78.00       336.53
 1029.16        2955.75           2225          84.00       362.69
 1029.19        2956.00           2229          86.00       371.41
 1029.22        2956.25           2232          85.00       367.05
 1029.25        2956.50           2236          86.00       371.41
 1029.28        2956.75           2239          91.00       393.20
 1029.31        2957.00           2243          93.00       401.92
 1029.34        2957.25           2246          80.00       345.25
 1029.37        2957.50           2250          88.00       380.13
 1029.40        2957.75           2254          75.00       323.46
 1029.43        2958.00           2257          91.00       393.20
 1029.46        2958.25           2261          86.00       371.41
 1029.49        2958.50           2264         113.00       489.11
 1029.52        2958.75           2268          99.00       428.08
 1029.55        2959.00           2271          92.00       397.56
 1029.59        2959.25           2275          97.00       419.36
 1029.62        2959.50           2278          91.00       393.20
 1029.65        2959.75           2282          96.00       415.00
 1029.68        2960.00           2285          97.00       419.36
 1029.71        2960.25           2289          92.00       397.56
 1029.74        2960.50           2293         103.00       445.52
 1029.77        2960.75           2296         105.00       454.24
 1029.80        2961.00           2300         132.00       571.94
 1029.83        2961.25           2303         230.00       999.16
 1029.86        2961.50           2307         862.00      3754.62
 1029.89        2961.75           2310        1755.00      7648.89
 1029.92        2962.00           2314        2961.00     12909.76
 1029.95        2962.25           2317        3897.00     16994.12
 1029.98        2962.50           2321        5100.00     22245.24
 1030.01        2962.75           2324        5985.00     26109.48
 1030.04        2963.00           2328        7307.00     31883.72
 1030.07        2963.25           2331        8334.00     36371.02
 1030.11        2963.50           2335        9897.00     43202.91
 1030.14        2963.75           2339       11170.00     48769.56
 1030.17        2964.00           2342       12112.00     52890.15
 1030.20        2964.25           2346       13505.00     58985.66
 1030.23        2964.50           2349       14715.00     64282.46
 1030.26        2964.75           2353       16030.00     70041.06
 1030.29        2965.00           2356       17410.00     76086.73
 1030.32        2965.25           2360       18740.00     81915.71
 1030.35        2965.50           2363       19735.00     86278.01
 1030.38        2965.75           2367       20857.00     91198.65
 1030.41        2966.00           2370       21926.00     95888.38
 1030.44        2966.25           2374       22737.00     99447.28
 1030.47        2966.50           2378       23276.00    101813.00
 1030.50        2966.75           2381       23257.00    101729.60
 1030.53        2967.00           2385       23288.00    101865.70
 1030.56        2967.25           2388       23096.00    101022.90
 1030.59        2967.50           2392       23163.00    101317.00
 1030.63        2967.75           2395       22820.00     99811.56
 1030.66        2968.00           2399       22267.00     97384.69
 1030.69        2968.25           2402       21386.00     93519.21
 1030.72        2968.50           2406       20030.00     87571.59
 1030.75        2968.75           2409       18979.00     82963.43
 1030.78        2969.00           2413       17648.00     77129.63
 1030.81        2969.25           2417       16576.00     72432.74
 1030.84        2969.50           2420       15615.00     68223.46
 1030.87        2969.75           2424       14281.00     62382.39
 1030.90        2970.00           2427       13254.00     57887.14
 1030.93        2970.25           2431       11606.00     50676.61
 1030.96        2970.50           2434       10643.00     46464.81
 1030.99        2970.75           2438        9310.00     40636.76
 1031.02        2971.00           2441        8313.00     36279.25
 1031.05        2971.25           2445        7089.00     30931.38
 1031.08        2971.50           2449        5834.00     25450.09
 1031.11        2971.75           2452        4959.00     21629.68
 1031.15        2972.00           2456        3712.00     16186.76
 1031.18        2972.25           2459        2716.00     11840.86
 1031.21        2972.50           2463        1382.00      6022.16
 1031.24        2972.75           2466         688.00      2995.95
 1031.27        2973.00           2470         218.00       946.85
 1031.30        2973.25           2473         141.00       611.17
 1031.33        2973.50           2477         165.00       715.80
 1031.36        2973.75           2481         111.00       480.39
 1031.39        2974.00           2484         126.00       545.78
 1031.42        2974.25           2488         102.00       441.16
 1031.45        2974.50           2491         118.00       510.91
 1031.48        2974.75           2495          99.00       428.08
 1031.51        2975.00           2498          92.00       397.56
 1031.54        2975.25           2502          97.00       419.36
 1031.57        2975.50           2505          97.00       419.36
 1031.60        2975.75           2509          95.00       410.64
 1031.63        2976.00           2512          90.00       388.85
 1031.67        2976.25           2516          97.00       419.36
 1031.70        2976.50           2520          96.00       415.00
 1031.73        2976.75           2523          85.00       367.05
 1031.76        2977.00           2527          87.00       375.77
 1031.79        2977.25           2530          79.00       340.89
 1031.82        2977.50           2534          82.00       353.97
 1031.85        2977.75           2537          90.00       388.85
 1031.88        2978.00           2541          86.00       371.41
 1031.91        2978.25           2544          83.00       358.33
 1031.94        2978.50           2548          86.00       371.41
 1031.97        2978.75           2552          88.00       380.13
 1032.00        2979.00           2555          88.00       380.13
 1032.03        2979.25           2559          80.00       345.25
 1032.06        2979.50           2562          78.00       336.53
 1032.09        2979.75           2566          75.00       323.46
 1032.12        2980.00           2569          72.00       310.38
 1032.15        2980.25           2573          76.00       327.82
 1032.19        2980.50           2577          80.00       345.25
 1032.22        2980.75           2580          81.00       349.61
 1032.25        2981.00           2584          70.00       301.66
 1032.28        2981.25           2587          75.00       323.46
 1032.31        2981.50           2591          79.00       340.89
 1032.34        2981.75           2594          75.00       323.46
 1032.37        2982.00           2598          78.00       336.53
 1032.40        2982.25           2601          79.00       340.89
 1032.43        2982.50           2605          77.00       332.17
 1032.46        2982.75           2609          68.00       292.94
 1032.49        2983.00           2612          71.00       306.02
 1032.52        2983.25           2616          80.00       345.25
 1032.55        2983.50           2619          67.00       288.58
 1032.58        2983.75           2623          69.00       297.30
 1032.61        2984.00           2626          73.00       314.74
HS scan finished at 17:12:50
end
