************************************************************
  HS Scan of (1) Internal mercury lamp
************************************************************
Integration time is 0.2294 seconds per sample
dh090118Reading 51.44 .94 2.6pr1000
************************************************************
Dead Time -------------------------  3.4E-08 
Number of Cycles Used -------------  4 
Starting Wavelength (Angstroms) ---  2950 
Final Wavelength (Angstoms) -------  2984 
Wavelength Increment (Angstroms) --  .25 
Filter Wheel #1 Position ---------- (1) Ground quartz diffuser (ND=2.32)
Filter Wheel #2 Position ---------- (1) Neutral Density 0.494



************************************************************
HS scan start time = 05:15:52
Dark Count =  .4 


Time (GMT)  Wavelength (Ang)  Step Number  Raw Counts  Counts/Second

  316.76        2950.00           2144          74.00       320.84
  316.95        2950.25           2147          81.00       351.36
  316.98        2950.50           2151          78.00       338.28
  317.01        2950.75           2155          74.00       320.84
  317.05        2951.00           2158          84.00       364.43
  317.08        2951.25           2162          86.00       373.15
  317.11        2951.50           2165          89.00       386.23
  317.14        2951.75           2169          81.00       351.36
  317.17        2952.00           2172          82.00       355.71
  317.20        2952.25           2176          77.00       333.92
  317.23        2952.50           2179          80.00       347.00
  317.26        2952.75           2183          84.00       364.43
  317.29        2953.00           2186          90.00       390.59
  317.32        2953.25           2190          76.00       329.56
  317.35        2953.50           2193          81.00       351.36
  317.38        2953.75           2197          74.00       320.84
  317.41        2954.00           2200          85.00       368.79
  317.44        2954.25           2204          81.00       351.36
  317.47        2954.50           2208          93.00       403.67
  317.50        2954.75           2211          75.00       325.20
  317.53        2955.00           2215          76.00       329.56
  317.56        2955.25           2218          72.00       312.12
  317.60        2955.50           2222          78.00       338.28
  317.63        2955.75           2225          84.00       364.43
  317.66        2956.00           2229          82.00       355.71
  317.69        2956.25           2232          79.00       342.64
  317.72        2956.50           2236          83.00       360.07
  317.75        2956.75           2239          82.00       355.71
  317.78        2957.00           2243          81.00       351.36
  317.81        2957.25           2246          87.00       377.51
  317.84        2957.50           2250          94.00       408.03
  317.87        2957.75           2254          82.00       355.71
  317.90        2958.00           2257          93.00       403.67
  317.93        2958.25           2261          90.00       390.59
  317.96        2958.50           2264          87.00       377.51
  317.99        2958.75           2268          87.00       377.51
  318.02        2959.00           2271          94.00       408.03
  318.05        2959.25           2275          91.00       394.95
  318.08        2959.50           2278          91.00       394.95
  318.12        2959.75           2282         120.00       521.37
  318.15        2960.00           2285          86.00       373.15
  318.18        2960.25           2289          99.00       429.82
  318.21        2960.50           2293         115.00       499.57
  318.24        2960.75           2296         111.00       482.14
  318.27        2961.00           2300         133.00       578.04
  318.30        2961.25           2303         195.00       848.32
  318.33        2961.50           2307         657.00      2862.53
  318.36        2961.75           2310        1322.00      5762.25
  318.39        2962.00           2314        2366.00     10315.74
  318.42        2962.25           2317        3277.00     14290.29
  318.45        2962.50           2321        4354.00     18990.46
  318.48        2962.75           2324        5099.00     22242.62
  318.51        2963.00           2328        6021.00     26268.44
  318.54        2963.25           2331        6862.00     29941.54
  318.57        2963.50           2335        7955.00     34716.63
  318.60        2963.75           2339        9196.00     40140.18
  318.64        2964.00           2342       11974.00     52288.17
  318.67        2964.25           2346       13415.00     58593.51
  318.70        2964.50           2349       14502.00     63351.65
  318.73        2964.75           2353       15782.00     68956.60
  318.76        2965.00           2356       16746.00     73179.24
  318.79        2965.25           2360       18270.00     79857.33
  318.82        2965.50           2363       19289.00     84324.24
  318.85        2965.75           2367       20570.00     89941.59
  318.88        2966.00           2370       21619.00     94543.18
  318.91        2966.25           2374       22592.00     98812.68
  318.94        2966.50           2378       23392.00    102324.00
  318.97        2966.75           2381       23868.00    104413.60
  319.00        2967.00           2385       23914.00    104615.60
  319.03        2967.25           2388       23846.00    104317.00
  319.06        2967.50           2392       24115.00    105498.10
  319.09        2967.75           2395       23958.00    104808.70
  319.12        2968.00           2399       23070.00    100910.60
  319.16        2968.25           2402       22035.00     96368.42
  319.19        2968.50           2406       20739.00     90682.83
  319.22        2968.75           2409       19902.00     87012.06
  319.25        2969.00           2413       18609.00     81343.23
  319.28        2969.25           2417       16989.00     74243.85
  319.31        2969.50           2420       15797.00     69022.30
  319.34        2969.75           2424       14415.00     62970.77
  319.37        2970.00           2427       13348.00     58300.28
  319.40        2970.25           2431       11927.00     52082.56
  319.43        2970.50           2434       10713.00     46772.67
  319.46        2970.75           2438        9268.00     40454.91
  319.49        2971.00           2441        8284.00     36154.27
  319.52        2971.25           2445        6935.00     30260.41
  319.55        2971.50           2449        5762.00     25137.43
  319.58        2971.75           2452        4716.00     20570.62
  319.61        2972.00           2456        3449.00     15040.82
  319.64        2972.25           2459        2541.00     11079.15
  319.68        2972.50           2463        1231.00      5365.41
  319.71        2972.75           2466         535.00      2330.61
  319.74        2973.00           2470         187.00       813.45
  319.77        2973.25           2473         138.00       599.84
  319.80        2973.50           2477         140.00       608.56
  319.83        2973.75           2481         119.00       517.01
  319.86        2974.00           2484         130.00       564.96
  319.89        2974.25           2488         110.00       477.78
  319.92        2974.50           2491         138.00       599.84
  319.95        2974.75           2495         102.00       442.90
  319.98        2975.00           2498         102.00       442.90
  320.01        2975.25           2502          94.00       408.03
  320.04        2975.50           2505         116.00       503.93
  320.07        2975.75           2509         114.00       495.21
  320.10        2976.00           2512         121.00       525.73
  320.13        2976.25           2516          95.00       412.39
  320.16        2976.50           2520          89.00       386.23
  320.20        2976.75           2523          95.00       412.39
  320.23        2977.00           2527          92.00       399.31
  320.26        2977.25           2530         114.00       495.21
  320.29        2977.50           2534          89.00       386.23
  320.32        2977.75           2537          90.00       390.59
  320.35        2978.00           2541         109.00       473.42
  320.38        2978.25           2544          84.00       364.43
  320.41        2978.50           2548          92.00       399.31
  320.44        2978.75           2552          86.00       373.15
  320.47        2979.00           2555          85.00       368.79
  320.50        2979.25           2559          97.00       421.10
  320.53        2979.50           2562          91.00       394.95
  320.56        2979.75           2566          80.00       347.00
  320.59        2980.00           2569          81.00       351.36
  320.62        2980.25           2573          88.00       381.87
  320.65        2980.50           2577          89.00       386.23
  320.68        2980.75           2580          82.00       355.71
  320.71        2981.00           2584          83.00       360.07
  320.75        2981.25           2587          78.00       338.28
  320.78        2981.50           2591          79.00       342.64
  320.81        2981.75           2594          77.00       333.92
  320.84        2982.00           2598          80.00       347.00
  320.87        2982.25           2601          76.00       329.56
  320.90        2982.50           2605          75.00       325.20
  320.93        2982.75           2609          80.00       347.00
  320.96        2983.00           2612          81.00       351.36
  320.99        2983.25           2616          80.00       347.00
  321.02        2983.50           2619          82.00       355.71
  321.05        2983.75           2623          87.00       377.51
  321.08        2984.00           2626          76.00       329.56
HS scan finished at 05:21:18
end
************************************************************
  HS Scan of (1) Internal mercury lamp
************************************************************
Integration time is 0.2294 seconds per sample
dh090118Reading 51.44 .94 2.86pr1000
************************************************************
Dead Time -------------------------  3.4E-08 
Number of Cycles Used -------------  4 
Starting Wavelength (Angstroms) ---  2950 
Final Wavelength (Angstoms) -------  2984 
Wavelength Increment (Angstroms) --  .25 
Filter Wheel #1 Position ---------- (1) Ground quartz diffuser (ND=2.32)
Filter Wheel #2 Position ---------- (1) Neutral Density 0.494



************************************************************
HS scan start time = 17:07:26
Dark Count =  .6 


Time (GMT)  Wavelength (Ang)  Step Number  Raw Counts  Counts/Second

 1028.33        2950.00           2144          78.00       337.41
 1028.53        2950.25           2147          75.00       324.33
 1028.56        2950.50           2151          75.00       324.33
 1028.59        2950.75           2155          75.00       324.33
 1028.62        2951.00           2158          77.00       333.05
 1028.65        2951.25           2162          76.00       328.69
 1028.68        2951.50           2165          80.00       346.12
 1028.71        2951.75           2169          79.00       341.77
 1028.74        2952.00           2172          71.00       306.89
 1028.77        2952.25           2176          75.00       324.33
 1028.80        2952.50           2179          80.00       346.12
 1028.83        2952.75           2183          81.00       350.48
 1028.86        2953.00           2186          77.00       333.05
 1028.90        2953.25           2190          76.00       328.69
 1028.93        2953.50           2193          83.00       359.20
 1028.96        2953.75           2197          87.00       376.64
 1028.99        2954.00           2200          87.00       376.64
 1029.02        2954.25           2204          80.00       346.12
 1029.05        2954.50           2208          98.00       424.59
 1029.08        2954.75           2211          74.00       319.97
 1029.11        2955.00           2215          76.00       328.69
 1029.14        2955.25           2218          88.00       381.00
 1029.17        2955.50           2222          72.00       311.25
 1029.20        2955.75           2225          80.00       346.12
 1029.23        2956.00           2229          86.00       372.28
 1029.26        2956.25           2232          79.00       341.77
 1029.29        2956.50           2236          80.00       346.12
 1029.32        2956.75           2239          83.00       359.20
 1029.35        2957.00           2243          90.00       389.72
 1029.38        2957.25           2246          91.00       394.08
 1029.41        2957.50           2250          90.00       389.72
 1029.45        2957.75           2254          92.00       398.44
 1029.48        2958.00           2257          78.00       337.41
 1029.51        2958.25           2261          90.00       389.72
 1029.54        2958.50           2264          89.00       385.36
 1029.57        2958.75           2268          91.00       394.08
 1029.60        2959.00           2271          88.00       381.00
 1029.63        2959.25           2275          97.00       420.23
 1029.66        2959.50           2278          97.00       420.23
 1029.69        2959.75           2282         102.00       442.03
 1029.72        2960.00           2285          96.00       415.87
 1029.75        2960.25           2289         103.00       446.39
 1029.78        2960.50           2293         109.00       472.54
 1029.81        2960.75           2296         138.00       598.97
 1029.84        2961.00           2300         139.00       603.33
 1029.87        2961.25           2303         315.00      1370.60
 1029.90        2961.50           2307         928.00      4043.28
 1029.93        2961.75           2310        1614.00      7034.81
 1029.97        2962.00           2314        2836.00     12365.27
 1030.00        2962.25           2317        3938.00     17173.93
 1030.03        2962.50           2321        5150.00     22464.41
 1030.06        2962.75           2324        6106.00     26638.76
 1030.09        2963.00           2328        7429.00     32417.58
 1030.12        2963.25           2331        8284.00     36153.40
 1030.15        2963.50           2335        9834.00     42928.35
 1030.18        2963.75           2339       11186.00     48840.41
 1030.21        2964.00           2342       11937.00     52125.43
 1030.24        2964.25           2346       13136.00     57371.62
 1030.27        2964.50           2349       14120.00     61678.47
 1030.30        2964.75           2353       15518.00     67799.53
 1030.33        2965.00           2356       16324.00     71329.72
 1030.36        2965.25           2360       17381.00     75960.54
 1030.39        2965.50           2363       18162.00     79383.11
 1030.42        2965.75           2367       19267.00     84226.91
 1030.45        2966.00           2370       20464.00     89475.80
 1030.49        2966.25           2374       22525.00     98517.77
 1030.52        2966.50           2378       22517.00     98482.66
 1030.55        2966.75           2381       22839.00     99895.83
 1030.58        2967.00           2385       22691.00     99246.28
 1030.61        2967.25           2388       22639.00     99018.07
 1030.64        2967.50           2392       22567.00     98702.08
 1030.67        2967.75           2395       22412.00     98021.88
 1030.70        2968.00           2399       21446.00     93783.31
 1030.73        2968.25           2402       20315.00     88822.33
 1030.76        2968.50           2406       18776.00     82074.40
 1030.79        2968.75           2409       18161.00     79378.72
 1030.82        2969.00           2413       17126.00     74843.21
 1030.85        2969.25           2417       15736.00     68754.27
 1030.88        2969.50           2420       14815.00     64721.17
 1030.91        2969.75           2424       13523.00     59065.32
 1030.94        2970.00           2427       12539.00     54759.23
 1030.97        2970.25           2431       11009.00     48066.28
 1031.01        2970.50           2434       10190.00     44484.85
 1031.04        2970.75           2438        8906.00     38871.74
 1031.07        2971.00           2441        8122.00     35445.48
 1031.10        2971.25           2445        6715.00     29298.57
 1031.13        2971.50           2449        5382.00     23477.32
 1031.16        2971.75           2452        4385.00     19124.90
 1031.19        2972.00           2456        3283.00     14315.60
 1031.22        2972.25           2459        2439.00     10633.31
 1031.25        2972.50           2463        1261.00      5495.36
 1031.28        2972.75           2466         548.00      2386.42
 1031.31        2973.00           2470         193.00       838.73
 1031.34        2973.25           2473         126.00       546.65
 1031.37        2973.50           2477         112.00       485.62
 1031.40        2973.75           2481         101.00       437.67
 1031.43        2974.00           2484         103.00       446.39
 1031.46        2974.25           2488         119.00       516.14
 1031.49        2974.50           2491         102.00       442.03
 1031.53        2974.75           2495         110.00       476.90
 1031.56        2975.00           2498          98.00       424.59
 1031.59        2975.25           2502          99.00       428.95
 1031.62        2975.50           2505         102.00       442.03
 1031.65        2975.75           2509          98.00       424.59
 1031.68        2976.00           2512         100.00       433.31
 1031.71        2976.25           2516          90.00       389.72
 1031.74        2976.50           2520          90.00       389.72
 1031.77        2976.75           2523          81.00       350.48
 1031.80        2977.00           2527          86.00       372.28
 1031.83        2977.25           2530          88.00       381.00
 1031.86        2977.50           2534          83.00       359.20
 1031.89        2977.75           2537          78.00       337.41
 1031.92        2978.00           2541          81.00       350.48
 1031.95        2978.25           2544          80.00       346.12
 1031.98        2978.50           2548          80.00       346.12
 1032.01        2978.75           2552          80.00       346.12
 1032.05        2979.00           2555          81.00       350.48
 1032.08        2979.25           2559          71.00       306.89
 1032.11        2979.50           2562          83.00       359.20
 1032.14        2979.75           2566          84.00       363.56
 1032.17        2980.00           2569          79.00       341.77
 1032.20        2980.25           2573          84.00       363.56
 1032.23        2980.50           2577          71.00       306.89
 1032.26        2980.75           2580          79.00       341.77
 1032.29        2981.00           2584          75.00       324.33
 1032.32        2981.25           2587          76.00       328.69
 1032.35        2981.50           2591          76.00       328.69
 1032.38        2981.75           2594          84.00       363.56
 1032.41        2982.00           2598          76.00       328.69
 1032.44        2982.25           2601          78.00       337.41
 1032.47        2982.50           2605          76.00       328.69
 1032.50        2982.75           2609          79.00       341.77
 1032.53        2983.00           2612          82.00       354.84
 1032.57        2983.25           2616          74.00       319.97
 1032.60        2983.50           2619          66.00       285.09
 1032.63        2983.75           2623         116.00       503.06
 1032.66        2984.00           2626          95.00       411.51
HS scan finished at 17:12:53
end
