************************************************************
  HS Scan of (1) Internal mercury lamp
************************************************************
Integration time is 0.2294 seconds per sample
dh020119Reading 51.44 .94 2.58pr1000
************************************************************
Dead Time -------------------------  3.4E-08 
Number of Cycles Used -------------  4 
Starting Wavelength (Angstroms) ---  2950 
Final Wavelength (Angstoms) -------  2984 
Wavelength Increment (Angstroms) --  .25 
Filter Wheel #1 Position ---------- (1) Ground quartz diffuser (ND=2.32)
Filter Wheel #2 Position ---------- (1) Neutral Density 0.494



************************************************************
HS scan start time = 05:19:33
Dark Count =  .3 


Time (GMT)  Wavelength (Ang)  Step Number  Raw Counts  Counts/Second

  320.45        2950.00           2144        1513.00      6595.64
  320.65        2950.25           2147        1490.00      6495.33
  320.68        2950.50           2151        1493.00      6508.41
  320.71        2950.75           2155        1510.00      6582.55
  320.74        2951.00           2158        1502.00      6547.67
  320.77        2951.25           2162        1503.00      6552.03
  320.80        2951.50           2165        1510.00      6582.55
  320.83        2951.75           2169        1494.00      6512.78
  320.86        2952.00           2172        1522.00      6634.89
  320.89        2952.25           2176        1512.00      6591.28
  320.92        2952.50           2179        1513.00      6595.64
  320.95        2952.75           2183        1553.00      6770.08
  320.98        2953.00           2186        1547.00      6743.92
  321.01        2953.25           2190        1555.00      6778.81
  321.04        2953.50           2193        1540.00      6713.39
  321.08        2953.75           2197        1549.00      6752.64
  321.11        2954.00           2200        1527.00      6656.69
  321.14        2954.25           2204        1549.00      6752.64
  321.17        2954.50           2208        1593.00      6944.53
  321.20        2954.75           2211        1621.00      7066.65
  321.23        2955.00           2215        1605.00      6996.87
  321.26        2955.25           2218        1535.00      6691.58
  321.29        2955.50           2222        1595.00      6953.26
  321.32        2955.75           2225        1622.00      7071.01
  321.35        2956.00           2229        1632.00      7114.62
  321.38        2956.25           2232        1612.00      7027.40
  321.41        2956.50           2236        1627.00      7092.82
  321.44        2956.75           2239        1658.00      7228.02
  321.47        2957.00           2243        1671.00      7284.72
  321.50        2957.25           2246        1654.00      7210.57
  321.53        2957.50           2250        1669.00      7275.99
  321.57        2957.75           2254        1687.00      7354.50
  321.60        2958.00           2257        1722.00      7507.15
  321.63        2958.25           2261        1732.00      7550.76
  321.66        2958.50           2264        1733.00      7555.12
  321.69        2958.75           2268        1718.00      7489.70
  321.72        2959.00           2271        1751.00      7633.63
  321.75        2959.25           2275        1776.00      7742.67
  321.78        2959.50           2278        1780.00      7760.11
  321.81        2959.75           2282        1826.00      7960.74
  321.84        2960.00           2285        1826.00      7960.74
  321.87        2960.25           2289        1883.00      8209.35
  321.90        2960.50           2293        1881.00      8200.63
  321.93        2960.75           2296        1899.00      8279.14
  321.96        2961.00           2300        2055.00      8959.57
  321.99        2961.25           2303        2623.00     11437.32
  322.02        2961.50           2307        8018.00     34992.35
  322.05        2961.75           2310       17299.00     75602.55
  322.09        2962.00           2314       33807.00    148114.10
  322.12        2962.25           2317       47175.00    207097.00
  322.15        2962.50           2321       64344.00    283200.80
  322.18        2962.75           2324       78231.00    345047.40
  322.21        2963.00           2328       97983.00    433467.60
  322.24        2963.25           2331      114644.00    508469.50
  322.27        2963.50           2335      136835.00    608968.60
  322.30        2963.75           2339      157395.00    702704.80
  322.33        2964.00           2342      172850.00    773566.60
  322.36        2964.25           2346      193657.00    869517.80
  322.39        2964.50           2349      208228.00    937092.00
  322.42        2964.75           2353      228797.00   1033023.00
  322.45        2965.00           2356      242931.00   1099313.00
  322.48        2965.25           2360      261577.00   1187234.00
  322.51        2965.50           2363      276003.00   1255627.00
  322.54        2965.75           2367      294184.00   1342287.00
  322.57        2966.00           2370      308523.00   1411005.00
  322.61        2966.25           2374      324161.00   1486326.00
  322.64        2966.50           2378      337831.00   1552494.00
  322.67        2966.75           2381      343119.00   1578172.00
  322.70        2967.00           2385      344841.00   1586544.00
  322.73        2967.25           2388      344584.00   1585294.00
  322.76        2967.50           2392      344784.00   1586267.00
  322.79        2967.75           2395      344565.00   1585202.00
  322.82        2968.00           2399      338797.00   1557181.00
  322.85        2968.25           2402      331325.00   1520964.00
  322.88        2968.50           2406      315833.00   1446165.00
  322.91        2968.75           2409      301581.00   1377695.00
  322.94        2969.00           2413      282968.00   1288764.00
  322.97        2969.25           2417      261683.00   1187736.00
  323.00        2969.50           2420      245409.00   1110967.00
  323.03        2969.75           2424      224720.00   1013958.00
  323.06        2970.00           2427      209047.00    940899.60
  323.09        2970.25           2431      189522.00    850398.60
  323.13        2970.50           2434      174301.00    780237.40
  323.16        2970.75           2438      151236.00    674561.50
  323.19        2971.00           2441      135322.00    602094.50
  323.22        2971.25           2445      115169.00    510839.10
  323.25        2971.50           2449       95737.00    423386.30
  323.28        2971.75           2452       82090.00    362280.30
  323.31        2972.00           2456       60597.00    266557.90
  323.34        2972.25           2459       44904.00    197060.00
  323.37        2972.50           2463       25718.00    112538.30
  323.40        2972.75           2466       13385.00     58462.65
  323.43        2973.00           2470        4532.00     19767.86
  323.46        2973.25           2473        2511.00     10948.71
  323.49        2973.50           2477        2024.00      8824.36
  323.52        2973.75           2481        1924.00      8388.18
  323.55        2974.00           2484        1863.00      8122.12
  323.58        2974.25           2488        1822.00      7943.30
  323.61        2974.50           2491        1858.00      8100.31
  323.65        2974.75           2495        1755.00      7651.07
  323.68        2975.00           2498        1793.00      7816.81
  323.71        2975.25           2502        1747.00      7616.18
  323.74        2975.50           2505        1715.00      7476.62
  323.77        2975.75           2509        1676.00      7306.52
  323.80        2976.00           2512        1677.00      7310.88
  323.83        2976.25           2516        1703.00      7424.28
  323.86        2976.50           2520        1673.00      7293.44
  323.89        2976.75           2523        1624.00      7079.73
  323.92        2977.00           2527        1610.00      7018.68
  323.95        2977.25           2530        1614.00      7036.12
  323.98        2977.50           2534        1579.00      6883.48
  324.01        2977.75           2537        1529.00      6665.42
  324.04        2978.00           2541        1544.00      6730.83
  324.07        2978.25           2544        1565.00      6822.42
  324.10        2978.50           2548        1535.00      6691.58
  324.13        2978.75           2552        1515.00      6604.36
  324.16        2979.00           2555        1491.00      6499.69
  324.20        2979.25           2559        1504.00      6556.39
  324.23        2979.50           2562        1511.00      6586.92
  324.26        2979.75           2566        1545.00      6735.20
  324.29        2980.00           2569        1491.00      6499.69
  324.32        2980.25           2573        1455.00      6342.69
  324.35        2980.50           2577        1465.00      6386.30
  324.38        2980.75           2580        1448.00      6312.17
  324.41        2981.00           2584        1475.00      6429.91
  324.44        2981.25           2587        1446.00      6303.44
  324.47        2981.50           2591        1454.00      6338.33
  324.50        2981.75           2594        1457.00      6351.42
  324.53        2982.00           2598        1454.00      6338.33
  324.56        2982.25           2601        1455.00      6342.69
  324.59        2982.50           2605        1421.00      6194.42
  324.62        2982.75           2609        1451.00      6325.25
  324.65        2983.00           2612        1411.00      6150.81
  324.68        2983.25           2616        1394.00      6076.67
  324.72        2983.50           2619        1385.00      6037.42
  324.75        2983.75           2623        1431.00      6238.03
  324.78        2984.00           2626        1401.00      6107.20
HS scan finished at 05:25:00
end
************************************************************
  HS Scan of (1) Internal mercury lamp
************************************************************
Integration time is 0.2294 seconds per sample
dh020119Reading 51.44 .94 2.98pr1000
************************************************************
Dead Time -------------------------  3.4E-08 
Number of Cycles Used -------------  4 
Starting Wavelength (Angstroms) ---  2950 
Final Wavelength (Angstoms) -------  2984 
Wavelength Increment (Angstroms) --  .25 
Filter Wheel #1 Position ---------- (1) Ground quartz diffuser (ND=2.32)
Filter Wheel #2 Position ---------- (1) Neutral Density 0.494



************************************************************
HS scan start time = 17:07:28
Dark Count =  .7 


Time (GMT)  Wavelength (Ang)  Step Number  Raw Counts  Counts/Second

 1028.36        2950.00           2144        1385.00      6035.68
 1028.55        2950.25           2147        1419.00      6183.95
 1028.58        2950.50           2151        1405.00      6122.90
 1028.61        2950.75           2155        1410.00      6144.70
 1028.65        2951.00           2158        1386.00      6040.04
 1028.68        2951.25           2162        1396.00      6083.65
 1028.71        2951.50           2165        1424.00      6205.76
 1028.74        2951.75           2169        1414.00      6162.15
 1028.77        2952.00           2172        1447.00      6306.06
 1028.80        2952.25           2176        1435.00      6253.73
 1028.83        2952.50           2179        1433.00      6245.01
 1028.86        2952.75           2183        1445.00      6297.34
 1028.89        2953.00           2186        1424.00      6205.76
 1028.92        2953.25           2190        1462.00      6371.48
 1028.95        2953.50           2193        1463.00      6375.84
 1028.98        2953.75           2197        1419.00      6183.95
 1029.01        2954.00           2200        1474.00      6423.81
 1029.04        2954.25           2204        1499.00      6532.84
 1029.07        2954.50           2208        1483.00      6463.06
 1029.10        2954.75           2211        1446.00      6301.70
 1029.13        2955.00           2215        1516.00      6606.98
 1029.16        2955.25           2218        1470.00      6406.36
 1029.20        2955.50           2222        1490.00      6493.59
 1029.23        2955.75           2225        1500.00      6537.20
 1029.26        2956.00           2229        1469.00      6402.00
 1029.29        2956.25           2232        1539.00      6707.28
 1029.32        2956.50           2236        1510.00      6580.81
 1029.35        2956.75           2239        1513.00      6593.89
 1029.38        2957.00           2243        1546.00      6737.81
 1029.41        2957.25           2246        1560.00      6798.87
 1029.44        2957.50           2250        1603.00      6986.40
 1029.47        2957.75           2254        1602.00      6982.04
 1029.50        2958.00           2257        1588.00      6920.98
 1029.53        2958.25           2261        1576.00      6868.65
 1029.56        2958.50           2264        1650.00      7191.38
 1029.59        2958.75           2268        1646.00      7173.94
 1029.62        2959.00           2271        1626.00      7086.71
 1029.65        2959.25           2275        1673.00      7291.70
 1029.68        2959.50           2278        1677.00      7309.14
 1029.72        2959.75           2282        1714.00      7470.51
 1029.75        2960.00           2285        1720.00      7496.68
 1029.78        2960.25           2289        1776.00      7740.92
 1029.81        2960.50           2293        1793.00      7815.07
 1029.84        2960.75           2296        1826.00      7959.00
 1029.87        2961.00           2300        1900.00      8281.76
 1029.90        2961.25           2303        2236.00      9747.35
 1029.93        2961.50           2307        5377.00     23455.05
 1029.96        2961.75           2310       12985.00     56710.37
 1029.99        2962.00           2314       27870.00    121992.80
 1030.02        2962.25           2317       40333.00    176877.00
 1030.05        2962.50           2321       59872.00    263338.20
 1030.08        2962.75           2324       76655.00    338013.60
 1030.11        2963.00           2328       99734.00    441330.00
 1030.14        2963.25           2331      117671.00    522135.60
 1030.17        2963.50           2335      139573.00    621414.80
 1030.20        2963.75           2339      159919.00    714251.90
 1030.24        2964.00           2342      174805.00    782553.30
 1030.27        2964.25           2346      197761.00    888516.60
 1030.30        2964.50           2349      214402.00    965817.90
 1030.33        2964.75           2353      235958.00   1066569.00
 1030.36        2965.00           2356      251324.00   1138820.00
 1030.39        2965.25           2360      269923.00   1226760.00
 1030.42        2965.50           2363      283507.00   1291330.00
 1030.45        2965.75           2367      301971.00   1379563.00
 1030.48        2966.00           2370      317488.00   1454135.00
 1030.51        2966.25           2374      337050.00   1548703.00
 1030.54        2966.50           2378      352854.00   1625563.00
 1030.57        2966.75           2381      357348.00   1647495.00
 1030.60        2967.00           2385      359940.00   1660160.00
 1030.63        2967.25           2388      360756.00   1664149.00
 1030.66        2967.50           2392      360522.00   1663005.00
 1030.69        2967.75           2395      359998.00   1660443.00
 1030.72        2968.00           2399      357813.00   1649766.00
 1030.76        2968.25           2402      350906.00   1616067.00
 1030.79        2968.50           2406      334314.00   1535439.00
 1030.82        2968.75           2409      320035.00   1466413.00
 1030.85        2969.00           2413      301470.00   1377162.00
 1030.88        2969.25           2417      284187.00   1294570.00
 1030.91        2969.50           2420      269299.00   1223801.00
 1030.94        2969.75           2424      247628.00   1121409.00
 1030.97        2970.00           2427      231098.00   1043792.00
 1031.00        2970.25           2431      209672.00    943803.90
 1031.03        2970.50           2434      193873.00    870515.30
 1031.06        2970.75           2438      173245.00    775380.40
 1031.09        2971.00           2441      156267.00    697544.40
 1031.12        2971.25           2445      133566.00    594118.40
 1031.15        2971.50           2449      109267.00    484220.20
 1031.18        2971.75           2452       91194.00    403014.30
 1031.21        2972.00           2456       69471.00    306002.00
 1031.24        2972.25           2459       53299.00    234195.30
 1031.28        2972.50           2463       33882.00    148442.60
 1031.31        2972.75           2466       19742.00     86309.15
 1031.34        2973.00           2470        7174.00     31303.13
 1031.37        2973.25           2473        3295.00     14367.52
 1031.40        2973.50           2477        2081.00      9071.24
 1031.43        2973.75           2481        1861.00      8111.65
 1031.46        2974.00           2484        1832.00      7985.17
 1031.49        2974.25           2488        1783.00      7771.45
 1031.52        2974.50           2491        1758.00      7662.42
 1031.55        2974.75           2495        1746.00      7610.08
 1031.58        2975.00           2498        1733.00      7553.38
 1031.61        2975.25           2502        1700.00      7409.45
 1031.64        2975.50           2505        1644.00      7165.22
 1031.67        2975.75           2509        1635.00      7125.96
 1031.70        2976.00           2512        1585.00      6907.90
 1031.73        2976.25           2516        1642.00      7156.49
 1031.76        2976.50           2520        1609.00      7012.57
 1031.80        2976.75           2523        1563.00      6811.95
 1031.83        2977.00           2527        1577.00      6873.01
 1031.86        2977.25           2530        1549.00      6750.90
 1031.89        2977.50           2534        1552.00      6763.98
 1031.92        2977.75           2537        1537.00      6698.56
 1031.95        2978.00           2541        1510.00      6580.81
 1031.98        2978.25           2544        1507.00      6567.73
 1032.01        2978.50           2548        1455.00      6340.95
 1032.04        2978.75           2552        1438.00      6266.81
 1032.07        2979.00           2555        1448.00      6310.42
 1032.10        2979.25           2559        1425.00      6210.12
 1032.13        2979.50           2562        1404.00      6118.54
 1032.16        2979.75           2566        1378.00      6005.15
 1032.19        2980.00           2569        1429.00      6227.56
 1032.22        2980.25           2573        1407.00      6131.62
 1032.25        2980.50           2577        1397.00      6088.01
 1032.28        2980.75           2580        1401.00      6105.45
 1032.32        2981.00           2584        1399.00      6096.73
 1032.35        2981.25           2587        1383.00      6026.95
 1032.38        2981.50           2591        1371.00      5974.62
 1032.41        2981.75           2594        1369.00      5965.90
 1032.44        2982.00           2598        1377.00      6000.79
 1032.47        2982.25           2601        1389.00      6053.12
 1032.50        2982.50           2605        1365.00      5948.46
 1032.53        2982.75           2609        1364.00      5944.10
 1032.56        2983.00           2612        1339.00      5835.07
 1032.59        2983.25           2616        1310.00      5708.61
 1032.62        2983.50           2619        1341.00      5843.79
 1032.65        2983.75           2623        1334.00      5813.27
 1032.68        2984.00           2626        1336.00      5821.99
HS scan finished at 17:12:54
end
