************************************************************
  HS Scan of (1) Internal mercury lamp
************************************************************
Integration time is 0.2294 seconds per sample
dh080119Reading 51.44 .94 2.7pr1000
************************************************************
Dead Time -------------------------  3.4E-08 
Number of Cycles Used -------------  4 
Starting Wavelength (Angstroms) ---  2950 
Final Wavelength (Angstoms) -------  2984 
Wavelength Increment (Angstroms) --  .25 
Filter Wheel #1 Position ---------- (1) Ground quartz diffuser (ND=2.32)
Filter Wheel #2 Position ---------- (1) Neutral Density 0.494



************************************************************
HS scan start time = 05:16:08
Dark Count =  .4 


Time (GMT)  Wavelength (Ang)  Step Number  Raw Counts  Counts/Second

  317.03        2950.00           2144        1488.00      6486.17
  317.22        2950.25           2147        1483.00      6464.37
  317.26        2950.50           2151        1490.00      6494.90
  317.29        2950.75           2155        1460.00      6364.06
  317.32        2951.00           2158        1526.00      6651.90
  317.35        2951.25           2162        1501.00      6542.87
  317.38        2951.50           2165        1497.00      6525.42
  317.41        2951.75           2169        1494.00      6512.34
  317.44        2952.00           2172        1501.00      6542.87
  317.47        2952.25           2176        1538.00      6704.23
  317.50        2952.50           2179        1501.00      6542.87
  317.53        2952.75           2183        1537.00      6699.87
  317.56        2953.00           2186        1538.00      6704.23
  317.59        2953.25           2190        1524.00      6643.17
  317.62        2953.50           2193        1565.00      6821.98
  317.65        2953.75           2197        1536.00      6695.51
  317.68        2954.00           2200        1543.00      6726.04
  317.71        2954.25           2204        1545.00      6734.76
  317.74        2954.50           2208        1563.00      6813.26
  317.78        2954.75           2211        1568.00      6835.07
  317.81        2955.00           2215        1556.00      6782.73
  317.84        2955.25           2218        1546.00      6739.12
  317.87        2955.50           2222        1590.00      6931.01
  317.90        2955.75           2225        1568.00      6835.07
  317.93        2956.00           2229        1596.00      6957.18
  317.96        2956.25           2232        1592.00      6939.74
  317.99        2956.50           2236        1618.00      7053.13
  318.02        2956.75           2239        1598.00      6965.90
  318.05        2957.00           2243        1626.00      7088.02
  318.08        2957.25           2246        1630.00      7105.47
  318.11        2957.50           2250        1654.00      7210.14
  318.14        2957.75           2254        1692.00      7375.87
  318.17        2958.00           2257        1677.00      7310.45
  318.20        2958.25           2261        1711.00      7458.74
  318.23        2958.50           2264        1702.00      7419.48
  318.26        2958.75           2268        1729.00      7537.24
  318.30        2959.00           2271        1737.00      7572.13
  318.33        2959.25           2275        1780.00      7759.68
  318.36        2959.50           2278        1761.00      7676.81
  318.39        2959.75           2282        1821.00      7938.50
  318.42        2960.00           2285        1784.00      7777.12
  318.45        2960.25           2289        1867.00      8139.13
  318.48        2960.50           2293        1917.00      8357.21
  318.51        2960.75           2296        1899.00      8278.70
  318.54        2961.00           2300        1979.00      8627.64
  318.57        2961.25           2303        2483.00     10826.13
  318.60        2961.50           2307        7071.00     30854.50
  318.63        2961.75           2310       16760.00     73240.57
  318.66        2962.00           2314       34296.00    150267.10
  318.69        2962.25           2317       48406.00    212540.00
  318.72        2962.50           2321       67913.00    299070.10
  318.75        2962.75           2324       83283.00    367611.50
  318.78        2963.00           2328      106116.00    470030.80
  318.81        2963.25           2331      122581.00    544334.70
  318.85        2963.50           2335      143451.00    639065.60
  318.88        2963.75           2339      162760.00    727263.90
  318.91        2964.00           2342      180296.00    807830.30
  318.94        2964.25           2346      201826.00    907362.90
  318.97        2964.50           2349      217341.00    979514.80
  319.00        2964.75           2353      239856.00   1084865.00
  319.03        2965.00           2356      256164.00   1161655.00
  319.06        2965.25           2360      276123.00   1256196.00
  319.09        2965.50           2363      291507.00   1329494.00
  319.12        2965.75           2367      309635.00   1416348.00
  319.15        2966.00           2370      323487.00   1483071.00
  319.18        2966.25           2374      339842.00   1562253.00
  319.21        2966.50           2378      351693.00   1619904.00
  319.24        2966.75           2381      354382.00   1633018.00
  319.27        2967.00           2385      356766.00   1644654.00
  319.30        2967.25           2388      356856.00   1645094.00
  319.33        2967.50           2392      357081.00   1646192.00
  319.37        2967.75           2395      355355.00   1637766.00
  319.40        2968.00           2399      348417.00   1603944.00
  319.43        2968.25           2402      337784.00   1552265.00
  319.46        2968.50           2406      322082.00   1476289.00
  319.49        2968.75           2409      308596.00   1411355.00
  319.52        2969.00           2413      288381.00   1314570.00
  319.55        2969.25           2417      269412.00   1224339.00
  319.58        2969.50           2420      254924.00   1155801.00
  319.61        2969.75           2424      236310.00   1068222.00
  319.64        2970.00           2427      219796.00    990964.60
  319.67        2970.25           2431      195736.00    879139.50
  319.70        2970.50           2434      179155.00    802574.50
  319.73        2970.75           2438      157574.00    703523.00
  319.76        2971.00           2441      142122.00    633014.70
  319.79        2971.25           2445      122495.00    543945.60
  319.82        2971.50           2449      101387.00    448759.40
  319.85        2971.75           2452       85641.00    378155.30
  319.89        2972.00           2456       65049.00    286333.80
  319.92        2972.25           2459       49679.00    218171.20
  319.95        2972.50           2463       31329.00    137206.10
  319.98        2972.75           2466       17918.00     78314.62
  320.01        2973.00           2470        5710.00     24910.37
  320.04        2973.25           2473        2881.00     12562.47
  320.07        2973.50           2477        2084.00      9085.63
  320.10        2973.75           2481        1964.00      8562.21
  320.13        2974.00           2484        1932.00      8422.64
  320.16        2974.25           2488        1833.00      7990.84
  320.19        2974.50           2491        1841.00      8025.73
  320.22        2974.75           2495        1832.00      7986.48
  320.25        2975.00           2498        1804.00      7864.35
  320.28        2975.25           2502        1753.00      7641.92
  320.31        2975.50           2505        1725.00      7519.80
  320.34        2975.75           2509        1722.00      7506.71
  320.37        2976.00           2512        1701.00      7415.12
  320.41        2976.25           2516        1687.00      7354.06
  320.44        2976.50           2520        1650.00      7192.69
  320.47        2976.75           2523        1619.00      7057.49
  320.50        2977.00           2527        1631.00      7109.83
  320.53        2977.25           2530        1573.00      6856.87
  320.56        2977.50           2534        1587.00      6917.93
  320.59        2977.75           2537        1608.00      7009.52
  320.62        2978.00           2541        1556.00      6782.73
  320.65        2978.25           2544        1554.00      6774.01
  320.68        2978.50           2548        1517.00      6612.65
  320.71        2978.75           2552        1545.00      6734.76
  320.74        2979.00           2555        1523.00      6638.81
  320.77        2979.25           2559        1507.00      6569.04
  320.80        2979.50           2562        1542.00      6721.68
  320.83        2979.75           2566        1485.00      6473.09
  320.86        2980.00           2569        1485.00      6473.09
  320.89        2980.25           2573        1509.00      6577.76
  320.93        2980.50           2577        1472.00      6416.40
  320.96        2980.75           2580        1441.00      6281.20
  320.99        2981.00           2584        1409.00      6141.65
  321.02        2981.25           2587        1442.00      6285.56
  321.05        2981.50           2591        1433.00      6246.31
  321.08        2981.75           2594        1396.00      6084.96
  321.11        2982.00           2598        1401.00      6106.76
  321.14        2982.25           2601        1414.00      6163.45
  321.17        2982.50           2605        1406.00      6128.57
  321.20        2982.75           2609        1432.00      6241.95
  321.23        2983.00           2612        1406.00      6128.57
  321.26        2983.25           2616        1391.00      6063.15
  321.29        2983.50           2619        1405.00      6124.20
  321.32        2983.75           2623        1395.00      6080.59
  321.35        2984.00           2626        1360.00      5927.96
HS scan finished at 05:21:35
end
************************************************************
  HS Scan of (1) Internal mercury lamp
************************************************************
Integration time is 0.2294 seconds per sample
dh080119Reading 51.44 .94 2.9pr1000
************************************************************
Dead Time -------------------------  3.4E-08 
Number of Cycles Used -------------  4 
Starting Wavelength (Angstroms) ---  2950 
Final Wavelength (Angstoms) -------  2984 
Wavelength Increment (Angstroms) --  .25 
Filter Wheel #1 Position ---------- (1) Ground quartz diffuser (ND=2.32)
Filter Wheel #2 Position ---------- (1) Neutral Density 0.494



************************************************************
HS scan start time = 17:07:29
Dark Count =  .6 


Time (GMT)  Wavelength (Ang)  Step Number  Raw Counts  Counts/Second

 1028.38        2950.00           2144         961.00      4187.17
 1028.57        2950.25           2147         975.00      4248.22
 1028.61        2950.50           2151         988.00      4304.90
 1028.64        2950.75           2155         976.00      4252.58
 1028.67        2951.00           2158        1012.00      4409.55
 1028.70        2951.25           2162        1002.00      4365.95
 1028.73        2951.50           2165        1008.00      4392.11
 1028.76        2951.75           2169        1016.00      4427.00
 1028.79        2952.00           2172        1045.00      4553.45
 1028.82        2952.25           2176        1002.00      4365.95
 1028.85        2952.50           2179         990.00      4313.62
 1028.88        2952.75           2183        1024.00      4461.88
 1028.91        2953.00           2186        1022.00      4453.16
 1028.94        2953.25           2190        1020.00      4444.44
 1028.97        2953.50           2193         973.00      4239.50
 1029.00        2953.75           2197        1037.00      4518.57
 1029.03        2954.00           2200        1033.00      4501.13
 1029.06        2954.25           2204        1050.00      4575.25
 1029.09        2954.50           2208        1045.00      4553.45
 1029.12        2954.75           2211        1073.00      4675.55
 1029.16        2955.00           2215        1084.00      4723.51
 1029.19        2955.25           2218        1046.00      4557.81
 1029.22        2955.50           2222        1058.00      4610.14
 1029.25        2955.75           2225        1063.00      4631.94
 1029.28        2956.00           2229        1091.00      4754.04
 1029.31        2956.25           2232        1056.00      4601.42
 1029.34        2956.50           2236        1083.00      4719.15
 1029.37        2956.75           2239        1100.00      4793.28
 1029.40        2957.00           2243        1136.00      4950.27
 1029.43        2957.25           2246        1124.00      4897.94
 1029.46        2957.50           2250        1123.00      4893.58
 1029.49        2957.75           2254        1141.00      4972.07
 1029.52        2958.00           2257        1107.00      4823.81
 1029.55        2958.25           2261        1129.00      4919.74
 1029.58        2958.50           2264        1181.00      5146.50
 1029.61        2958.75           2268        1159.00      5050.56
 1029.64        2959.00           2271        1150.00      5011.32
 1029.68        2959.25           2275        1172.00      5107.25
 1029.71        2959.50           2278        1183.00      5155.22
 1029.74        2959.75           2282        1183.00      5155.22
 1029.77        2960.00           2285        1248.00      5438.67
 1029.80        2960.25           2289        1250.00      5447.39
 1029.83        2960.50           2293        1291.00      5626.19
 1029.86        2960.75           2296        1260.00      5491.00
 1029.89        2961.00           2300        1325.00      5774.46
 1029.92        2961.25           2303        1445.00      6297.77
 1029.95        2961.50           2307        2722.00     11867.91
 1029.98        2961.75           2310        7641.00     33343.79
 1030.01        2962.00           2314       19632.00     85827.26
 1030.04        2962.25           2317       29427.00    128838.70
 1030.07        2962.50           2321       42353.00    185792.40
 1030.10        2962.75           2324       52717.00    231618.10
 1030.13        2963.00           2328       68386.00    301173.80
 1030.16        2963.25           2331       80615.00    355689.70
 1030.20        2963.50           2335       96656.00    427509.10
 1030.23        2963.75           2339      112009.00    496580.50
 1030.26        2964.00           2342      123379.00    547944.70
 1030.29        2964.25           2346      139736.00    622156.80
 1030.32        2964.50           2349      150514.00    671264.60
 1030.35        2964.75           2353      165302.00    738914.10
 1030.39        2965.00           2356      177121.00    793209.30
 1030.42        2965.25           2360      192808.00    865588.80
 1030.45        2965.50           2363      204412.00    919363.10
 1030.48        2965.75           2367      219399.00    989111.60
 1030.51        2966.00           2370      229044.00   1034178.00
 1030.54        2966.25           2374      241084.00   1090632.00
 1030.57        2966.50           2378      253074.00   1147072.00
 1030.60        2966.75           2381      256742.00   1164383.00
 1030.63        2967.00           2385      258912.00   1174634.00
 1030.66        2967.25           2388      259050.00   1175286.00
 1030.69        2967.50           2392      259118.00   1175607.00
 1030.72        2967.75           2395      258810.00   1174152.00
 1030.75        2968.00           2399      255971.00   1160743.00
 1030.78        2968.25           2402      250012.00   1132638.00
 1030.81        2968.50           2406      237940.00   1075869.00
 1030.84        2968.75           2409      227867.00   1028671.00
 1030.87        2969.00           2413      214271.00    965208.40
 1030.91        2969.25           2417      199939.00    898611.10
 1030.94        2969.50           2420      189541.00    850485.00
 1030.97        2969.75           2424      176142.00    788704.10
 1031.00        2970.00           2427      164992.00    737492.80
 1031.03        2970.25           2431      148220.00    660798.50
 1031.06        2970.50           2434      135930.00    604855.00
 1031.09        2970.75           2438      120825.00    536391.10
 1031.12        2971.00           2441      109339.00    484545.00
 1031.15        2971.25           2445       94611.00    418333.50
 1031.18        2971.50           2449       80091.00    353349.60
 1031.21        2971.75           2452       68713.00    302628.80
 1031.24        2972.00           2456       53396.00    234625.40
 1031.27        2972.25           2459       41747.00    183117.40
 1031.30        2972.50           2463       27471.00    120239.50
 1031.33        2972.75           2466       17130.00     74860.75
 1031.36        2973.00           2470        6139.00     26782.88
 1031.39        2973.25           2473        2603.00     11348.76
 1031.43        2973.50           2477        1499.00      6533.27
 1031.46        2973.75           2481        1367.00      5957.61
 1031.49        2974.00           2484        1323.00      5765.73
 1031.52        2974.25           2488        1305.00      5687.24
 1031.55        2974.50           2491        1270.00      5534.61
 1031.58        2974.75           2495        1199.00      5224.99
 1031.61        2975.00           2498        1218.00      5307.85
 1031.64        2975.25           2502        1190.00      5185.74
 1031.67        2975.50           2505        1180.00      5142.14
 1031.70        2975.75           2509        1167.00      5085.45
 1031.73        2976.00           2512        1202.00      5238.07
 1031.76        2976.25           2516        1160.00      5054.92
 1031.79        2976.50           2520        1142.00      4976.43
 1031.82        2976.75           2523        1106.00      4819.45
 1031.85        2977.00           2527        1097.00      4780.20
 1031.88        2977.25           2530        1134.00      4941.55
 1031.91        2977.50           2534        1109.00      4832.53
 1031.94        2977.75           2537        1071.00      4666.83
 1031.98        2978.00           2541        1066.00      4645.02
 1032.01        2978.25           2544        1062.00      4627.58
 1032.04        2978.50           2548        1064.00      4636.30
 1032.07        2978.75           2552        1056.00      4601.42
 1032.10        2979.00           2555        1039.00      4527.29
 1032.14        2979.25           2559        1052.00      4583.98
 1032.17        2979.50           2562        1033.00      4501.13
 1032.20        2979.75           2566        1003.00      4370.31
 1032.23        2980.00           2569        1005.00      4379.03
 1032.26        2980.25           2573         960.00      4182.81
 1032.29        2980.50           2577         954.00      4156.65
 1032.32        2980.75           2580         991.00      4317.98
 1032.35        2981.00           2584         985.00      4291.82
 1032.38        2981.25           2587         964.00      4200.25
 1032.41        2981.50           2591        1008.00      4392.11
 1032.44        2981.75           2594         977.00      4256.94
 1032.47        2982.00           2598         958.00      4174.09
 1032.50        2982.25           2601         959.00      4178.45
 1032.53        2982.50           2605         977.00      4256.94
 1032.56        2982.75           2609         948.00      4130.48
 1032.59        2983.00           2612         935.00      4073.80
 1032.62        2983.25           2616         962.00      4191.53
 1032.66        2983.50           2619         921.00      4012.75
 1032.69        2983.75           2623         964.00      4200.25
 1032.72        2984.00           2626         934.00      4069.44
HS scan finished at 17:12:56
end
