************************************************************
  HS Scan of (1) Internal mercury lamp
************************************************************
Integration time is 0.2294 seconds per sample
dh030119Reading 51.44 .94 2.78pr1000
************************************************************
Dead Time -------------------------  3.4E-08 
Number of Cycles Used -------------  4 
Starting Wavelength (Angstroms) ---  2950 
Final Wavelength (Angstoms) -------  2984 
Wavelength Increment (Angstroms) --  .25 
Filter Wheel #1 Position ---------- (1) Ground quartz diffuser (ND=2.32)
Filter Wheel #2 Position ---------- (1) Neutral Density 0.494



************************************************************
HS scan start time = 05:16:41
Dark Count =  .5 


Time (GMT)  Wavelength (Ang)  Step Number  Raw Counts  Counts/Second

  317.58        2950.00           2144        1562.00      6808.46
  317.77        2950.25           2147        1534.00      6686.35
  317.80        2950.50           2151        1550.00      6756.13
  317.83        2950.75           2155        1556.00      6782.30
  317.86        2951.00           2158        1576.00      6869.52
  317.89        2951.25           2162        1555.00      6777.94
  317.93        2951.50           2165        1542.00      6721.24
  317.96        2951.75           2169        1540.00      6712.52
  317.99        2952.00           2172        1565.00      6821.55
  318.02        2952.25           2176        1598.00      6965.47
  318.05        2952.50           2179        1610.00      7017.80
  318.08        2952.75           2183        1591.00      6934.94
  318.11        2953.00           2186        1586.00      6913.13
  318.14        2953.25           2190        1613.00      7030.89
  318.17        2953.50           2193        1623.00      7074.50
  318.20        2953.75           2197        1643.00      7161.73
  318.23        2954.00           2200        1603.00      6987.27
  318.26        2954.25           2204        1636.00      7131.20
  318.29        2954.50           2208        1674.00      7296.93
  318.32        2954.75           2211        1656.00      7218.42
  318.35        2955.00           2215        1678.00      7314.37
  318.38        2955.25           2218        1660.00      7235.87
  318.41        2955.50           2222        1651.00      7196.62
  318.45        2955.75           2225        1679.00      7318.74
  318.48        2956.00           2229        1690.00      7366.71
  318.51        2956.25           2232        1764.00      7689.46
  318.54        2956.50           2236        1731.00      7545.53
  318.57        2956.75           2239        1744.00      7602.23
  318.60        2957.00           2243        1785.00      7781.05
  318.63        2957.25           2246        1795.00      7824.66
  318.66        2957.50           2250        1783.00      7772.32
  318.69        2957.75           2254        1769.00      7711.26
  318.72        2958.00           2257        1814.00      7907.53
  318.75        2958.25           2261        1835.00      7999.12
  318.78        2958.50           2264        1856.00      8090.72
  318.81        2958.75           2268        1902.00      8291.35
  318.84        2959.00           2271        1889.00      8234.65
  318.87        2959.25           2275        1967.00      8574.86
  318.90        2959.50           2278        1955.00      8522.52
  318.93        2959.75           2282        1958.00      8535.61
  318.96        2960.00           2285        2041.00      8897.64
  319.00        2960.25           2289        2030.00      8849.65
  319.03        2960.50           2293        2128.00      9277.12
  319.06        2960.75           2296        2138.00      9320.74
  319.09        2961.00           2300        2340.00     10201.88
  319.12        2961.25           2303        2955.00     12884.90
  319.15        2961.50           2307        8483.00     37023.47
  319.18        2961.75           2310       19784.00     86494.19
  319.21        2962.00           2314       41075.00    180152.00
  319.24        2962.25           2317       58473.00    257131.40
  319.27        2962.50           2321       85203.00    376195.70
  319.30        2962.75           2324      105707.00    468189.40
  319.33        2963.00           2328      134403.00    597919.60
  319.36        2963.25           2331      155852.00    695648.00
  319.39        2963.50           2335      183193.00    821182.90
  319.42        2963.75           2339      208743.00    939485.10
  319.45        2964.00           2342      228491.00   1031590.00
  319.48        2964.25           2346      255760.00   1159747.00
  319.52        2964.50           2349      278389.00   1266969.00
  319.55        2964.75           2353      304575.00   1392051.00
  319.58        2965.00           2356      324036.00   1485721.00
  319.61        2965.25           2360      347518.00   1599567.00
  319.64        2965.50           2363      365397.00   1686861.00
  319.67        2965.75           2367      387480.00   1795422.00
  319.70        2966.00           2370      406269.00   1888446.00
  319.73        2966.25           2374      430500.00   2009319.00
  319.76        2966.50           2378      445991.00   2087137.00
  319.79        2966.75           2381      451425.00   2114536.00
  319.82        2967.00           2385      452906.00   2122012.00
  319.85        2967.25           2388      453640.00   2125719.00
  319.88        2967.50           2392      453475.00   2124886.00
  319.91        2967.75           2395      452701.00   2120977.00
  319.94        2968.00           2399      448393.00   2099242.00
  319.97        2968.25           2402      436752.00   2040674.00
  320.00        2968.50           2406      415492.00   1934332.00
  320.04        2968.75           2409      397563.00   1845267.00
  320.07        2969.00           2413      372890.00   1723604.00
  320.10        2969.25           2417      348868.00   1606140.00
  320.13        2969.50           2420      329517.00   1512214.00
  320.16        2969.75           2424      302974.00   1384372.00
  320.19        2970.00           2427      282118.00   1284715.00
  320.22        2970.25           2431      253271.00   1148002.00
  320.25        2970.50           2434      234051.00   1057629.00
  320.28        2970.75           2438      206416.00    928670.60
  320.31        2971.00           2441      186601.00    836907.00
  320.34        2971.25           2445      157289.00    702219.00
  320.37        2971.50           2449      127426.00    566271.30
  320.40        2971.75           2452      105772.00    468482.00
  320.43        2972.00           2456       79538.00    350880.90
  320.48        2972.25           2459       60419.00    265766.90
  320.51        2972.50           2463       36680.00    160769.60
  320.54        2972.75           2466       20545.00     89831.49
  320.57        2973.00           2470        7038.00     30709.90
  320.60        2973.25           2473        3425.00     14935.66
  320.63        2973.50           2477        2296.00     10009.94
  320.66        2973.75           2481        2142.00      9338.19
  320.69        2974.00           2484        2107.00      9185.52
  320.72        2974.25           2488        2047.00      8923.81
  320.75        2974.50           2491        2020.00      8806.04
  320.78        2974.75           2495        2007.00      8749.33
  320.82        2975.00           2498        1948.00      8491.99
  320.85        2975.25           2502        1907.00      8313.16
  320.88        2975.50           2505        1912.00      8334.97
  320.91        2975.75           2509        1881.00      8199.76
  320.94        2976.00           2512        1854.00      8081.99
  320.97        2976.25           2516        1780.00      7759.24
  321.00        2976.50           2520        1798.00      7837.75
  321.04        2976.75           2523        1800.00      7846.47
  321.08        2977.00           2527        1705.00      7432.13
  321.11        2977.25           2530        1773.00      7728.71
  321.14        2977.50           2534        1731.00      7545.53
  321.17        2977.75           2537        1725.00      7519.36
  321.20        2978.00           2541        1680.00      7323.10
  321.23        2978.25           2544        1671.00      7283.84
  321.26        2978.50           2548        1636.00      7131.20
  321.29        2978.75           2552        1688.00      7357.99
  321.32        2979.00           2555        1638.00      7139.92
  321.35        2979.25           2559        1625.00      7083.22
  321.38        2979.50           2562        1625.00      7083.22
  321.41        2979.75           2566        1602.00      6982.91
  321.44        2980.00           2569        1556.00      6782.30
  321.47        2980.25           2573        1611.00      7022.16
  321.50        2980.50           2577        1527.00      6655.82
  321.53        2980.75           2580        1533.00      6681.99
  321.56        2981.00           2584        1549.00      6751.77
  321.60        2981.25           2587        1540.00      6712.52
  321.63        2981.50           2591        1551.00      6760.49
  321.66        2981.75           2594        1520.00      6625.29
  321.69        2982.00           2598        1509.00      6577.32
  321.72        2982.25           2601        1505.00      6559.88
  321.75        2982.50           2605        1467.00      6394.15
  321.78        2982.75           2609        1478.00      6442.13
  321.81        2983.00           2612        1431.00      6237.16
  321.84        2983.25           2616        1450.00      6320.02
  321.87        2983.50           2619        1459.00      6359.27
  321.90        2983.75           2623        1452.00      6328.74
  321.93        2984.00           2626        1402.00      6110.69
HS scan finished at 05:22:09
end
************************************************************
  HS Scan of (1) Internal mercury lamp
************************************************************
Integration time is 0.2294 seconds per sample
dh030119Reading 51.44 .94 2.88pr1000
************************************************************
Dead Time -------------------------  3.4E-08 
Number of Cycles Used -------------  4 
Starting Wavelength (Angstroms) ---  2950 
Final Wavelength (Angstoms) -------  2984 
Wavelength Increment (Angstroms) --  .25 
Filter Wheel #1 Position ---------- (1) Ground quartz diffuser (ND=2.32)
Filter Wheel #2 Position ---------- (1) Neutral Density 0.494



************************************************************
HS scan start time = 17:09:56
Dark Count =  .4 


Time (GMT)  Wavelength (Ang)  Step Number  Raw Counts  Counts/Second

 1030.83        2950.00           2144        1205.00      5252.03
 1031.03        2950.25           2147        1233.00      5374.13
 1031.06        2950.50           2151        1219.00      5313.08
 1031.09        2950.75           2155        1215.00      5295.64
 1031.12        2951.00           2158        1216.00      5300.00
 1031.15        2951.25           2162        1205.00      5252.03
 1031.18        2951.50           2165        1240.00      5404.66
 1031.21        2951.75           2169        1180.00      5143.01
 1031.24        2952.00           2172        1226.00      5343.60
 1031.27        2952.25           2176        1264.00      5509.31
 1031.30        2952.50           2179        1242.00      5413.38
 1031.33        2952.75           2183        1270.00      5535.48
 1031.36        2953.00           2186        1207.00      5260.75
 1031.39        2953.25           2190        1240.00      5404.66
 1031.42        2953.50           2193        1274.00      5552.92
 1031.45        2953.75           2197        1255.00      5470.07
 1031.48        2954.00           2200        1266.00      5518.04
 1031.52        2954.25           2204        1252.00      5456.99
 1031.55        2954.50           2208        1244.00      5422.10
 1031.58        2954.75           2211        1274.00      5552.92
 1031.61        2955.00           2215        1271.00      5539.84
 1031.64        2955.25           2218        1279.00      5574.73
 1031.67        2955.50           2222        1282.00      5587.81
 1031.70        2955.75           2225        1322.00      5762.25
 1031.73        2956.00           2229        1301.00      5670.67
 1031.77        2956.25           2232        1316.00      5736.08
 1031.80        2956.50           2236        1330.00      5797.13
 1031.83        2956.75           2239        1309.00      5705.55
 1031.86        2957.00           2243        1322.00      5762.25
 1031.89        2957.25           2246        1325.00      5775.33
 1031.92        2957.50           2250        1381.00      6019.54
 1031.95        2957.75           2254        1346.00      5866.91
 1031.98        2958.00           2257        1354.00      5901.79
 1032.01        2958.25           2261        1389.00      6054.43
 1032.04        2958.50           2264        1386.00      6041.35
 1032.07        2958.75           2268        1375.00      5993.38
 1032.10        2959.00           2271        1429.00      6228.87
 1032.13        2959.25           2275        1438.00      6268.12
 1032.16        2959.50           2278        1469.00      6403.31
 1032.19        2959.75           2282        1456.00      6346.62
 1032.23        2960.00           2285        1447.00      6307.37
 1032.26        2960.25           2289        1542.00      6721.68
 1032.29        2960.50           2293        1572.00      6852.51
 1032.32        2960.75           2296        1530.00      6669.34
 1032.35        2961.00           2300        1579.00      6883.04
 1032.38        2961.25           2303        1729.00      7537.24
 1032.41        2961.50           2307        3405.00     14848.82
 1032.44        2961.75           2310        8516.00     37168.13
 1032.47        2962.00           2314       21459.00     93841.21
 1032.50        2962.25           2317       33808.00    148118.10
 1032.53        2962.50           2321       50477.00    221702.40
 1032.56        2962.75           2324       62895.00    276762.10
 1032.59        2963.00           2328       79311.00    349867.90
 1032.62        2963.25           2331       93050.00    411334.30
 1032.65        2963.50           2335      112299.00    497889.30
 1032.68        2963.75           2339      131824.00    586213.50
 1032.71        2964.00           2342      144561.00    644121.30
 1032.75        2964.25           2346      162295.00    725133.50
 1032.78        2964.50           2349      176404.00    789910.50
 1032.81        2964.75           2353      193557.00    869054.60
 1032.84        2965.00           2356      206183.00    927588.60
 1032.87        2965.25           2360      224316.00   1012069.00
 1032.90        2965.50           2363      237987.00   1076090.00
 1032.93        2965.75           2367      255470.00   1158378.00
 1032.96        2966.00           2370      267742.00   1216422.00
 1032.99        2966.25           2374      282871.00   1288301.00
 1033.02        2966.50           2378      293991.00   1341364.00
 1033.05        2966.75           2381      298672.00   1363760.00
 1033.08        2967.00           2385      301085.00   1375318.00
 1033.11        2967.25           2388      301364.00   1376655.00
 1033.14        2967.50           2392      301329.00   1376487.00
 1033.17        2967.75           2395      301651.00   1378030.00
 1033.20        2968.00           2399      298232.00   1361653.00
 1033.23        2968.25           2402      292020.00   1331945.00
 1033.27        2968.50           2406      278257.00   1266342.00
 1033.30        2968.75           2409      267481.00   1215185.00
 1033.33        2969.00           2413      250357.00   1134264.00
 1033.36        2969.25           2417      234374.00   1059143.00
 1033.39        2969.50           2420      222480.00   1003493.00
 1033.42        2969.75           2424      205470.00    924276.80
 1033.45        2970.00           2427      193094.00    866912.50
 1033.48        2970.25           2431      176583.00    790734.10
 1033.52        2970.50           2434      162251.00    724932.00
 1033.56        2970.75           2438      143393.00    638801.40
 1033.59        2971.00           2441      128930.00    573088.30
 1033.62        2971.25           2445      110578.00    490129.70
 1033.65        2971.50           2449       94072.00    415916.90
 1033.68        2971.75           2452       81941.00    361614.10
 1033.71        2972.00           2456       63829.00    280911.70
 1033.74        2972.25           2459       50271.00    220790.70
 1033.77        2972.50           2463       31995.00    140136.90
 1033.80        2972.75           2466       19906.00     87029.59
 1033.83        2973.00           2470        7631.00     33300.98
 1033.86        2973.25           2473        3268.00     14251.02
 1033.89        2973.50           2477        1775.00      7737.87
 1033.92        2973.75           2481        1625.00      7083.66
 1033.95        2974.00           2484        1543.00      6726.04
 1033.98        2974.25           2488        1520.00      6625.73
 1034.01        2974.50           2491        1506.00      6564.67
 1034.04        2974.75           2495        1472.00      6416.40
 1034.08        2975.00           2498        1469.00      6403.31
 1034.11        2975.25           2502        1420.00      6189.62
 1034.15        2975.50           2505        1436.00      6259.40
 1034.18        2975.75           2509        1385.00      6036.98
 1034.21        2976.00           2512        1417.00      6176.54
 1034.24        2976.25           2516        1354.00      5901.79
 1034.27        2976.50           2520        1375.00      5993.38
 1034.30        2976.75           2523        1337.00      5827.66
 1034.33        2977.00           2527        1359.00      5923.60
 1034.36        2977.25           2530        1331.00      5801.49
 1034.39        2977.50           2534        1280.00      5579.09
 1034.42        2977.75           2537        1296.00      5648.86
 1034.45        2978.00           2541        1286.00      5605.25
 1034.48        2978.25           2544        1252.00      5456.99
 1034.51        2978.50           2548        1244.00      5422.10
 1034.54        2978.75           2552        1242.00      5413.38
 1034.57        2979.00           2555        1292.00      5631.42
 1034.60        2979.25           2559        1245.00      5426.46
 1034.64        2979.50           2562        1236.00      5387.21
 1034.67        2979.75           2566        1210.00      5273.83
 1034.70        2980.00           2569        1216.00      5300.00
 1034.73        2980.25           2573        1202.00      5238.95
 1034.76        2980.50           2577        1233.00      5374.13
 1034.79        2980.75           2580        1222.00      5326.16
 1034.82        2981.00           2584        1185.00      5164.81
 1034.85        2981.25           2587        1190.00      5186.62
 1034.88        2981.50           2591        1196.00      5212.78
 1034.91        2981.75           2594        1168.00      5090.68
 1034.94        2982.00           2598        1178.00      5134.29
 1034.97        2982.25           2601        1161.00      5060.16
 1035.00        2982.50           2605        1088.00      4741.83
 1035.03        2982.75           2609        1179.00      5138.65
 1035.06        2983.00           2612        1171.00      5103.76
 1035.09        2983.25           2616        1140.00      4968.58
 1035.12        2983.50           2619        1136.00      4951.14
 1035.16        2983.75           2623        1124.00      4898.81
 1035.19        2984.00           2626        1147.00      4999.11
HS scan finished at 17:15:24
end
