************************************************************
  HS Scan of (1) Internal mercury lamp
************************************************************
Integration time is 0.2294 seconds per sample
dh100119Reading 51.44 .94 2.39pr1000
************************************************************
Dead Time -------------------------  3.4E-08 
Number of Cycles Used -------------  4 
Starting Wavelength (Angstroms) ---  2950 
Final Wavelength (Angstoms) -------  2984 
Wavelength Increment (Angstroms) --  .25 
Filter Wheel #1 Position ---------- (1) Ground quartz diffuser (ND=2.32)
Filter Wheel #2 Position ---------- (1) Neutral Density 0.494



************************************************************
HS scan start time = 05:18:39
Dark Count =  .3 


Time (GMT)  Wavelength (Ang)  Step Number  Raw Counts  Counts/Second

  319.55        2950.00           2144        1690.00      7367.58
  319.75        2950.25           2147        1708.00      7446.09
  319.78        2950.50           2151        1669.00      7275.99
  319.81        2950.75           2155        1689.00      7363.22
  319.84        2951.00           2158        1736.00      7568.21
  319.87        2951.25           2162        1683.00      7337.05
  319.90        2951.50           2165        1707.00      7441.73
  319.93        2951.75           2169        1727.00      7528.95
  319.96        2952.00           2172        1698.00      7402.47
  319.99        2952.25           2176        1705.00      7433.00
  320.02        2952.50           2179        1700.00      7411.20
  320.05        2952.75           2183        1713.00      7467.89
  320.08        2953.00           2186        1733.00      7555.12
  320.11        2953.25           2190        1749.00      7624.91
  320.14        2953.50           2193        1755.00      7651.07
  320.17        2953.75           2197        1716.00      7480.98
  320.20        2954.00           2200        1741.00      7590.01
  320.24        2954.25           2204        1704.00      7428.64
  320.27        2954.50           2208        1768.00      7707.77
  320.30        2954.75           2211        1736.00      7568.21
  320.33        2955.00           2215        1770.00      7716.50
  320.36        2955.25           2218        1793.00      7816.81
  320.39        2955.50           2222        1814.00      7908.40
  320.42        2955.75           2225        1814.00      7908.40
  320.45        2956.00           2229        1819.00      7930.21
  320.48        2956.25           2232        1827.00      7965.10
  320.51        2956.50           2236        1872.00      8161.38
  320.54        2956.75           2239        1839.00      8017.44
  320.57        2957.00           2243        1851.00      8069.78
  320.60        2957.25           2246        1869.00      8148.29
  320.63        2957.50           2250        1899.00      8279.14
  320.66        2957.75           2254        1900.00      8283.50
  320.69        2958.00           2257        1964.00      8562.65
  320.72        2958.25           2261        1943.00      8471.05
  320.76        2958.50           2264        1954.00      8519.03
  320.79        2958.75           2268        1989.00      8671.69
  320.82        2959.00           2271        1989.00      8671.69
  320.85        2959.25           2275        2005.00      8741.48
  320.88        2959.50           2278        2039.00      8889.78
  320.91        2959.75           2282        2045.00      8915.95
  320.94        2960.00           2285        2105.00      9177.67
  320.98        2960.25           2289        2074.00      9042.45
  321.01        2960.50           2293        2148.00      9365.23
  321.04        2960.75           2296        2200.00      9592.06
  321.07        2961.00           2300        2284.00      9958.47
  321.10        2961.25           2303        2761.00     12039.36
  321.13        2961.50           2307        7104.00     30999.09
  321.16        2961.75           2310       17179.00     75076.75
  321.19        2962.00           2314       37469.00    164248.20
  321.22        2962.25           2317       54966.00    241582.60
  321.25        2962.50           2321       80547.00    355387.40
  321.28        2962.75           2324      100705.00    445694.70
  321.31        2963.00           2328      127018.00    564423.50
  321.34        2963.25           2331      147553.00    657758.10
  321.37        2963.50           2335      174373.00    780568.40
  321.40        2963.75           2339      200213.00    899882.80
  321.43        2964.00           2342      220488.00    994194.30
  321.47        2964.25           2346      247587.00   1121217.00
  321.50        2964.50           2349      267208.00   1213892.00
  321.53        2964.75           2353      291899.00   1331367.00
  321.56        2965.00           2356      307342.00   1405333.00
  321.59        2965.25           2360      330042.00   1514755.00
  321.62        2965.50           2363      348148.00   1602635.00
  321.65        2965.75           2367      373747.00   1727814.00
  321.68        2966.00           2370      391855.00   1817029.00
  321.71        2966.25           2374      411431.00   1914111.00
  321.74        2966.50           2378      423138.00   1972487.00
  321.77        2966.75           2381      427859.00   1996096.00
  321.80        2967.00           2385      428552.00   1999564.00
  321.83        2967.25           2388      429042.00   2002018.00
  321.86        2967.50           2392      428325.00   1998428.00
  321.89        2967.75           2395      426032.00   1986954.00
  321.92        2968.00           2399      416665.00   1940180.00
  321.95        2968.25           2402      403082.00   1872625.00
  321.99        2968.50           2406      381309.00   1765003.00
  322.02        2968.75           2409      364970.00   1684770.00
  322.05        2969.00           2413      341358.00   1569615.00
  322.08        2969.25           2417      316413.00   1448958.00
  322.11        2969.50           2420      297010.00   1355804.00
  322.14        2969.75           2424      272108.00   1237129.00
  322.17        2970.00           2427      252929.00   1146390.00
  322.20        2970.25           2431      227899.00   1028821.00
  322.23        2970.50           2434      209987.00    945270.80
  322.26        2970.75           2438      183293.00    821645.00
  322.29        2971.00           2441      162627.00    726655.00
  322.32        2971.25           2445      136692.00    608318.80
  322.35        2971.50           2449      111985.00    496473.70
  322.38        2971.75           2452       93494.00    413325.50
  322.41        2972.00           2456       69005.00    303929.70
  322.44        2972.25           2459       50562.00    222079.00
  322.47        2972.50           2463       28637.00    125366.30
  322.51        2972.75           2466       16301.00     71230.28
  322.54        2973.00           2470        5678.00     24771.07
  322.57        2973.25           2473        3080.00     13431.15
  322.60        2973.50           2477        2343.00     10215.84
  322.63        2973.75           2481        2196.00      9574.61
  322.66        2974.00           2484        2111.00      9203.84
  322.69        2974.25           2488        2115.00      9221.29
  322.72        2974.50           2491        2055.00      8959.57
  322.75        2974.75           2495        2048.00      8929.04
  322.78        2975.00           2498        1991.00      8680.42
  322.81        2975.25           2502        2003.00      8732.76
  322.84        2975.50           2505        1921.00      8375.10
  322.87        2975.75           2509        1948.00      8492.86
  322.90        2976.00           2512        1906.00      8309.67
  322.93        2976.25           2516        1845.00      8043.61
  322.96        2976.50           2520        1825.00      7956.38
  322.99        2976.75           2523        1805.00      7869.15
  323.02        2977.00           2527        1818.00      7925.85
  323.06        2977.25           2530        1828.00      7969.47
  323.09        2977.50           2534        1756.00      7655.44
  323.12        2977.75           2537        1729.00      7537.68
  323.15        2978.00           2541        1728.00      7533.32
  323.18        2978.25           2544        1723.00      7511.51
  323.21        2978.50           2548        1705.00      7433.00
  323.24        2978.75           2552        1655.00      7214.93
  323.27        2979.00           2555        1647.00      7180.04
  323.30        2979.25           2559        1662.00      7245.46
  323.33        2979.50           2562        1636.00      7132.07
  323.36        2979.75           2566        1608.00      7009.95
  323.39        2980.00           2569        1655.00      7214.93
  323.42        2980.25           2573        1579.00      6883.48
  323.45        2980.50           2577        1599.00      6970.70
  323.48        2980.75           2580        1560.00      6800.61
  323.51        2981.00           2584        1564.00      6818.06
  323.54        2981.25           2587        1519.00      6621.80
  323.58        2981.50           2591        1549.00      6752.64
  323.61        2981.75           2594        1483.00      6464.80
  323.64        2982.00           2598        1494.00      6512.78
  323.67        2982.25           2601        1504.00      6556.39
  323.70        2982.50           2605        1487.00      6482.25
  323.73        2982.75           2609        1454.00      6338.33
  323.76        2983.00           2612        1424.00      6207.50
  323.79        2983.25           2616        1434.00      6251.11
  323.82        2983.50           2619        1454.00      6338.33
  323.85        2983.75           2623        1413.00      6159.53
  323.88        2984.00           2626        1463.00      6377.58
HS scan finished at 05:24:06
end
************************************************************
  HS Scan of (1) Internal mercury lamp
************************************************************
Integration time is 0.2294 seconds per sample
dh100119Reading 51.44 .94 2.84pr1000
************************************************************
Dead Time -------------------------  3.4E-08 
Number of Cycles Used -------------  4 
Starting Wavelength (Angstroms) ---  2950 
Final Wavelength (Angstoms) -------  2984 
Wavelength Increment (Angstroms) --  .25 
Filter Wheel #1 Position ---------- (1) Ground quartz diffuser (ND=2.32)
Filter Wheel #2 Position ---------- (1) Neutral Density 0.494



************************************************************
HS scan start time = 17:08:44
Dark Count =  .6 


Time (GMT)  Wavelength (Ang)  Step Number  Raw Counts  Counts/Second

 1029.64        2950.00           2144        1432.00      6241.08
 1029.83        2950.25           2147        1440.00      6275.97
 1029.86        2950.50           2151        1461.00      6367.55
 1029.89        2950.75           2155        1419.00      6184.39
 1029.92        2951.00           2158        1429.00      6228.00
 1029.95        2951.25           2162        1425.00      6210.55
 1029.98        2951.50           2165        1426.00      6214.91
 1030.02        2951.75           2169        1439.00      6271.61
 1030.05        2952.00           2172        1416.00      6171.30
 1030.08        2952.25           2176        1431.00      6236.72
 1030.11        2952.50           2179        1473.00      6419.88
 1030.14        2952.75           2183        1463.00      6376.27
 1030.17        2953.00           2186        1483.00      6463.50
 1030.20        2953.25           2190        1456.00      6345.75
 1030.23        2953.50           2193        1448.00      6310.86
 1030.26        2953.75           2197        1500.00      6537.64
 1030.29        2954.00           2200        1489.00      6489.66
 1030.32        2954.25           2204        1484.00      6467.86
 1030.35        2954.50           2208        1498.00      6528.91
 1030.38        2954.75           2211        1482.00      6459.13
 1030.41        2955.00           2215        1527.00      6655.39
 1030.44        2955.25           2218        1503.00      6550.72
 1030.47        2955.50           2222        1555.00      6777.50
 1030.50        2955.75           2225        1531.00      6672.83
 1030.53        2956.00           2229        1549.00      6751.33
 1030.57        2956.25           2232        1578.00      6877.81
 1030.60        2956.50           2236        1551.00      6760.05
 1030.63        2956.75           2239        1553.00      6768.78
 1030.66        2957.00           2243        1567.00      6829.83
 1030.69        2957.25           2246        1603.00      6986.84
 1030.72        2957.50           2250        1633.00      7117.68
 1030.75        2957.75           2254        1608.00      7008.65
 1030.78        2958.00           2257        1588.00      6921.42
 1030.81        2958.25           2261        1691.00      7370.64
 1030.84        2958.50           2264        1620.00      7060.98
 1030.87        2958.75           2268        1674.00      7296.49
 1030.90        2959.00           2271        1660.00      7235.43
 1030.93        2959.25           2275        1705.00      7431.70
 1030.96        2959.50           2278        1719.00      7492.75
 1030.99        2959.75           2282        1750.00      7627.96
 1031.02        2960.00           2285        1742.00      7593.07
 1031.05        2960.25           2289        1780.00      7758.80
 1031.09        2960.50           2293        1808.00      7880.93
 1031.12        2960.75           2296        1785.00      7780.61
 1031.15        2961.00           2300        1944.00      8474.11
 1031.18        2961.25           2303        2282.00      9948.44
 1031.21        2961.50           2307        5992.00     26140.92
 1031.24        2961.75           2310       13977.00     61052.50
 1031.27        2962.00           2314       28724.00    125747.50
 1031.30        2962.25           2317       42556.00    186688.60
 1031.33        2962.50           2321       62156.00    273478.80
 1031.36        2962.75           2324       76655.00    338014.10
 1031.39        2963.00           2328       96248.00    425678.00
 1031.42        2963.25           2331      112643.00    499439.90
 1031.45        2963.50           2335      135084.00    601012.00
 1031.48        2963.75           2339      157719.00    704185.30
 1031.51        2964.00           2342      172922.00    773896.20
 1031.54        2964.25           2346      193736.00    869881.90
 1031.57        2964.50           2349      208562.00    938643.30
 1031.61        2964.75           2353      229280.00   1035282.00
 1031.64        2965.00           2356      245295.00   1110429.00
 1031.67        2965.25           2360      265796.00   1207201.00
 1031.70        2965.50           2363      279494.00   1272225.00
 1031.73        2965.75           2367      297372.00   1357536.00
 1031.76        2966.00           2370      310543.00   1420711.00
 1031.79        2966.25           2374      327110.00   1500573.00
 1031.82        2966.50           2378      345762.00   1591022.00
 1031.85        2966.75           2381      352402.00   1623360.00
 1031.88        2967.00           2385      354798.00   1635047.00
 1031.91        2967.25           2388      355322.00   1637604.00
 1031.94        2967.50           2392      355249.00   1637248.00
 1031.97        2967.75           2395      354742.00   1634773.00
 1032.00        2968.00           2399      353159.00   1627051.00
 1032.03        2968.25           2402      346297.00   1593625.00
 1032.06        2968.50           2406      330872.00   1518770.00
 1032.09        2968.75           2409      317826.00   1455764.00
 1032.13        2969.00           2413      298285.00   1361906.00
 1032.16        2969.25           2417      276505.00   1258011.00
 1032.19        2969.50           2420      261474.00   1186746.00
 1032.22        2969.75           2424      242220.00   1095970.00
 1032.25        2970.00           2427      227000.00   1024615.00
 1032.28        2970.25           2431      204145.00    918123.40
 1032.31        2970.50           2434      186295.00    835494.00
 1032.34        2970.75           2438      165347.00    739120.50
 1032.37        2971.00           2441      148018.00    659877.20
 1032.40        2971.25           2445      127167.00    565097.30
 1032.43        2971.50           2449      106648.00    472424.80
 1032.46        2971.75           2452       90727.00    400922.40
 1032.49        2972.00           2456       68455.00    301480.80
 1032.52        2972.25           2459       51925.00    228111.10
 1032.55        2972.50           2463       32096.00    140580.50
 1032.58        2972.75           2466       18569.00     81167.03
 1032.61        2973.00           2470        6645.00     28992.82
 1032.65        2973.25           2473        3238.00     14119.24
 1032.68        2973.50           2477        2068.00      9014.97
 1032.71        2973.75           2481        1916.00      8351.98
 1032.74        2974.00           2484        1889.00      8234.21
 1032.77        2974.25           2488        1821.00      7937.63
 1032.80        2974.50           2491        1767.00      7702.10
 1032.83        2974.75           2495        1719.00      7492.75
 1032.86        2975.00           2498        1715.00      7475.31
 1032.89        2975.25           2502        1723.00      7510.20
 1032.92        2975.50           2505        1682.00      7331.38
 1032.95        2975.75           2509        1656.00      7217.99
 1032.98        2976.00           2512        1626.00      7087.15
 1033.01        2976.25           2516        1625.00      7082.79
 1033.04        2976.50           2520        1643.00      7161.29
 1033.07        2976.75           2523        1596.00      6956.31
 1033.10        2977.00           2527        1568.00      6834.19
 1033.13        2977.25           2530        1586.00      6912.70
 1033.16        2977.50           2534        1574.00      6860.36
 1033.20        2977.75           2537        1509.00      6576.89
 1033.23        2978.00           2541        1550.00      6755.69
 1033.26        2978.25           2544        1526.00      6651.02
 1033.29        2978.50           2548        1509.00      6576.89
 1033.32        2978.75           2552        1521.00      6629.22
 1033.35        2979.00           2555        1480.00      6450.41
 1033.38        2979.25           2559        1492.00      6502.75
 1033.41        2979.50           2562        1466.00      6389.36
 1033.44        2979.75           2566        1445.00      6297.77
 1033.47        2980.00           2569        1425.00      6210.55
 1033.50        2980.25           2573        1408.00      6136.42
 1033.53        2980.50           2577        1435.00      6254.16
 1033.56        2980.75           2580        1429.00      6228.00
 1033.59        2981.00           2584        1402.00      6110.25
 1033.62        2981.25           2587        1407.00      6132.05
 1033.65        2981.50           2591        1393.00      6071.00
 1033.68        2981.75           2594        1373.00      5983.78
 1033.72        2982.00           2598        1411.00      6149.50
 1033.75        2982.25           2601        1374.00      5988.14
 1033.78        2982.50           2605        1374.00      5988.14
 1033.81        2982.75           2609        1386.00      6040.47
 1033.84        2983.00           2612        1378.00      6005.59
 1033.87        2983.25           2616        1385.00      6036.11
 1033.90        2983.50           2619        1349.00      5879.12
 1033.93        2983.75           2623        1357.00      5914.01
 1033.96        2984.00           2626        1365.00      5948.89
HS scan finished at 17:14:11
end
