************************************************************
  HS Scan of (1) Internal mercury lamp
************************************************************
Integration time is 0.2294 seconds per sample
dh190119Reading 51.44 .94 2.56pr1000
************************************************************
Dead Time -------------------------  3.4E-08 
Number of Cycles Used -------------  4 
Starting Wavelength (Angstroms) ---  2950 
Final Wavelength (Angstoms) -------  2984 
Wavelength Increment (Angstroms) --  .25 
Filter Wheel #1 Position ---------- (1) Ground quartz diffuser (ND=2.32)
Filter Wheel #2 Position ---------- (1) Neutral Density 0.494



************************************************************
HS scan start time = 05:11:13
Dark Count =  .3 


Time (GMT)  Wavelength (Ang)  Step Number  Raw Counts  Counts/Second

  312.11        2950.00           2144        1608.00      7009.95
  312.31        2950.25           2147        1616.00      7044.84
  312.34        2950.50           2151        1640.00      7149.51
  312.37        2950.75           2155        1614.00      7036.12
  312.40        2951.00           2158        1625.00      7084.09
  312.43        2951.25           2162        1619.00      7057.93
  312.46        2951.50           2165        1628.00      7097.18
  312.49        2951.75           2169        1631.00      7110.26
  312.52        2952.00           2172        1637.00      7136.43
  312.55        2952.25           2176        1614.00      7036.12
  312.58        2952.50           2179        1629.00      7101.54
  312.61        2952.75           2183        1620.00      7062.29
  312.64        2953.00           2186        1590.00      6931.45
  312.67        2953.25           2190        1643.00      7162.60
  312.70        2953.50           2193        1658.00      7228.02
  312.74        2953.75           2197        1682.00      7332.69
  312.77        2954.00           2200        1689.00      7363.22
  312.80        2954.25           2204        1682.00      7332.69
  312.83        2954.50           2208        1665.00      7258.55
  312.86        2954.75           2211        1661.00      7241.10
  312.89        2955.00           2215        1685.00      7345.78
  312.92        2955.25           2218        1741.00      7590.01
  312.95        2955.50           2222        1724.00      7515.87
  312.98        2955.75           2225        1747.00      7616.18
  313.01        2956.00           2229        1711.00      7459.17
  313.04        2956.25           2232        1728.00      7533.32
  313.07        2956.50           2236        1771.00      7720.86
  313.10        2956.75           2239        1743.00      7598.74
  313.13        2957.00           2243        1759.00      7668.52
  313.16        2957.25           2246        1739.00      7581.29
  313.19        2957.50           2250        1801.00      7851.70
  313.22        2957.75           2254        1780.00      7760.11
  313.26        2958.00           2257        1826.00      7960.74
  313.29        2958.25           2261        1830.00      7978.19
  313.32        2958.50           2264        1880.00      8196.27
  313.35        2958.75           2268        1851.00      8069.78
  313.38        2959.00           2271        1863.00      8122.12
  313.41        2959.25           2275        1903.00      8296.59
  313.44        2959.50           2278        1873.00      8165.74
  313.47        2959.75           2282        1914.00      8344.56
  313.50        2960.00           2285        1954.00      8519.03
  313.53        2960.25           2289        2012.00      8772.01
  313.56        2960.50           2293        2008.00      8754.57
  313.59        2960.75           2296        2076.00      9051.17
  313.62        2961.00           2300        2205.00      9613.87
  313.65        2961.25           2303        2916.00     12715.61
  313.68        2961.50           2307        8248.00     35997.39
  313.71        2961.75           2310       18141.00     79292.38
  313.74        2962.00           2314       35430.00    155262.50
  313.78        2962.25           2317       49699.00    218260.20
  313.81        2962.50           2321       70194.00    309222.20
  313.84        2962.75           2324       86737.00    383059.10
  313.87        2963.00           2328      110704.00    490698.20
  313.90        2963.25           2331      128769.00    572358.80
  313.93        2963.50           2335      150762.00    672397.80
  313.96        2963.75           2339      170627.00    763352.80
  313.99        2964.00           2342      187170.00    839534.90
  314.02        2964.25           2346      211448.00    952067.60
  314.05        2964.50           2349      228434.00   1031325.00
  314.08        2964.75           2353      250519.00   1135028.00
  314.11        2965.00           2356      264745.00   1202225.00
  314.14        2965.25           2360      284459.00   1295868.00
  314.17        2965.50           2363      299411.00   1367299.00
  314.20        2965.75           2367      320586.00   1469072.00
  314.23        2966.00           2370      335712.00   1542217.00
  314.26        2966.25           2374      354689.00   1634516.00
  314.30        2966.50           2378      367179.00   1695591.00
  314.33        2966.75           2381      371192.00   1715270.00
  314.36        2967.00           2385      373273.00   1725486.00
  314.39        2967.25           2388      372875.00   1723532.00
  314.42        2967.50           2392      373334.00   1725785.00
  314.45        2967.75           2395      372848.00   1723399.00
  314.48        2968.00           2399      366940.00   1694420.00
  314.51        2968.25           2402      358131.00   1651321.00
  314.54        2968.50           2406      340023.00   1563132.00
  314.57        2968.75           2409      326343.00   1496867.00
  314.60        2969.00           2413      305660.00   1397258.00
  314.63        2969.25           2417      285304.00   1299895.00
  314.66        2969.50           2420      270159.00   1227882.00
  314.69        2969.75           2424      246960.00   1118266.00
  314.72        2970.00           2427      229874.00   1038064.00
  314.75        2970.25           2431      206891.00    930878.30
  314.78        2970.50           2434      189790.00    851636.90
  314.81        2970.75           2438      167238.00    747795.30
  314.85        2971.00           2441      148958.00    664166.10
  314.88        2971.25           2445      125948.00    559576.60
  314.91        2971.50           2449      102616.00    454285.00
  314.94        2971.75           2452       85064.00    375575.00
  314.97        2972.00           2456       63075.00    277562.20
  315.00        2972.25           2459       46863.00    205717.60
  315.03        2972.50           2463       27028.00    118293.90
  315.06        2972.75           2466       14660.00     64043.84
  315.09        2973.00           2470        5450.00     23775.54
  315.12        2973.25           2473        2986.00     13021.02
  315.15        2973.50           2477        2164.00      9435.02
  315.18        2973.75           2481        2084.00      9086.07
  315.21        2974.00           2484        2008.00      8754.57
  315.24        2974.25           2488        1988.00      8667.33
  315.27        2974.50           2491        1940.00      8457.97
  315.30        2974.75           2495        1922.00      8379.46
  315.33        2975.00           2498        1925.00      8392.54
  315.37        2975.25           2502        1839.00      8017.44
  315.40        2975.50           2505        1871.00      8157.01
  315.43        2975.75           2509        1817.00      7921.49
  315.46        2976.00           2512        1799.00      7842.98
  315.49        2976.25           2516        1838.00      8013.08
  315.52        2976.50           2520        1815.00      7912.76
  315.55        2976.75           2523        1718.00      7489.70
  315.58        2977.00           2527        1780.00      7760.11
  315.61        2977.25           2530        1725.00      7520.23
  315.64        2977.50           2534        1669.00      7275.99
  315.67        2977.75           2537        1673.00      7293.44
  315.70        2978.00           2541        1666.00      7262.91
  315.73        2978.25           2544        1621.00      7066.65
  315.76        2978.50           2548        1622.00      7071.01
  315.79        2978.75           2552        1652.00      7201.85
  315.82        2979.00           2555        1677.00      7310.88
  315.85        2979.25           2559        1647.00      7180.04
  315.89        2979.50           2562        1591.00      6935.81
  315.92        2979.75           2566        1619.00      7057.93
  315.95        2980.00           2569        1578.00      6879.11
  315.98        2980.25           2573        1600.00      6975.06
  316.01        2980.50           2577        1575.00      6866.03
  316.04        2980.75           2580        1591.00      6935.81
  316.07        2981.00           2584        1598.00      6966.34
  316.10        2981.25           2587        1573.00      6857.31
  316.13        2981.50           2591        1534.00      6687.22
  316.16        2981.75           2594        1546.00      6739.56
  316.19        2982.00           2598        1566.00      6826.78
  316.22        2982.25           2601        1592.00      6940.17
  316.25        2982.50           2605        1541.00      6717.75
  316.28        2982.75           2609        1531.00      6674.14
  316.31        2983.00           2612        1517.00      6613.08
  316.34        2983.25           2616        1507.00      6569.47
  316.37        2983.50           2619        1468.00      6399.39
  316.41        2983.75           2623        1504.00      6556.39
  316.44        2984.00           2626        1519.00      6621.80
HS scan finished at 05:16:39
end
************************************************************
  HS Scan of (1) Internal mercury lamp
************************************************************
Integration time is 0.2294 seconds per sample
dh190119Reading 51.44 .94 2.74pr1000
************************************************************
Dead Time -------------------------  3.4E-08 
Number of Cycles Used -------------  4 
Starting Wavelength (Angstroms) ---  2950 
Final Wavelength (Angstoms) -------  2984 
Wavelength Increment (Angstroms) --  .25 
Filter Wheel #1 Position ---------- (1) Ground quartz diffuser (ND=2.32)
Filter Wheel #2 Position ---------- (1) Neutral Density 0.494



************************************************************
HS scan start time = 17:36:41
Dark Count =  .5 


Time (GMT)  Wavelength (Ang)  Step Number  Raw Counts  Counts/Second

 1057.57        2950.00           2144        1280.00      5578.65
 1057.77        2950.25           2147        1267.00      5521.96
 1057.80        2950.50           2151        1288.00      5613.54
 1057.83        2950.75           2155        1316.00      5735.64
 1057.86        2951.00           2158        1277.00      5565.57
 1057.89        2951.25           2162        1299.00      5661.51
 1057.92        2951.50           2165        1278.00      5569.93
 1057.95        2951.75           2169        1312.00      5718.20
 1057.98        2952.00           2172        1323.00      5766.17
 1058.01        2952.25           2176        1305.00      5687.67
 1058.04        2952.50           2179        1335.00      5818.50
 1058.07        2952.75           2183        1340.00      5840.31
 1058.10        2953.00           2186        1332.00      5805.42
 1058.14        2953.25           2190        1295.00      5644.07
 1058.17        2953.50           2193        1323.00      5766.17
 1058.20        2953.75           2197        1340.00      5840.31
 1058.23        2954.00           2200        1343.00      5853.39
 1058.26        2954.25           2204        1329.00      5792.34
 1058.29        2954.50           2208        1398.00      6093.24
 1058.32        2954.75           2211        1349.00      5879.55
 1058.35        2955.00           2215        1346.00      5866.47
 1058.38        2955.25           2218        1360.00      5927.52
 1058.41        2955.50           2222        1346.00      5866.47
 1058.44        2955.75           2225        1349.00      5879.55
 1058.47        2956.00           2229        1369.00      5966.77
 1058.50        2956.25           2232        1365.00      5949.33
 1058.53        2956.50           2236        1426.00      6215.35
 1058.56        2956.75           2239        1368.00      5962.41
 1058.59        2957.00           2243        1411.00      6149.93
 1058.62        2957.25           2246        1401.00      6106.32
 1058.65        2957.50           2250        1421.00      6193.55
 1058.69        2957.75           2254        1455.00      6341.82
 1058.72        2958.00           2257        1429.00      6228.43
 1058.75        2958.25           2261        1462.00      6372.35
 1058.78        2958.50           2264        1487.00      6481.38
 1058.81        2958.75           2268        1490.00      6494.46
 1058.84        2959.00           2271        1475.00      6429.04
 1058.87        2959.25           2275        1490.00      6494.46
 1058.90        2959.50           2278        1553.00      6769.21
 1058.93        2959.75           2282        1586.00      6913.13
 1058.96        2960.00           2285        1560.00      6799.74
 1058.99        2960.25           2289        1568.00      6834.63
 1059.02        2960.50           2293        1616.00      7043.97
 1059.05        2960.75           2296        1601.00      6978.55
 1059.08        2961.00           2300        1741.00      7589.14
 1059.11        2961.25           2303        1857.00      8095.08
 1059.14        2961.50           2307        3651.00     15921.87
 1059.17        2961.75           2310        9107.00     39750.72
 1059.21        2962.00           2314       22277.00     97429.88
 1059.24        2962.25           2317       34569.00    151469.00
 1059.27        2962.50           2321       52260.00    229594.80
 1059.30        2962.75           2324       64976.00    286008.80
 1059.33        2963.00           2328       80209.00    353877.00
 1059.36        2963.25           2331       94018.00    415674.30
 1059.39        2963.50           2335      115055.00    510323.60
 1059.42        2963.75           2339      134632.00    598959.60
 1059.45        2964.00           2342      149157.00    665073.00
 1059.48        2964.25           2346      167135.00    747321.90
 1059.51        2964.50           2349      181094.00    811506.90
 1059.54        2964.75           2353      200075.00    899241.90
 1059.57        2965.00           2356      213614.00    962149.20
 1059.60        2965.25           2360      232140.00   1048674.00
 1059.63        2965.50           2363      245512.00   1111451.00
 1059.66        2965.75           2367      261620.00   1187437.00
 1059.69        2966.00           2370      274076.00   1246471.00
 1059.73        2966.25           2374      290593.00   1325128.00
 1059.76        2966.50           2378      304119.00   1389864.00
 1059.79        2966.75           2381      308847.00   1412561.00
 1059.82        2967.00           2385      311778.00   1426649.00
 1059.85        2967.25           2388      311805.00   1426779.00
 1059.88        2967.50           2392      312099.00   1428193.00
 1059.91        2967.75           2395      311479.00   1425212.00
 1059.94        2968.00           2399      308266.00   1409770.00
 1059.97        2968.25           2402      303091.00   1384933.00
 1060.00        2968.50           2406      290001.00   1322301.00
 1060.03        2968.75           2409      278625.00   1268091.00
 1060.06        2969.00           2413      260337.00   1181370.00
 1060.09        2969.25           2417      243141.00   1100300.00
 1060.12        2969.50           2420      230347.00   1040277.00
 1060.15        2969.75           2424      212835.00    958522.20
 1060.18        2970.00           2427      199036.00    894425.70
 1060.21        2970.25           2431      180770.00    810013.90
 1060.25        2970.50           2434      167741.00    750102.40
 1060.28        2970.75           2438      148364.00    661455.60
 1060.31        2971.00           2441      133696.00    594709.50
 1060.34        2971.25           2445      114359.00    507182.30
 1060.37        2971.50           2449       96066.00    424861.70
 1060.40        2971.75           2452       83610.00    369072.70
 1060.43        2972.00           2456       67569.00    297539.30
 1060.46        2972.25           2459       53939.00    237031.20
 1060.49        2972.50           2463       35262.00    154521.50
 1060.52        2972.75           2466       20988.00     91774.59
 1060.55        2973.00           2470        6951.00     30329.87
 1060.58        2973.25           2473        3308.00     14425.12
 1060.61        2973.50           2477        1916.00      8352.42
 1060.64        2973.75           2481        1699.00      7405.96
 1060.67        2974.00           2484        1622.00      7070.14
 1060.70        2974.25           2488        1582.00      6895.69
 1060.73        2974.50           2491        1573.00      6856.44
 1060.77        2974.75           2495        1565.00      6821.55
 1060.80        2975.00           2498        1537.00      6699.43
 1060.83        2975.25           2502        1549.00      6751.77
 1060.86        2975.50           2505        1488.00      6485.74
 1060.89        2975.75           2509        1471.00      6411.60
 1060.92        2976.00           2512        1466.00      6389.79
 1060.95        2976.25           2516        1458.00      6354.90
 1060.98        2976.50           2520        1470.00      6407.24
 1061.01        2976.75           2523        1421.00      6193.55
 1061.04        2977.00           2527        1400.00      6101.96
 1061.07        2977.25           2530        1393.00      6071.44
 1061.10        2977.50           2534        1407.00      6132.49
 1061.13        2977.75           2537        1386.00      6040.91
 1061.16        2978.00           2541        1384.00      6032.19
 1061.19        2978.25           2544        1391.00      6062.71
 1061.22        2978.50           2548        1330.00      5796.70
 1061.26        2978.75           2552        1353.00      5897.00
 1061.29        2979.00           2555        1316.00      5735.64
 1061.32        2979.25           2559        1333.00      5809.78
 1061.35        2979.50           2562        1298.00      5657.15
 1061.38        2979.75           2566        1329.00      5792.34
 1061.41        2980.00           2569        1299.00      5661.51
 1061.44        2980.25           2573        1262.00      5500.16
 1061.47        2980.50           2577        1278.00      5569.93
 1061.50        2980.75           2580        1282.00      5587.37
 1061.53        2981.00           2584        1231.00      5364.97
 1061.56        2981.25           2587        1284.00      5596.10
 1061.59        2981.50           2591        1267.00      5521.96
 1061.62        2981.75           2594        1249.00      5443.47
 1061.65        2982.00           2598        1249.00      5443.47
 1061.68        2982.25           2601        1229.00      5356.25
 1061.71        2982.50           2605        1244.00      5421.66
 1061.74        2982.75           2609        1224.00      5334.45
 1061.77        2983.00           2612        1221.00      5321.36
 1061.81        2983.25           2616        1231.00      5364.97
 1061.84        2983.50           2619        1181.00      5146.93
 1061.87        2983.75           2623        1212.00      5282.12
 1061.90        2984.00           2626        1234.00      5378.05
HS scan finished at 17:42:07
end
