************************************************************
  HS Scan of (1) Internal mercury lamp
************************************************************
Integration time is 0.2294 seconds per sample
dh110118Reading 51.44 .94 2.49pr1000
************************************************************
Dead Time -------------------------  3.4E-08 
Number of Cycles Used -------------  4 
Starting Wavelength (Angstroms) ---  2950 
Final Wavelength (Angstoms) -------  2984 
Wavelength Increment (Angstroms) --  .25 
Filter Wheel #1 Position ---------- (1) Ground quartz diffuser (ND=2.32)
Filter Wheel #2 Position ---------- (1) Neutral Density 0.494



************************************************************
HS scan start time = 05:18:17
Dark Count =  .2 


Time (GMT)  Wavelength (Ang)  Step Number  Raw Counts  Counts/Second

  319.19        2950.00           2144          81.00       352.23
  319.38        2950.25           2147          80.00       347.87
  319.41        2950.50           2151          83.00       360.95
  319.44        2950.75           2155          85.00       369.66
  319.47        2951.00           2158          86.00       374.02
  319.50        2951.25           2162          85.00       369.66
  319.53        2951.50           2165          86.00       374.02
  319.56        2951.75           2169          85.00       369.66
  319.59        2952.00           2172          86.00       374.02
  319.62        2952.25           2176          82.00       356.59
  319.66        2952.50           2179          90.00       391.46
  319.69        2952.75           2183          86.00       374.02
  319.72        2953.00           2186          81.00       352.23
  319.75        2953.25           2190          79.00       343.51
  319.78        2953.50           2193          83.00       360.95
  319.81        2953.75           2197          83.00       360.95
  319.84        2954.00           2200          87.00       378.38
  319.87        2954.25           2204          95.00       413.26
  319.90        2954.50           2208          87.00       378.38
  319.93        2954.75           2211          92.00       400.18
  319.96        2955.00           2215          90.00       391.46
  319.99        2955.25           2218          88.00       382.74
  320.02        2955.50           2222          85.00       369.66
  320.05        2955.75           2225          95.00       413.26
  320.08        2956.00           2229          98.00       426.34
  320.11        2956.25           2232          91.00       395.82
  320.14        2956.50           2236          97.00       421.98
  320.18        2956.75           2239         101.00       439.41
  320.21        2957.00           2243         115.00       500.44
  320.24        2957.25           2246          91.00       395.82
  320.27        2957.50           2250          97.00       421.98
  320.30        2957.75           2254          93.00       404.54
  320.33        2958.00           2257          95.00       413.26
  320.36        2958.25           2261          98.00       426.34
  320.39        2958.50           2264          94.00       408.90
  320.42        2958.75           2268         111.00       483.01
  320.45        2959.00           2271          91.00       395.82
  320.48        2959.25           2275         105.00       456.85
  320.51        2959.50           2278         112.00       487.37
  320.54        2959.75           2282         107.00       465.57
  320.57        2960.00           2285         110.00       478.65
  320.60        2960.25           2289         106.00       461.21
  320.63        2960.50           2293         121.00       526.60
  320.66        2960.75           2296         124.00       539.68
  320.70        2961.00           2300         137.00       596.35
  320.73        2961.25           2303         194.00       844.84
  320.76        2961.50           2307         790.00      3443.30
  320.79        2961.75           2310        1576.00      6870.83
  320.82        2962.00           2314        2656.00     11581.72
  320.85        2962.25           2317        3384.00     14758.06
  320.88        2962.50           2321        4501.00     19632.98
  320.91        2962.75           2324        5581.00     24347.96
  320.94        2963.00           2328        7026.00     30658.80
  320.97        2963.25           2331        7937.00     34638.85
  321.00        2963.50           2335        9068.00     39581.57
  321.03        2963.75           2339       10403.00     45417.95
  321.06        2964.00           2342       11442.00     49961.87
  321.09        2964.25           2346       12665.00     55312.30
  321.12        2964.50           2349       13671.00     59714.84
  321.15        2964.75           2353       14874.00     64981.25
  321.18        2965.00           2356       15816.00     69106.38
  321.22        2965.25           2360       17255.00     75410.20
  321.25        2965.50           2363       18001.00     78679.25
  321.28        2965.75           2367       19525.00     85359.85
  321.31        2966.00           2370       20150.00     88100.47
  321.34        2966.25           2374       20979.00     91736.43
  321.37        2966.50           2378       21633.00     94605.49
  321.40        2966.75           2381       21296.00     93127.02
  321.43        2967.00           2385       21314.00     93205.99
  321.46        2967.25           2388       21322.00     93241.08
  321.49        2967.50           2392       21329.00     93271.79
  321.52        2967.75           2395       20999.00     91824.16
  321.55        2968.00           2399       20501.00     89639.83
  321.58        2968.25           2402       19823.00     86666.52
  321.61        2968.50           2406       18765.00     82027.94
  321.64        2968.75           2409       17891.00     78197.18
  321.67        2969.00           2413       16615.00     72606.22
  321.70        2969.25           2417       15348.00     67056.81
  321.74        2969.50           2420       14499.00     63339.40
  321.77        2969.75           2424       13390.00     58484.97
  321.80        2970.00           2427       12340.00     53890.28
  321.83        2970.25           2431       12648.00     55237.91
  321.86        2970.50           2434       11250.00     49122.08
  321.89        2970.75           2438        9512.00     41522.40
  321.92        2971.00           2441        8469.00     36963.60
  321.95        2971.25           2445        7187.00     31362.11
  321.98        2971.50           2449        6178.00     26954.94
  322.01        2971.75           2452        5116.00     22317.72
  322.04        2972.00           2456        3772.00     16451.22
  322.07        2972.25           2459        2763.00     12048.53
  322.10        2972.50           2463        1532.00      6678.94
  322.13        2972.75           2466         750.00      3268.89
  322.16        2973.00           2470         234.00      1019.22
  322.19        2973.25           2473         150.00       653.02
  322.22        2973.50           2477         163.00       709.69
  322.26        2973.75           2481         108.00       469.93
  322.29        2974.00           2484         148.00       644.30
  322.32        2974.25           2488         130.00       565.83
  322.35        2974.50           2491         146.00       635.58
  322.38        2974.75           2495         101.00       439.41
  322.41        2975.00           2498          99.00       430.70
  322.44        2975.25           2502         108.00       469.93
  322.47        2975.50           2505         130.00       565.83
  322.50        2975.75           2509         111.00       483.01
  322.53        2976.00           2512          99.00       430.70
  322.56        2976.25           2516         103.00       448.13
  322.59        2976.50           2520          99.00       430.70
  322.62        2976.75           2523          94.00       408.90
  322.65        2977.00           2527          98.00       426.34
  322.68        2977.25           2530         100.00       435.05
  322.71        2977.50           2534          93.00       404.54
  322.74        2977.75           2537         101.00       439.41
  322.78        2978.00           2541         100.00       435.05
  322.81        2978.25           2544          98.00       426.34
  322.84        2978.50           2548          95.00       413.26
  322.87        2978.75           2552          91.00       395.82
  322.90        2979.00           2555          92.00       400.18
  322.93        2979.25           2559          92.00       400.18
  322.96        2979.50           2562          93.00       404.54
  322.99        2979.75           2566         106.00       461.21
  323.02        2980.00           2569          93.00       404.54
  323.05        2980.25           2573          85.00       369.66
  323.08        2980.50           2577          90.00       391.46
  323.11        2980.75           2580          82.00       356.59
  323.14        2981.00           2584          79.00       343.51
  323.17        2981.25           2587          87.00       378.38
  323.20        2981.50           2591          91.00       395.82
  323.23        2981.75           2594          88.00       382.74
  323.26        2982.00           2598          84.00       365.31
  323.30        2982.25           2601          86.00       374.02
  323.33        2982.50           2605          82.00       356.59
  323.36        2982.75           2609          76.00       330.43
  323.39        2983.00           2612          76.00       330.43
  323.42        2983.25           2616          82.00       356.59
  323.45        2983.50           2619          79.00       343.51
  323.48        2983.75           2623          85.00       369.66
  323.51        2984.00           2626          80.00       347.87
HS scan finished at 05:23:44
end
************************************************************
  HS Scan of (1) Internal mercury lamp
************************************************************
Integration time is 0.2294 seconds per sample
dh110118Reading 51.44 .94 3.01pr1000
************************************************************
Dead Time -------------------------  3.4E-08 
Number of Cycles Used -------------  4 
Starting Wavelength (Angstroms) ---  2950 
Final Wavelength (Angstoms) -------  2984 
Wavelength Increment (Angstroms) --  .25 
Filter Wheel #1 Position ---------- (1) Ground quartz diffuser (ND=2.32)
Filter Wheel #2 Position ---------- (1) Neutral Density 0.494



************************************************************
HS scan start time = 17:07:26
Dark Count =  .9 


Time (GMT)  Wavelength (Ang)  Step Number  Raw Counts  Counts/Second

 1028.33        2950.00           2144          54.00       231.48
 1028.53        2950.25           2147          57.00       244.55
 1028.56        2950.50           2151          63.00       270.71
 1028.59        2950.75           2155          61.00       261.99
 1028.62        2951.00           2158          59.00       253.27
 1028.65        2951.25           2162          58.00       248.91
 1028.68        2951.50           2165          61.00       261.99
 1028.71        2951.75           2169          62.00       266.35
 1028.74        2952.00           2172          72.00       309.94
 1028.77        2952.25           2176          62.00       266.35
 1028.80        2952.50           2179          60.00       257.63
 1028.83        2952.75           2183          67.00       288.15
 1028.86        2953.00           2186          62.00       266.35
 1028.89        2953.25           2190          60.00       257.63
 1028.93        2953.50           2193          61.00       261.99
 1028.96        2953.75           2197          69.00       296.86
 1028.99        2954.00           2200          67.00       288.15
 1029.02        2954.25           2204          66.00       283.79
 1029.05        2954.50           2208          63.00       270.71
 1029.08        2954.75           2211          63.00       270.71
 1029.11        2955.00           2215          55.00       235.83
 1029.14        2955.25           2218          73.00       314.30
 1029.17        2955.50           2222          71.00       305.58
 1029.20        2955.75           2225          64.00       275.07
 1029.23        2956.00           2229          60.00       257.63
 1029.26        2956.25           2232          60.00       257.63
 1029.29        2956.50           2236          65.00       279.43
 1029.32        2956.75           2239          66.00       283.79
 1029.35        2957.00           2243          66.00       283.79
 1029.38        2957.25           2246          68.00       292.51
 1029.41        2957.50           2250          74.00       318.66
 1029.44        2957.75           2254          74.00       318.66
 1029.48        2958.00           2257          72.00       309.94
 1029.51        2958.25           2261          70.00       301.22
 1029.54        2958.50           2264          75.00       323.02
 1029.57        2958.75           2268          82.00       353.54
 1029.60        2959.00           2271          75.00       323.02
 1029.63        2959.25           2275          75.00       323.02
 1029.66        2959.50           2278          78.00       336.10
 1029.69        2959.75           2282          74.00       318.66
 1029.72        2960.00           2285          72.00       309.94
 1029.75        2960.25           2289          82.00       353.54
 1029.78        2960.50           2293          90.00       388.41
 1029.81        2960.75           2296          78.00       336.10
 1029.84        2961.00           2300         102.00       440.72
 1029.87        2961.25           2303         198.00       859.22
 1029.90        2961.50           2307         668.00      2908.31
 1029.93        2961.75           2310        1223.00      5328.34
 1029.96        2962.00           2314        2137.00      9314.63
 1030.00        2962.25           2317        2877.00     12542.84
 1030.03        2962.50           2321        3910.00     17050.42
 1030.06        2962.75           2324        4719.00     20581.53
 1030.09        2963.00           2328        5623.00     24528.30
 1030.12        2963.25           2331        6420.00     28008.79
 1030.15        2963.50           2335        7616.00     33233.26
 1030.18        2963.75           2339        8692.00     37935.12
 1030.21        2964.00           2342        9544.00     41659.23
 1030.24        2964.25           2346       10513.00     45895.89
 1030.27        2964.50           2349       11399.00     49770.73
 1030.30        2964.75           2353       12375.00     54040.35
 1030.33        2965.00           2356       13266.00     57939.22
 1030.36        2965.25           2360       14263.00     62303.15
 1030.39        2965.50           2363       14937.00     65254.03
 1030.42        2965.75           2367       16128.00     70469.86
 1030.45        2966.00           2370       16872.00     73729.06
 1030.48        2966.25           2374       17573.00     76800.55
 1030.52        2966.50           2378       18243.00     79736.80
 1030.55        2966.75           2381       18447.00     80630.96
 1030.58        2967.00           2385       18358.00     80240.85
 1030.61        2967.25           2388       18352.00     80214.55
 1030.64        2967.50           2392       18379.00     80332.88
 1030.67        2967.75           2395       18486.00     80801.88
 1030.70        2968.00           2399       18215.00     79614.09
 1030.73        2968.25           2402       17535.00     76634.02
 1030.76        2968.50           2406       16624.00     72642.58
 1030.79        2968.75           2409       15691.00     68555.86
 1030.82        2969.00           2413       14496.00     63323.20
 1030.85        2969.25           2417       13423.00     58626.34
 1030.88        2969.50           2420       12544.00     54779.79
 1030.91        2969.75           2424       11506.00     50238.75
 1030.94        2970.00           2427       10630.00     46407.52
 1030.97        2970.25           2431        9535.00     41619.88
 1031.00        2970.50           2434        8668.00     37830.23
 1031.04        2970.75           2438        7594.00     33137.14
 1031.07        2971.00           2441        6785.00     29603.02
 1031.10        2971.25           2445        5685.00     24799.02
 1031.13        2971.50           2449        4650.00     20280.33
 1031.16        2971.75           2452        3855.00     16810.39
 1031.19        2972.00           2456        2813.00     12263.61
 1031.22        2972.25           2459        2046.00      8917.70
 1031.25        2972.50           2463        1059.00      4613.19
 1031.28        2972.75           2466         478.00      2079.92
 1031.31        2973.00           2470         158.00       684.85
 1031.34        2973.25           2473         115.00       497.39
 1031.37        2973.50           2477          98.00       423.28
 1031.40        2973.75           2481          90.00       388.41
 1031.43        2974.00           2484          78.00       336.10
 1031.46        2974.25           2488          84.00       362.25
 1031.49        2974.50           2491          86.00       370.97
 1031.52        2974.75           2495          80.00       344.82
 1031.56        2975.00           2498          78.00       336.10
 1031.59        2975.25           2502          65.00       279.43
 1031.62        2975.50           2505          74.00       318.66
 1031.65        2975.75           2509          70.00       301.22
 1031.68        2976.00           2512          72.00       309.94
 1031.71        2976.25           2516          72.00       309.94
 1031.74        2976.50           2520          75.00       323.02
 1031.77        2976.75           2523          70.00       301.22
 1031.80        2977.00           2527          73.00       314.30
 1031.83        2977.25           2530          64.00       275.07
 1031.86        2977.50           2534          73.00       314.30
 1031.89        2977.75           2537          64.00       275.07
 1031.92        2978.00           2541          62.00       266.35
 1031.95        2978.25           2544          73.00       314.30
 1031.98        2978.50           2548          67.00       288.15
 1032.01        2978.75           2552          66.00       283.79
 1032.04        2979.00           2555          63.00       270.71
 1032.08        2979.25           2559          62.00       266.35
 1032.11        2979.50           2562          69.00       296.86
 1032.14        2979.75           2566          65.00       279.43
 1032.17        2980.00           2569          62.00       266.35
 1032.20        2980.25           2573          64.00       275.07
 1032.23        2980.50           2577          67.00       288.15
 1032.26        2980.75           2580          58.00       248.91
 1032.29        2981.00           2584          58.00       248.91
 1032.32        2981.25           2587          61.00       261.99
 1032.35        2981.50           2591          64.00       275.07
 1032.38        2981.75           2594          54.00       231.48
 1032.41        2982.00           2598          55.00       235.83
 1032.44        2982.25           2601          54.00       231.48
 1032.47        2982.50           2605          57.00       244.55
 1032.50        2982.75           2609          57.00       244.55
 1032.53        2983.00           2612          56.00       240.19
 1032.56        2983.25           2616          61.00       261.99
 1032.60        2983.50           2619          54.00       231.48
 1032.63        2983.75           2623          55.00       235.83
 1032.66        2984.00           2626          59.00       253.27
HS scan finished at 17:12:53
end
