************************************************************
  HS Scan of (1) Internal mercury lamp
************************************************************
Integration time is 0.2294 seconds per sample
dh170118Reading 51.44 .94 2.47pr1000
************************************************************
Dead Time -------------------------  3.4E-08 
Number of Cycles Used -------------  4 
Starting Wavelength (Angstroms) ---  2950 
Final Wavelength (Angstoms) -------  2984 
Wavelength Increment (Angstroms) --  .25 
Filter Wheel #1 Position ---------- (1) Ground quartz diffuser (ND=2.32)
Filter Wheel #2 Position ---------- (1) Neutral Density 0.494



************************************************************
HS scan start time = 05:15:23
Dark Count =  .3 


Time (GMT)  Wavelength (Ang)  Step Number  Raw Counts  Counts/Second

  316.28        2950.00           2144          84.00       364.87
  316.47        2950.25           2147          89.00       386.67
  316.50        2950.50           2151          99.00       430.26
  316.53        2950.75           2155          91.00       395.38
  316.56        2951.00           2158          92.00       399.74
  316.60        2951.25           2162          94.00       408.46
  316.63        2951.50           2165          95.00       412.82
  316.66        2951.75           2169          88.00       382.31
  316.69        2952.00           2172          88.00       382.31
  316.72        2952.25           2176          87.00       377.95
  316.75        2952.50           2179          93.00       404.10
  316.78        2952.75           2183          87.00       377.95
  316.81        2953.00           2186          91.00       395.38
  316.84        2953.25           2190          89.00       386.67
  316.87        2953.50           2193          93.00       404.10
  316.90        2953.75           2197          88.00       382.31
  316.93        2954.00           2200          91.00       395.38
  316.96        2954.25           2204          97.00       421.54
  316.99        2954.50           2208          89.00       386.67
  317.02        2954.75           2211          95.00       412.82
  317.05        2955.00           2215         100.00       434.62
  317.08        2955.25           2218          99.00       430.26
  317.12        2955.50           2222          90.00       391.03
  317.15        2955.75           2225          98.00       425.90
  317.18        2956.00           2229         114.00       495.65
  317.21        2956.25           2232          88.00       382.31
  317.24        2956.50           2236         130.00       565.40
  317.27        2956.75           2239          99.00       430.26
  317.30        2957.00           2243         102.00       443.34
  317.33        2957.25           2246         104.00       452.06
  317.36        2957.50           2250          97.00       421.54
  317.39        2957.75           2254         105.00       456.42
  317.42        2958.00           2257         126.00       547.96
  317.45        2958.25           2261         101.00       438.98
  317.48        2958.50           2264          96.00       417.18
  317.51        2958.75           2268         125.00       543.60
  317.54        2959.00           2271         120.00       521.81
  317.57        2959.25           2275         119.00       517.45
  317.60        2959.50           2278         111.00       482.57
  317.64        2959.75           2282         107.00       465.13
  317.67        2960.00           2285         136.00       591.56
  317.70        2960.25           2289         129.00       561.04
  317.73        2960.50           2293         121.00       526.16
  317.76        2960.75           2296         139.00       604.63
  317.79        2961.00           2300         142.00       617.71
  317.82        2961.25           2303         259.00      1127.77
  317.85        2961.50           2307         880.00      3835.29
  317.88        2961.75           2310        1709.00      7450.45
  317.91        2962.00           2314        3109.00     13557.69
  317.94        2962.25           2317        4062.00     17716.42
  317.97        2962.50           2321        5442.00     23740.61
  318.00        2962.75           2324        6458.00     28177.38
  318.03        2963.00           2328        8013.00     34970.50
  318.07        2963.25           2331        9199.00     40153.74
  318.10        2963.50           2335       10673.00     46598.19
  318.13        2963.75           2339       12147.00     53045.46
  318.16        2964.00           2342       13202.00     57661.76
  318.19        2964.25           2346       14710.00     64262.76
  318.23        2964.50           2349       15769.00     68900.10
  318.26        2964.75           2353       17544.00     76676.10
  318.29        2965.00           2356       18709.00     81782.01
  318.32        2965.25           2360       20187.00     88262.29
  318.35        2965.50           2363       20945.00     91586.84
  318.38        2965.75           2367       22260.00     97356.16
  318.41        2966.00           2370       23220.00    101569.40
  318.44        2966.25           2374       24594.00    107601.80
  318.47        2966.50           2378       25409.00    111181.00
  318.50        2966.75           2381       25367.00    110996.60
  318.53        2967.00           2385       25259.00    110522.20
  318.56        2967.25           2388       25129.00    109951.20
  318.59        2967.50           2392       25064.00    109665.80
  318.62        2967.75           2395       24997.00    109371.50
  318.65        2968.00           2399       24232.00    106012.20
  318.68        2968.25           2402       23717.00    103751.10
  318.71        2968.50           2406       22175.00     96983.18
  318.74        2968.75           2409       21035.00     91981.62
  318.78        2969.00           2413       19537.00     85412.02
  318.81        2969.25           2417       18213.00     79607.95
  318.84        2969.50           2420       17167.00     75024.16
  318.87        2969.75           2424       15568.00     68019.81
  318.90        2970.00           2427       14450.00     63124.44
  318.93        2970.25           2431       12981.00     56694.63
  318.96        2970.50           2434       11679.00     50998.12
  318.99        2970.75           2438       10158.00     44346.24
  319.02        2971.00           2441        8990.00     39240.20
  319.05        2971.25           2445        7774.00     33926.21
  319.08        2971.50           2449        6300.00     27487.32
  319.11        2971.75           2452        5010.00     21854.51
  319.14        2972.00           2456        3664.00     15979.47
  319.17        2972.25           2459        2538.00     11066.50
  319.20        2972.50           2463        1409.00      6142.09
  319.23        2972.75           2466         714.00      3111.49
  319.26        2973.00           2470         239.00      1040.58
  319.30        2973.25           2473         139.00       604.63
  319.33        2973.50           2477         160.00       696.18
  319.36        2973.75           2481         121.00       526.16
  319.39        2974.00           2484         127.00       552.32
  319.42        2974.25           2488         143.00       622.07
  319.45        2974.50           2491         148.00       643.87
  319.48        2974.75           2495         109.00       473.85
  319.51        2975.00           2498         115.00       500.01
  319.54        2975.25           2502         107.00       465.13
  319.57        2975.50           2505         108.00       469.49
  319.60        2975.75           2509         169.00       735.42
  319.63        2976.00           2512         103.00       447.70
  319.66        2976.25           2516          99.00       430.26
  319.69        2976.50           2520         125.00       543.60
  319.72        2976.75           2523         103.00       447.70
  319.75        2977.00           2527          97.00       421.54
  319.78        2977.25           2530         126.00       547.96
  319.82        2977.50           2534          99.00       430.26
  319.85        2977.75           2537          87.00       377.95
  319.88        2978.00           2541         100.00       434.62
  319.91        2978.25           2544          92.00       399.74
  319.94        2978.50           2548          88.00       382.31
  319.97        2978.75           2552         108.00       469.49
  320.00        2979.00           2555          94.00       408.46
  320.03        2979.25           2559         105.00       456.42
  320.06        2979.50           2562          95.00       412.82
  320.09        2979.75           2566          92.00       399.74
  320.12        2980.00           2569          90.00       391.03
  320.15        2980.25           2573          90.00       391.03
  320.18        2980.50           2577          91.00       395.38
  320.21        2980.75           2580          89.00       386.67
  320.24        2981.00           2584          83.00       360.51
  320.27        2981.25           2587          91.00       395.38
  320.30        2981.50           2591          84.00       364.87
  320.34        2981.75           2594          87.00       377.95
  320.37        2982.00           2598          91.00       395.38
  320.40        2982.25           2601          82.00       356.15
  320.43        2982.50           2605          87.00       377.95
  320.46        2982.75           2609          76.00       329.99
  320.49        2983.00           2612          86.00       373.59
  320.52        2983.25           2616          92.00       399.74
  320.56        2983.50           2619          84.00       364.87
  320.59        2983.75           2623          89.00       386.67
  320.62        2984.00           2626          75.00       325.64
HS scan finished at 05:20:50
end
************************************************************
  HS Scan of (1) Internal mercury lamp
************************************************************
Integration time is 0.2294 seconds per sample
dh170118Reading 51.44 .94 2.76pr1000
************************************************************
Dead Time -------------------------  3.4E-08 
Number of Cycles Used -------------  4 
Starting Wavelength (Angstroms) ---  2950 
Final Wavelength (Angstoms) -------  2984 
Wavelength Increment (Angstroms) --  .25 
Filter Wheel #1 Position ---------- (1) Ground quartz diffuser (ND=2.32)
Filter Wheel #2 Position ---------- (1) Neutral Density 0.494



************************************************************
HS scan start time = 17:37:20
Dark Count =  .5 


Time (GMT)  Wavelength (Ang)  Step Number  Raw Counts  Counts/Second

 1058.24        2950.00           2144         123.00       534.01
 1058.43        2950.25           2147         116.00       503.50
 1058.46        2950.50           2151          82.00       355.28
 1058.49        2950.75           2155          79.00       342.20
 1058.52        2951.00           2158          81.00       350.92
 1058.55        2951.25           2162          91.00       394.51
 1058.58        2951.50           2165          76.00       329.12
 1058.61        2951.75           2169          82.00       355.28
 1058.64        2952.00           2172          84.00       364.00
 1058.67        2952.25           2176          71.00       307.33
 1058.70        2952.50           2179          82.00       355.28
 1058.74        2952.75           2183          73.00       316.05
 1058.77        2953.00           2186          78.00       337.84
 1058.80        2953.25           2190          85.00       368.36
 1058.83        2953.50           2193          87.00       377.08
 1058.86        2953.75           2197          90.00       390.15
 1058.89        2954.00           2200          79.00       342.20
 1058.92        2954.25           2204          85.00       368.36
 1058.95        2954.50           2208          80.00       346.56
 1058.98        2954.75           2211          86.00       372.72
 1059.01        2955.00           2215          80.00       346.56
 1059.04        2955.25           2218          86.00       372.72
 1059.07        2955.50           2222          88.00       381.43
 1059.10        2955.75           2225          83.00       359.64
 1059.13        2956.00           2229          79.00       342.20
 1059.16        2956.25           2232          89.00       385.79
 1059.19        2956.50           2236          79.00       342.20
 1059.22        2956.75           2239         102.00       442.47
 1059.26        2957.00           2243          82.00       355.28
 1059.29        2957.25           2246          87.00       377.08
 1059.32        2957.50           2250         106.00       459.90
 1059.35        2957.75           2254          87.00       377.08
 1059.38        2958.00           2257          96.00       416.31
 1059.41        2958.25           2261          84.00       364.00
 1059.44        2958.50           2264          96.00       416.31
 1059.47        2958.75           2268          95.00       411.95
 1059.50        2959.00           2271          95.00       411.95
 1059.53        2959.25           2275          96.00       416.31
 1059.56        2959.50           2278          91.00       394.51
 1059.59        2959.75           2282          95.00       411.95
 1059.62        2960.00           2285          96.00       416.31
 1059.65        2960.25           2289         108.00       468.62
 1059.68        2960.50           2293         126.00       547.09
 1059.71        2960.75           2296         102.00       442.47
 1059.74        2961.00           2300         141.00       612.48
 1059.78        2961.25           2303         282.00      1227.17
 1059.81        2961.50           2307         998.00      4348.94
 1059.84        2961.75           2310        1838.00      8012.21
 1059.87        2962.00           2314        3030.00     13212.12
 1059.90        2962.25           2317        4080.00     17794.11
 1059.93        2962.50           2321        5477.00     23892.55
 1059.96        2962.75           2324        6461.00     28189.61
 1059.99        2963.00           2328        7665.00     33449.10
 1060.02        2963.25           2331        8516.00     37167.69
 1060.05        2963.50           2335        9911.00     43265.43
 1060.08        2963.75           2339       11500.00     50214.26
 1060.11        2964.00           2342       12830.00     56032.99
 1060.14        2964.25           2346       14217.00     62103.53
 1060.17        2964.50           2349       15028.00     65654.24
 1060.20        2964.75           2353       16382.00     71584.22
 1060.23        2965.00           2356       17267.00     75461.46
 1060.26        2965.25           2360       18440.00     80602.02
 1060.30        2965.50           2363       19726.00     86239.86
 1060.33        2965.75           2367       21051.00     92050.94
 1060.36        2966.00           2370       21790.00     95292.99
 1060.39        2966.25           2374       23502.00    102806.40
 1060.42        2966.50           2378       24211.00    105919.10
 1060.45        2966.75           2381       24221.00    105963.00
 1060.48        2967.00           2385       24288.00    106257.20
 1060.51        2967.25           2388       24123.00    105532.70
 1060.54        2967.50           2392       24100.00    105431.80
 1060.57        2967.75           2395       23597.00    103223.40
 1060.60        2968.00           2399       22866.00    100014.80
 1060.63        2968.25           2402       21981.00     96131.04
 1060.66        2968.50           2406       20560.00     89897.28
 1060.69        2968.75           2409       19506.00     85275.22
 1060.72        2969.00           2413       18054.00     78910.21
 1060.75        2969.25           2417       16921.00     73945.50
 1060.78        2969.50           2420       15711.00     68645.21
 1060.82        2969.75           2424       14362.00     62738.31
 1060.85        2970.00           2427       13194.00     57625.88
 1060.88        2970.25           2431       12118.00     52917.71
 1060.91        2970.50           2434       10977.00     47926.77
 1060.94        2970.75           2438        9546.00     41669.72
 1060.97        2971.00           2441        8603.00     37547.90
 1061.00        2971.25           2445        7306.00     31880.66
 1061.03        2971.50           2449        5810.00     25346.60
 1061.06        2971.75           2452        4945.00     21569.87
 1061.09        2972.00           2456        3502.00     15271.66
 1061.12        2972.25           2459        2544.00     11091.80
 1061.15        2972.50           2463        1341.00      5844.67
 1061.18        2972.75           2466         597.00      2600.49
 1061.21        2973.00           2470         172.00       747.62
 1061.24        2973.25           2473         120.00       520.93
 1061.27        2973.50           2477         102.00       442.47
 1061.30        2973.75           2481         101.00       438.11
 1061.33        2974.00           2484         101.00       438.11
 1061.37        2974.25           2488          96.00       416.31
 1061.40        2974.50           2491          95.00       411.95
 1061.43        2974.75           2495          88.00       381.43
 1061.46        2975.00           2498          91.00       394.51
 1061.49        2975.25           2502          95.00       411.95
 1061.52        2975.50           2505          92.00       398.87
 1061.55        2975.75           2509          89.00       385.79
 1061.58        2976.00           2512          92.00       398.87
 1061.61        2976.25           2516          86.00       372.72
 1061.64        2976.50           2520          92.00       398.87
 1061.67        2976.75           2523          76.00       329.12
 1061.70        2977.00           2527          89.00       385.79
 1061.73        2977.25           2530          88.00       381.43
 1061.76        2977.50           2534          76.00       329.12
 1061.79        2977.75           2537          72.00       311.69
 1061.82        2978.00           2541          80.00       346.56
 1061.86        2978.25           2544          84.00       364.00
 1061.89        2978.50           2548          79.00       342.20
 1061.92        2978.75           2552          80.00       346.56
 1061.95        2979.00           2555          76.00       329.12
 1061.98        2979.25           2559          70.00       302.97
 1062.01        2979.50           2562          75.00       324.76
 1062.04        2979.75           2566          71.00       307.33
 1062.07        2980.00           2569          78.00       337.84
 1062.10        2980.25           2573          75.00       324.76
 1062.13        2980.50           2577          63.00       272.45
 1062.16        2980.75           2580          66.00       285.53
 1062.19        2981.00           2584          73.00       316.05
 1062.22        2981.25           2587          68.00       294.25
 1062.25        2981.50           2591          71.00       307.33
 1062.28        2981.75           2594          78.00       337.84
 1062.31        2982.00           2598          65.00       281.17
 1062.34        2982.25           2601          66.00       285.53
 1062.38        2982.50           2605          75.00       324.76
 1062.41        2982.75           2609          73.00       316.05
 1062.44        2983.00           2612          67.00       289.89
 1062.47        2983.25           2616          68.00       294.25
 1062.50        2983.50           2619          71.00       307.33
 1062.53        2983.75           2623          64.00       276.81
 1062.56        2984.00           2626          68.00       294.25
HS scan finished at 17:42:47
end
