************************************************************
  HS Scan of 
************************************************************
Integration time is 0.2294 seconds per sample
dh100117Reading 51.44 .94 2.62pr1000
************************************************************
Dead Time -------------------------  3.4E-08 
Number of Cycles Used -------------  4 
Starting Wavelength (Angstroms) ---  2950 
Final Wavelength (Angstoms) -------  2984 
Wavelength Increment (Angstroms) --  .25 
Filter Wheel #1 Position ---------- (1) Ground quartz diffuser (ND=2.32)
Filter Wheel #2 Position ---------- (1) Neutral Density 0.494



************************************************************
HS scan start time = 05:15:29
Dark Count =  .5 


Time (GMT)  Wavelength (Ang)  Step Number  Raw Counts  Counts/Second

  316.38        2950.00           2144         808.00      3520.47
  316.58        2950.25           2147         825.00      3594.60
  316.61        2950.50           2151         833.00      3629.48
  316.64        2950.75           2155         805.00      3507.39
  316.67        2951.00           2158         848.00      3694.88
  316.70        2951.25           2162         806.00      3511.75
  316.73        2951.50           2165         825.00      3594.60
  316.76        2951.75           2169         870.00      3790.81
  316.79        2952.00           2172         827.00      3603.32
  316.82        2952.25           2176         870.00      3790.81
  316.85        2952.50           2179         856.00      3729.77
  316.88        2952.75           2183         873.00      3803.89
  316.91        2953.00           2186         856.00      3729.77
  316.94        2953.25           2190         854.00      3721.05
  316.97        2953.50           2193         855.00      3725.41
  317.00        2953.75           2197         869.00      3786.45
  317.03        2954.00           2200         865.00      3769.01
  317.07        2954.25           2204         872.00      3799.53
  317.10        2954.50           2208         887.00      3864.94
  317.13        2954.75           2211         866.00      3773.37
  317.16        2955.00           2215         917.00      3995.75
  317.19        2955.25           2218         885.00      3856.22
  317.22        2955.50           2222         902.00      3930.34
  317.25        2955.75           2225         894.00      3895.46
  317.28        2956.00           2229         914.00      3982.67
  317.31        2956.25           2232         876.00      3816.97
  317.34        2956.50           2236         917.00      3995.75
  317.37        2956.75           2239         890.00      3878.02
  317.40        2957.00           2243         921.00      4013.19
  317.43        2957.25           2246         951.00      4144.00
  317.46        2957.50           2250         933.00      4065.51
  317.49        2957.75           2254         942.00      4104.76
  317.52        2958.00           2257         952.00      4148.36
  317.55        2958.25           2261         959.00      4178.89
  317.59        2958.50           2264         969.00      4222.49
  317.62        2958.75           2268         977.00      4257.37
  317.65        2959.00           2271         984.00      4287.90
  317.68        2959.25           2275         969.00      4222.49
  317.71        2959.50           2278         992.00      4322.78
  317.74        2959.75           2282         996.00      4340.22
  317.77        2960.00           2285        1034.00      4505.92
  317.80        2960.25           2289        1031.00      4492.84
  317.83        2960.50           2293        1054.00      4593.13
  317.86        2960.75           2296        1087.00      4737.03
  317.89        2961.00           2300        1122.00      4889.65
  317.92        2961.25           2303        1305.00      5687.67
  317.95        2961.50           2307        3433.00     14970.57
  317.98        2961.75           2310        8068.00     35209.95
  318.01        2962.00           2314       17664.00     77201.07
  318.04        2962.25           2317       25942.00    113521.50
  318.07        2962.50           2321       36950.00    161959.60
  318.11        2962.75           2324       44841.00    196780.80
  318.14        2963.00           2328       55326.00    243177.10
  318.17        2963.25           2331       63814.00    280844.60
  318.20        2963.50           2335       75980.00    335003.80
  318.23        2963.75           2339       88730.00    391978.90
  318.26        2964.00           2342       98329.00    435020.30
  318.29        2964.25           2346      110547.00    489989.60
  318.32        2964.50           2349      118597.00    526320.30
  318.35        2964.75           2353      130130.00    578528.70
  318.38        2965.00           2356      138939.00    618532.40
  318.41        2965.25           2360      151614.00    676286.20
  318.44        2965.50           2363      160044.00    714825.10
  318.47        2965.75           2367      170370.00    762171.50
  318.50        2966.00           2370      178761.00    800759.60
  318.53        2966.25           2374      188796.00    847043.50
  318.56        2966.50           2378      197362.00    886669.20
  318.59        2966.75           2381      199674.00    897382.90
  318.63        2967.00           2385      200456.00    901008.50
  318.66        2967.25           2388      200262.00    900108.90
  318.69        2967.50           2392      200196.00    899802.90
  318.72        2967.75           2395      200233.00    899974.60
  318.75        2968.00           2399      197415.00    886914.60
  318.78        2968.25           2402      191988.00    861796.80
  318.81        2968.50           2406      182553.00    818232.00
  318.84        2968.75           2409      173732.00    777620.10
  318.87        2969.00           2413      161863.00    723154.30
  318.90        2969.25           2417      150039.00    669097.20
  318.93        2969.50           2420      141318.00    629354.80
  318.96        2969.75           2424      129485.00    575603.90
  318.99        2970.00           2427      121242.00    538277.30
  319.02        2970.25           2431      109335.00    484527.50
  319.05        2970.50           2434       99924.00    442184.50
  319.08        2970.75           2438       87770.00    387681.20
  319.11        2971.00           2441       79188.00    349318.30
  319.15        2971.25           2445       67156.00    295702.20
  319.18        2971.50           2449       55065.00    242020.40
  319.21        2971.75           2452       46468.00    203970.70
  319.24        2972.00           2456       35523.00    155671.40
  319.27        2972.25           2459       27366.00    119778.40
  319.30        2972.50           2463       15846.00     69236.46
  319.33        2972.75           2466        7908.00     34510.83
  319.36        2973.00           2470        2469.00     10764.62
  319.39        2973.25           2473        1388.00      6049.63
  319.42        2973.50           2477        1192.00      5194.90
  319.45        2973.75           2481        1103.00      4806.80
  319.48        2974.00           2484        1114.00      4854.77
  319.51        2974.25           2488        1074.00      4680.34
  319.54        2974.50           2491        1022.00      4453.60
  319.57        2974.75           2495        1005.00      4379.47
  319.60        2975.00           2498        1023.00      4457.96
  319.63        2975.25           2502        1002.00      4366.39
  319.67        2975.50           2505         977.00      4257.37
  319.70        2975.75           2509         982.00      4279.18
  319.73        2976.00           2512         956.00      4165.80
  319.76        2976.25           2516         973.00      4239.93
  319.79        2976.50           2520         966.00      4209.41
  319.82        2976.75           2523         952.00      4148.36
  319.85        2977.00           2527         916.00      3991.39
  319.88        2977.25           2530         919.00      4004.47
  319.91        2977.50           2534         950.00      4139.64
  319.94        2977.75           2537         908.00      3956.50
  319.97        2978.00           2541         873.00      3803.89
  320.00        2978.25           2544         900.00      3921.62
  320.03        2978.50           2548         871.00      3795.17
  320.06        2978.75           2552         872.00      3799.53
  320.09        2979.00           2555         890.00      3878.02
  320.12        2979.25           2559         863.00      3760.29
  320.15        2979.50           2562         888.00      3869.30
  320.19        2979.75           2566         845.00      3681.80
  320.22        2980.00           2569         857.00      3734.13
  320.25        2980.25           2573         819.00      3568.44
  320.28        2980.50           2577         858.00      3738.49
  320.31        2980.75           2580         850.00      3703.60
  320.34        2981.00           2584         834.00      3633.84
  320.37        2981.25           2587         827.00      3603.32
  320.40        2981.50           2591         825.00      3594.60
  320.43        2981.75           2594         832.00      3625.12
  320.46        2982.00           2598         832.00      3625.12
  320.49        2982.25           2601         858.00      3738.49
  320.52        2982.50           2605         827.00      3603.32
  320.55        2982.75           2609         805.00      3507.39
  320.58        2983.00           2612         819.00      3568.44
  320.61        2983.25           2616         791.00      3446.35
  320.64        2983.50           2619         801.00      3489.95
  320.67        2983.75           2623         802.00      3494.31
  320.70        2984.00           2626         813.00      3542.28
HS scan finished at 05:20:56
end
************************************************************
  HS Scan of 
************************************************************
Integration time is 0.2294 seconds per sample
dh100117Reading 51.44 .94 3.01pr1000
************************************************************
Dead Time -------------------------  3.4E-08 
Number of Cycles Used -------------  4 
Starting Wavelength (Angstroms) ---  2950 
Final Wavelength (Angstoms) -------  2984 
Wavelength Increment (Angstroms) --  .25 
Filter Wheel #1 Position ---------- (1) Ground quartz diffuser (ND=2.32)
Filter Wheel #2 Position ---------- (1) Neutral Density 0.494



************************************************************
HS scan start time = 17:07:20
Dark Count =  1.1 


Time (GMT)  Wavelength (Ang)  Step Number  Raw Counts  Counts/Second

 1028.23        2950.00           2144         769.00      3347.81
 1028.42        2950.25           2147         753.00      3278.05
 1028.45        2950.50           2151         794.00      3456.81
 1028.48        2950.75           2155         773.00      3365.25
 1028.52        2951.00           2158         774.00      3369.61
 1028.55        2951.25           2162         774.00      3369.61
 1028.58        2951.50           2165         781.00      3400.13
 1028.61        2951.75           2169         787.00      3426.29
 1028.64        2952.00           2172         779.00      3391.41
 1028.67        2952.25           2176         788.00      3430.65
 1028.70        2952.50           2179         776.00      3378.33
 1028.73        2952.75           2183         800.00      3482.98
 1028.76        2953.00           2186         777.00      3382.69
 1028.79        2953.25           2190         774.00      3369.61
 1028.82        2953.50           2193         824.00      3587.62
 1028.85        2953.75           2197         794.00      3456.81
 1028.88        2954.00           2200         816.00      3552.74
 1028.91        2954.25           2204         802.00      3491.70
 1028.94        2954.50           2208         815.00      3548.38
 1028.97        2954.75           2211         807.00      3513.50
 1029.00        2955.00           2215         833.00      3626.86
 1029.04        2955.25           2218         837.00      3644.31
 1029.07        2955.50           2222         804.00      3500.42
 1029.10        2955.75           2225         827.00      3600.70
 1029.13        2956.00           2229         838.00      3648.67
 1029.16        2956.25           2232         843.00      3670.47
 1029.19        2956.50           2236         880.00      3831.80
 1029.22        2956.75           2239         847.00      3687.91
 1029.25        2957.00           2243         849.00      3696.63
 1029.28        2957.25           2246         832.00      3622.50
 1029.31        2957.50           2250         846.00      3683.55
 1029.34        2957.75           2254         847.00      3687.91
 1029.37        2958.00           2257         898.00      3910.28
 1029.40        2958.25           2261         871.00      3792.56
 1029.43        2958.50           2264         888.00      3866.68
 1029.46        2958.75           2268         910.00      3962.61
 1029.49        2959.00           2271         933.00      4062.90
 1029.52        2959.25           2275         912.00      3971.33
 1029.56        2959.50           2278         925.00      4028.01
 1029.59        2959.75           2282         937.00      4080.34
 1029.62        2960.00           2285         949.00      4132.66
 1029.65        2960.25           2289         977.00      4254.76
 1029.68        2960.50           2293         974.00      4241.68
 1029.71        2960.75           2296        1002.00      4363.77
 1029.74        2961.00           2300        1077.00      4690.81
 1029.77        2961.25           2303        1325.00      5772.28
 1029.80        2961.50           2307        3731.00     16268.37
 1029.83        2961.75           2310        8714.00     38030.40
 1029.86        2962.00           2314       17932.00     78372.91
 1029.89        2962.25           2317       25983.00    113698.90
 1029.92        2962.50           2321       37463.00    164218.20
 1029.95        2962.75           2324       45759.00    200834.40
 1029.98        2963.00           2328       56327.00    247611.60
 1030.01        2963.25           2331       64626.00    284450.50
 1030.04        2963.50           2335       75519.00    332945.20
 1030.08        2963.75           2339       88319.00    390136.10
 1030.11        2964.00           2342       97601.00    431748.80
 1030.14        2964.25           2346      109499.00    485263.70
 1030.17        2964.50           2349      117492.00    521325.20
 1030.20        2964.75           2353      128000.00    568869.70
 1030.23        2965.00           2356      136735.00    608510.60
 1030.26        2965.25           2360      148275.00    661047.10
 1030.29        2965.50           2363      155847.00    695622.50
 1030.32        2965.75           2367      166209.00    743071.30
 1030.35        2966.00           2370      174214.00    779833.60
 1030.38        2966.25           2374      183663.00    823347.60
 1030.41        2966.50           2378      190109.00    853107.50
 1030.44        2966.75           2381      191771.00    860790.50
 1030.47        2967.00           2385      192453.00    863944.60
 1030.50        2967.25           2388      192655.00    864878.80
 1030.53        2967.50           2392      192563.00    864453.20
 1030.56        2967.75           2395      192447.00    863916.70
 1030.60        2968.00           2399      189303.00    849383.10
 1030.63        2968.25           2402      183946.00    824652.90
 1030.67        2968.50           2406      175716.00    786741.80
 1030.70        2968.75           2409      168350.00    752894.60
 1030.73        2969.00           2413      157965.00    705308.40
 1030.76        2969.25           2417      146466.00    652798.90
 1030.79        2969.50           2420      138209.00    615210.50
 1030.82        2969.75           2424      127738.00    567682.30
 1030.85        2970.00           2427      119161.00    528866.40
 1030.88        2970.25           2431      107480.00    476168.80
 1030.91        2970.50           2434       98853.00    437370.90
 1030.94        2970.75           2438       87657.00    387172.70
 1030.98        2971.00           2441       78602.00    346699.70
 1031.01        2971.25           2445       66411.00    292386.20
 1031.04        2971.50           2449       54966.00    241579.00
 1031.07        2971.75           2452       46601.00    204555.90
 1031.10        2972.00           2456       35732.00    156589.50
 1031.13        2972.25           2459       27686.00    121182.20
 1031.16        2972.50           2463       16522.00     72194.87
 1031.19        2972.75           2466        8957.00     39092.47
 1031.22        2973.00           2470        2733.00     11913.72
 1031.25        2973.25           2473        1309.00      5702.50
 1031.28        2973.50           2477        1097.00      4778.02
 1031.31        2973.75           2481        1023.00      4455.34
 1031.34        2974.00           2484        1034.00      4503.30
 1031.37        2974.25           2488        1024.00      4459.70
 1031.40        2974.50           2491         947.00      4123.94
 1031.43        2974.75           2495         953.00      4150.11
 1031.46        2975.00           2498         962.00      4189.35
 1031.50        2975.25           2502         943.00      4106.50
 1031.53        2975.50           2505         921.00      4010.57
 1031.56        2975.75           2509         900.00      3919.01
 1031.59        2976.00           2512         863.00      3757.67
 1031.62        2976.25           2516         890.00      3875.40
 1031.65        2976.50           2520         851.00      3705.35
 1031.68        2976.75           2523         875.00      3810.00
 1031.71        2977.00           2527         866.00      3770.75
 1031.74        2977.25           2530         856.00      3727.15
 1031.77        2977.50           2534         824.00      3587.62
 1031.80        2977.75           2537         836.00      3639.95
 1031.83        2978.00           2541         820.00      3570.18
 1031.86        2978.25           2544         824.00      3587.62
 1031.89        2978.50           2548         801.00      3487.34
 1031.92        2978.75           2552         828.00      3605.06
 1031.95        2979.00           2555         829.00      3609.42
 1031.98        2979.25           2559         814.00      3544.02
 1032.02        2979.50           2562         799.00      3478.62
 1032.05        2979.75           2566         831.00      3618.14
 1032.08        2980.00           2569         810.00      3526.58
 1032.11        2980.25           2573         796.00      3465.54
 1032.14        2980.50           2577         777.00      3382.69
 1032.17        2980.75           2580         802.00      3491.70
 1032.20        2981.00           2584         746.00      3247.53
 1032.23        2981.25           2587         788.00      3430.65
 1032.26        2981.50           2591         780.00      3395.77
 1032.29        2981.75           2594         817.00      3557.10
 1032.32        2982.00           2598         777.00      3382.69
 1032.35        2982.25           2601         773.00      3365.25
 1032.38        2982.50           2605         767.00      3339.09
 1032.41        2982.75           2609         743.00      3234.44
 1032.44        2983.00           2612         767.00      3339.09
 1032.47        2983.25           2616         802.00      3491.70
 1032.50        2983.50           2619         758.00      3299.85
 1032.54        2983.75           2623         760.00      3308.57
 1032.57        2984.00           2626         735.00      3199.56
HS scan finished at 17:12:47
end
