************************************************************
  HS Scan of 
************************************************************
Integration time is 0.2294 seconds per sample
dh180117Reading 51.44 .94 2.23pr1000
************************************************************
Dead Time -------------------------  3.4E-08 
Number of Cycles Used -------------  4 
Starting Wavelength (Angstroms) ---  2950 
Final Wavelength (Angstoms) -------  2984 
Wavelength Increment (Angstroms) --  .25 
Filter Wheel #1 Position ---------- (1) Ground quartz diffuser (ND=2.32)
Filter Wheel #2 Position ---------- (1) Neutral Density 0.494



************************************************************
HS scan start time = 05:14:34
Dark Count =  .2 


Time (GMT)  Wavelength (Ang)  Step Number  Raw Counts  Counts/Second

  315.47        2950.00           2144         898.00      3914.21
  315.66        2950.25           2147         895.00      3901.13
  315.69        2950.50           2151         912.00      3975.25
  315.72        2950.75           2155         918.00      4001.42
  315.75        2951.00           2158         949.00      4136.59
  315.78        2951.25           2162         899.00      3918.57
  315.81        2951.50           2165         909.00      3962.17
  315.84        2951.75           2169         922.00      4018.86
  315.87        2952.00           2172         919.00      4005.78
  315.91        2952.25           2176         892.00      3888.05
  315.94        2952.50           2179         892.00      3888.05
  315.97        2952.75           2183         926.00      4036.30
  316.00        2953.00           2186         928.00      4045.02
  316.03        2953.25           2190         936.00      4079.90
  316.06        2953.50           2193         914.00      3983.97
  316.09        2953.75           2197         936.00      4079.90
  316.12        2954.00           2200         917.00      3997.06
  316.15        2954.25           2204         953.00      4154.03
  316.18        2954.50           2208         958.00      4175.83
  316.21        2954.75           2211         934.00      4071.18
  316.24        2955.00           2215         916.00      3992.70
  316.27        2955.25           2218         936.00      4079.90
  316.30        2955.50           2222         950.00      4140.95
  316.33        2955.75           2225         953.00      4154.03
  316.36        2956.00           2229         960.00      4184.55
  316.40        2956.25           2232         979.00      4267.40
  316.43        2956.50           2236         992.00      4324.09
  316.46        2956.75           2239         966.00      4210.72
  316.49        2957.00           2243         988.00      4306.65
  316.52        2957.25           2246         992.00      4324.09
  316.55        2957.50           2250        1006.00      4385.14
  316.58        2957.75           2254        1020.00      4446.18
  316.62        2958.00           2257        1012.00      4411.30
  316.65        2958.25           2261        1036.00      4515.95
  316.68        2958.50           2264        1029.00      4485.43
  316.71        2958.75           2268        1028.00      4481.07
  316.74        2959.00           2271        1034.00      4507.23
  316.77        2959.25           2275        1064.00      4638.05
  316.80        2959.50           2278        1047.00      4563.92
  316.83        2959.75           2282        1066.00      4646.77
  316.86        2960.00           2285        1085.00      4729.62
  316.89        2960.25           2289        1090.00      4751.42
  316.92        2960.50           2293        1152.00      5021.78
  316.95        2960.75           2296        1154.00      5030.50
  316.98        2961.00           2300        1230.00      5361.92
  317.01        2961.25           2303        1479.00      6447.80
  317.04        2961.50           2307        4592.00     20030.20
  317.07        2961.75           2310       10823.00     47254.59
  317.10        2962.00           2314       21792.00     95303.09
  317.14        2962.25           2317       29969.00    131224.10
  317.17        2962.50           2321       40174.00    176177.70
  317.20        2962.75           2324       48438.00    212682.40
  317.23        2963.00           2328       60282.00    265160.10
  317.26        2963.25           2331       69587.00    306520.50
  317.29        2963.50           2335       82374.00    363549.80
  317.32        2963.75           2339       93263.00    412290.10
  317.35        2964.00           2342      101668.00    450023.40
  317.38        2964.25           2346      114450.00    507594.40
  317.42        2964.50           2349      124021.00    550852.00
  317.46        2964.75           2353      136171.00    605951.80
  317.49        2965.00           2356      144308.00    642969.60
  317.52        2965.25           2360      155716.00    695027.60
  317.55        2965.50           2363      163834.00    732186.30
  317.58        2965.75           2367      175464.00    785586.60
  317.61        2966.00           2370      182282.00    816984.00
  317.65        2966.25           2374      191669.00    860323.10
  317.68        2966.50           2378      198577.00    892299.80
  317.71        2966.75           2381      200259.00    900096.40
  317.74        2967.00           2385      200764.00    902438.00
  317.77        2967.25           2388      200585.00    901608.10
  317.80        2967.50           2392      200332.00    900434.90
  317.83        2967.75           2395      200064.00    899192.30
  317.86        2968.00           2399      196044.00    880566.50
  317.89        2968.25           2402      189005.00    848010.40
  317.92        2968.50           2406      178679.00    800383.50
  317.95        2968.75           2409      169902.00    760023.60
  317.98        2969.00           2413      159481.00    712249.40
  318.01        2969.25           2417      148595.00    662510.60
  318.04        2969.50           2420      140831.00    627140.10
  318.07        2969.75           2424      129581.00    576040.60
  318.11        2970.00           2427      120629.00    535506.70
  318.14        2970.25           2431      108240.00    479595.70
  318.17        2970.50           2434       99492.00    440245.10
  318.20        2970.75           2438       87731.00    387507.90
  318.23        2971.00           2441       78579.00    346601.10
  318.26        2971.25           2445       67061.00    295281.00
  318.29        2971.50           2449       55942.00    245908.80
  318.32        2971.75           2452       48314.00    212134.00
  318.35        2972.00           2456       37182.00    162983.50
  318.38        2972.25           2459       27544.00    120562.10
  318.41        2972.50           2463       15267.00     66702.10
  318.44        2972.75           2466        8230.00     35919.17
  318.47        2973.00           2470        2866.00     12497.90
  318.50        2973.25           2473        1600.00      6975.50
  318.53        2973.50           2477        1230.00      5361.92
  318.56        2973.75           2481        1146.00      4995.62
  318.59        2974.00           2484        1141.00      4973.81
  318.63        2974.25           2488        1139.00      4965.09
  318.66        2974.50           2491        1117.00      4869.16
  318.69        2974.75           2495        1102.00      4803.75
  318.72        2975.00           2498        1065.00      4642.41
  318.75        2975.25           2502        1042.00      4542.11
  318.78        2975.50           2505        1043.00      4546.47
  318.81        2975.75           2509        1029.00      4485.43
  318.84        2976.00           2512        1007.00      4389.50
  318.87        2976.25           2516        1008.00      4393.86
  318.90        2976.50           2520        1018.00      4437.46
  318.93        2976.75           2523         987.00      4302.29
  318.96        2977.00           2527         958.00      4175.83
  318.99        2977.25           2530         998.00      4350.25
  319.02        2977.50           2534         972.00      4236.88
  319.05        2977.75           2537         955.00      4162.75
  319.08        2978.00           2541         942.00      4106.07
  319.11        2978.25           2544         940.00      4097.35
  319.15        2978.50           2548         923.00      4023.22
  319.18        2978.75           2552         947.00      4127.87
  319.21        2979.00           2555         948.00      4132.23
  319.24        2979.25           2559         954.00      4158.39
  319.27        2979.50           2562         912.00      3975.25
  319.30        2979.75           2566         928.00      4045.02
  319.33        2980.00           2569         911.00      3970.89
  319.36        2980.25           2573         876.00      3818.28
  319.39        2980.50           2577         894.00      3896.77
  319.43        2980.75           2580         890.00      3879.33
  319.46        2981.00           2584         884.00      3853.16
  319.49        2981.25           2587         888.00      3870.61
  319.52        2981.50           2591         891.00      3883.69
  319.55        2981.75           2594         863.00      3761.60
  319.58        2982.00           2598         877.00      3822.64
  319.61        2982.25           2601         881.00      3840.08
  319.64        2982.50           2605         866.00      3774.68
  319.67        2982.75           2609         864.00      3765.96
  319.70        2983.00           2612         844.00      3678.75
  319.73        2983.25           2616         859.00      3744.16
  319.76        2983.50           2619         874.00      3809.56
  319.79        2983.75           2623         842.00      3670.03
  319.82        2984.00           2626         859.00      3744.16
HS scan finished at 05:20:03
end
************************************************************
  HS Scan of 
************************************************************
Integration time is 0.2294 seconds per sample
dh180117Reading 51.44 .94 2.76pr1000
************************************************************
Dead Time -------------------------  3.4E-08 
Number of Cycles Used -------------  4 
Starting Wavelength (Angstroms) ---  2950 
Final Wavelength (Angstoms) -------  2984 
Wavelength Increment (Angstroms) --  .25 
Filter Wheel #1 Position ---------- (1) Ground quartz diffuser (ND=2.32)
Filter Wheel #2 Position ---------- (1) Neutral Density 0.494



************************************************************
HS scan start time = 17:37:21
Dark Count =  .4 


Time (GMT)  Wavelength (Ang)  Step Number  Raw Counts  Counts/Second

 1058.24        2950.00           2144         812.00      3538.35
 1058.44        2950.25           2147         817.00      3560.15
 1058.47        2950.50           2151         817.00      3560.15
 1058.50        2950.75           2155         825.00      3595.03
 1058.53        2951.00           2158         822.00      3581.95
 1058.56        2951.25           2162         800.00      3486.03
 1058.59        2951.50           2165         836.00      3643.00
 1058.62        2951.75           2169         826.00      3599.39
 1058.65        2952.00           2172         841.00      3664.80
 1058.68        2952.25           2176         829.00      3612.48
 1058.71        2952.50           2179         833.00      3629.92
 1058.74        2952.75           2183         846.00      3686.60
 1058.77        2953.00           2186         817.00      3560.15
 1058.80        2953.25           2190         859.00      3743.28
 1058.83        2953.50           2193         848.00      3695.32
 1058.87        2953.75           2197         867.00      3778.17
 1058.90        2954.00           2200         858.00      3738.92
 1058.93        2954.25           2204         831.00      3621.20
 1058.96        2954.50           2208         821.00      3577.59
 1058.99        2954.75           2211         846.00      3686.60
 1059.02        2955.00           2215         842.00      3669.16
 1059.05        2955.25           2218         872.00      3799.97
 1059.08        2955.50           2222         894.00      3895.90
 1059.11        2955.75           2225         903.00      3935.14
 1059.14        2956.00           2229         883.00      3847.93
 1059.17        2956.25           2232         876.00      3817.41
 1059.20        2956.50           2236         879.00      3830.49
 1059.23        2956.75           2239         893.00      3891.54
 1059.26        2957.00           2243         914.00      3983.10
 1059.29        2957.25           2246         895.00      3900.26
 1059.32        2957.50           2250         936.00      4079.03
 1059.35        2957.75           2254         892.00      3887.17
 1059.39        2958.00           2257         902.00      3930.78
 1059.42        2958.25           2261         928.00      4044.15
 1059.45        2958.50           2264         969.00      4222.93
 1059.48        2958.75           2268         996.00      4340.66
 1059.51        2959.00           2271         977.00      4257.81
 1059.54        2959.25           2275         972.00      4236.01
 1059.57        2959.50           2278         997.00      4345.02
 1059.60        2959.75           2282         964.00      4201.12
 1059.63        2960.00           2285        1017.00      4432.23
 1059.66        2960.25           2289        1034.00      4506.36
 1059.69        2960.50           2293        1013.00      4414.79
 1059.72        2960.75           2296        1047.00      4563.04
 1059.75        2961.00           2300        1086.00      4733.11
 1059.78        2961.25           2303        1312.00      5718.64
 1059.81        2961.50           2307        3759.00     16393.62
 1059.84        2961.75           2310        8211.00     35835.27
 1059.87        2962.00           2314       17185.00     75102.60
 1059.90        2962.25           2317       25583.00    111944.90
 1059.94        2962.50           2321       37453.00    164177.20
 1059.97        2962.75           2324       45894.00    201434.20
 1060.00        2963.00           2328       56770.00    249578.80
 1060.03        2963.25           2331       64900.00    285671.50
 1060.06        2963.50           2335       75818.00    334281.70
 1060.09        2963.75           2339       88111.00    389208.10
 1060.12        2964.00           2342       97257.00    430207.70
 1060.15        2964.25           2346      109539.00    485447.20
 1060.18        2964.50           2349      117760.00    522539.10
 1060.21        2964.75           2353      128486.00    571075.60
 1060.24        2965.00           2356      135937.00    604887.70
 1060.27        2965.25           2360      147144.00    655892.80
 1060.30        2965.50           2363      155740.00    695136.40
 1060.33        2965.75           2367      166780.00    745693.60
 1060.36        2966.00           2370      174604.00    781630.10
 1060.39        2966.25           2374      183749.00    823747.50
 1060.42        2966.50           2378      190376.00    854344.70
 1060.46        2966.75           2381      191947.00    861607.50
 1060.49        2967.00           2385      192470.00    864026.30
 1060.52        2967.25           2388      192546.00    864377.80
 1060.55        2967.50           2392      192373.00    863577.70
 1060.58        2967.75           2395      192145.00    862523.20
 1060.61        2968.00           2399      189302.00    849381.60
 1060.64        2968.25           2402      183200.00    821215.60
 1060.67        2968.50           2406      174465.00    780991.00
 1060.70        2968.75           2409      167886.00    750768.30
 1060.73        2969.00           2413      157373.00    702603.60
 1060.76        2969.25           2417      145769.00    649625.40
 1060.79        2969.50           2420      137092.00    610136.00
 1060.82        2969.75           2424      126519.00    562162.50
 1060.85        2970.00           2427      118657.00    526591.90
 1060.88        2970.25           2431      107456.00    476063.90
 1060.91        2970.50           2434       99346.00    439588.40
 1060.94        2970.75           2438       87469.00    386334.40
 1060.98        2971.00           2441       77836.00    343284.20
 1061.01        2971.25           2445       65793.00    289641.30
 1061.04        2971.50           2449       54857.00    241099.10
 1061.07        2971.75           2452       46920.00    205969.20
 1061.10        2972.00           2456       36249.00    158870.70
 1061.13        2972.25           2459       27744.00    121440.20
 1061.16        2972.50           2463       17123.00     74830.96
 1061.19        2972.75           2466        9427.00     41149.95
 1061.22        2973.00           2470        2705.00     11794.62
 1061.25        2973.25           2473        1326.00      5779.69
 1061.28        2973.50           2477        1096.00      4776.71
 1061.31        2973.75           2481        1053.00      4589.21
 1061.34        2974.00           2484        1051.00      4580.49
 1061.37        2974.25           2488        1058.00      4611.01
 1061.40        2974.50           2491        1025.00      4467.11
 1061.43        2974.75           2495        1014.00      4419.15
 1061.46        2975.00           2498        1015.00      4423.51
 1061.50        2975.25           2502         984.00      4288.33
 1061.53        2975.50           2505         989.00      4310.13
 1061.56        2975.75           2509         955.00      4161.88
 1061.59        2976.00           2512         942.00      4105.19
 1061.62        2976.25           2516         931.00      4057.23
 1061.65        2976.50           2520         873.00      3804.33
 1061.68        2976.75           2523         930.00      4052.87
 1061.71        2977.00           2527         904.00      3939.50
 1061.74        2977.25           2530         904.00      3939.50
 1061.77        2977.50           2534         887.00      3865.37
 1061.80        2977.75           2537         905.00      3943.86
 1061.83        2978.00           2541         915.00      3987.46
 1061.86        2978.25           2544         840.00      3660.44
 1061.89        2978.50           2548         862.00      3756.36
 1061.92        2978.75           2552         869.00      3786.89
 1061.95        2979.00           2555         859.00      3743.28
 1061.98        2979.25           2559         804.00      3503.47
 1062.02        2979.50           2562         844.00      3677.88
 1062.05        2979.75           2566         864.00      3765.09
 1062.08        2980.00           2569         829.00      3612.48
 1062.11        2980.25           2573         830.00      3616.84
 1062.14        2980.50           2577         806.00      3512.19
 1062.17        2980.75           2580         837.00      3647.36
 1062.20        2981.00           2584         848.00      3695.32
 1062.23        2981.25           2587         805.00      3507.83
 1062.26        2981.50           2591         812.00      3538.35
 1062.29        2981.75           2594         801.00      3490.39
 1062.32        2982.00           2598         794.00      3459.87
 1062.35        2982.25           2601         792.00      3451.15
 1062.38        2982.50           2605         790.00      3442.43
 1062.41        2982.75           2609         795.00      3464.23
 1062.44        2983.00           2612         802.00      3494.75
 1062.47        2983.25           2616         808.00      3520.91
 1062.50        2983.50           2619         808.00      3520.91
 1062.54        2983.75           2623         768.00      3346.50
 1062.57        2984.00           2626         749.00      3263.66
HS scan finished at 17:42:47
end
