************************************************************
  HS Scan of 
************************************************************
Integration time is 0.2294 seconds per sample
dh170117Reading 51.44 .94 2.62pr1000
************************************************************
Dead Time -------------------------  3.4E-08 
Number of Cycles Used -------------  4 
Starting Wavelength (Angstroms) ---  2950 
Final Wavelength (Angstoms) -------  2984 
Wavelength Increment (Angstroms) --  .25 
Filter Wheel #1 Position ---------- (1) Ground quartz diffuser (ND=2.32)
Filter Wheel #2 Position ---------- (1) Neutral Density 0.494



************************************************************
HS scan start time = 05:12:14
Dark Count =  .5 


Time (GMT)  Wavelength (Ang)  Step Number  Raw Counts  Counts/Second

  313.12        2950.00           2144         807.00      3516.11
  313.32        2950.25           2147         791.00      3446.35
  313.35        2950.50           2151         789.00      3437.63
  313.38        2950.75           2155         833.00      3629.48
  313.41        2951.00           2158         786.00      3424.55
  313.44        2951.25           2162         807.00      3516.11
  313.47        2951.50           2165         795.00      3463.79
  313.50        2951.75           2169         799.00      3481.23
  313.53        2952.00           2172         812.00      3537.91
  313.56        2952.25           2176         827.00      3603.32
  313.59        2952.50           2179         812.00      3537.91
  313.62        2952.75           2183         832.00      3625.12
  313.65        2953.00           2186         830.00      3616.40
  313.68        2953.25           2190         833.00      3629.48
  313.71        2953.50           2193         819.00      3568.44
  313.75        2953.75           2197         850.00      3703.60
  313.78        2954.00           2200         852.00      3712.33
  313.81        2954.25           2204         836.00      3642.56
  313.84        2954.50           2208         846.00      3686.16
  313.87        2954.75           2211         830.00      3616.40
  313.90        2955.00           2215         892.00      3886.74
  313.93        2955.25           2218         851.00      3707.97
  313.96        2955.50           2222         848.00      3694.88
  313.99        2955.75           2225         863.00      3760.29
  314.02        2956.00           2229         877.00      3821.33
  314.05        2956.25           2232         877.00      3821.33
  314.08        2956.50           2236         861.00      3751.57
  314.11        2956.75           2239         842.00      3668.72
  314.14        2957.00           2243         868.00      3782.09
  314.17        2957.25           2246         905.00      3943.42
  314.20        2957.50           2250         896.00      3904.18
  314.23        2957.75           2254         908.00      3956.50
  314.27        2958.00           2257         884.00      3851.86
  314.30        2958.25           2261         929.00      4048.07
  314.33        2958.50           2264         912.00      3973.95
  314.36        2958.75           2268         938.00      4087.32
  314.39        2959.00           2271         922.00      4017.55
  314.42        2959.25           2275         940.00      4096.04
  314.45        2959.50           2278         999.00      4353.30
  314.48        2959.75           2282         981.00      4274.82
  314.51        2960.00           2285         977.00      4257.37
  314.54        2960.25           2289         998.00      4348.94
  314.57        2960.50           2293        1002.00      4366.39
  314.60        2960.75           2296        1059.00      4614.93
  314.63        2961.00           2300        1124.00      4898.37
  314.66        2961.25           2303        1369.00      5966.77
  314.69        2961.50           2307        4673.00     20382.47
  314.72        2961.75           2310       10526.00     45954.49
  314.75        2962.00           2314       19405.00     84832.38
  314.79        2962.25           2317       26496.00    115955.40
  314.82        2962.50           2321       37008.00    162215.20
  314.85        2962.75           2324       45580.00    200046.10
  314.88        2963.00           2328       57602.00    253267.90
  314.91        2963.25           2331       66570.00    293095.90
  314.94        2963.50           2335       77244.00    340642.20
  314.97        2963.75           2339       87639.00    387094.80
  315.00        2964.00           2342       95622.00    422869.40
  315.03        2964.25           2346      107429.00    475941.80
  315.06        2964.50           2349      116352.00    516179.20
  315.09        2964.75           2353      127898.00    568410.10
  315.12        2965.00           2356      135274.00    601875.50
  315.15        2965.25           2360      145534.00    648554.00
  315.18        2965.50           2363      153371.00    684310.10
  315.21        2965.75           2367      163597.00    731098.80
  315.24        2966.00           2370      171552.00    767601.00
  315.27        2966.25           2374      181557.00    813640.60
  315.31        2966.50           2378      188232.00    844438.20
  315.34        2966.75           2381      189341.00    849561.40
  315.37        2967.00           2385      190284.00    853919.00
  315.40        2967.25           2388      190623.00    855486.00
  315.43        2967.50           2392      190433.00    854607.80
  315.46        2967.75           2395      189968.00    852458.60
  315.49        2968.00           2399      187617.00    841598.00
  315.52        2968.25           2402      181693.00    814267.50
  315.55        2968.50           2406      172245.00    770785.30
  315.58        2968.75           2409      164835.00    736773.40
  315.61        2969.00           2413      154702.00    690391.60
  315.64        2969.25           2417      144835.00    645369.10
  315.67        2969.50           2420      136783.00    608731.40
  315.70        2969.75           2424      125416.00    557166.50
  315.73        2970.00           2427      116352.00    516179.20
  315.76        2970.25           2431      105386.00    466744.70
  315.80        2970.50           2434       96588.00    427204.30
  315.83        2970.75           2438       84535.00    373208.40
  315.86        2971.00           2441       75799.00    334196.50
  315.89        2971.25           2445       64491.00    283853.20
  315.92        2971.50           2449       51957.00    228253.20
  315.95        2971.75           2452       43029.00    188777.50
  315.98        2972.00           2456       32075.00    140488.60
  316.01        2972.25           2459       23893.00    104522.90
  316.04        2972.50           2463       13988.00     61101.08
  316.07        2972.75           2466        7646.00     33366.08
  316.10        2973.00           2470        2699.00     11768.00
  316.13        2973.25           2473        1411.00      6149.93
  316.16        2973.50           2477        1136.00      4950.70
  316.19        2973.75           2481        1064.00      4636.74
  316.22        2974.00           2484        1085.00      4728.31
  316.25        2974.25           2488        1036.00      4514.64
  316.28        2974.50           2491         980.00      4270.45
  316.31        2974.75           2495         973.00      4239.93
  316.35        2975.00           2498         964.00      4200.69
  316.38        2975.25           2502         976.00      4253.01
  316.41        2975.50           2505         949.00      4135.28
  316.44        2975.75           2509         929.00      4048.07
  316.47        2976.00           2512         926.00      4034.99
  316.50        2976.25           2516         931.00      4056.79
  316.53        2976.50           2520         917.00      3995.75
  316.56        2976.75           2523         900.00      3921.62
  316.59        2977.00           2527         896.00      3904.18
  316.62        2977.25           2530         897.00      3908.54
  316.65        2977.50           2534         880.00      3834.41
  316.68        2977.75           2537         862.00      3755.93
  316.71        2978.00           2541         853.00      3716.69
  316.74        2978.25           2544         871.00      3795.17
  316.77        2978.50           2548         889.00      3873.66
  316.80        2978.75           2552         843.00      3673.08
  316.83        2979.00           2555         835.00      3638.20
  316.87        2979.25           2559         833.00      3629.48
  316.90        2979.50           2562         855.00      3725.41
  316.93        2979.75           2566         842.00      3668.72
  316.96        2980.00           2569         833.00      3629.48
  316.99        2980.25           2573         816.00      3555.36
  317.02        2980.50           2577         843.00      3673.08
  317.05        2980.75           2580         812.00      3537.91
  317.08        2981.00           2584         812.00      3537.91
  317.11        2981.25           2587         816.00      3555.36
  317.14        2981.50           2591         791.00      3446.35
  317.17        2981.75           2594         828.00      3607.68
  317.20        2982.00           2598         803.00      3498.67
  317.23        2982.25           2601         804.00      3503.03
  317.26        2982.50           2605         790.00      3441.99
  317.29        2982.75           2609         787.00      3428.91
  317.32        2983.00           2612         798.00      3476.87
  317.35        2983.25           2616         793.00      3455.07
  317.39        2983.50           2619         770.00      3354.79
  317.42        2983.75           2623         766.00      3337.34
  317.45        2984.00           2626         793.00      3455.07
HS scan finished at 05:17:40
end
************************************************************
  HS Scan of 
************************************************************
Integration time is 0.2294 seconds per sample
dh170117Reading 51.44 .94 2.74pr1000
************************************************************
Dead Time -------------------------  3.4E-08 
Number of Cycles Used -------------  4 
Starting Wavelength (Angstroms) ---  2950 
Final Wavelength (Angstoms) -------  2984 
Wavelength Increment (Angstroms) --  .25 
Filter Wheel #1 Position ---------- (1) Ground quartz diffuser (ND=2.32)
Filter Wheel #2 Position ---------- (1) Neutral Density 0.494



************************************************************
HS scan start time = 17:37:22
Dark Count =  .5 


Time (GMT)  Wavelength (Ang)  Step Number  Raw Counts  Counts/Second

 1058.27        2950.00           2144         789.00      3437.63
 1058.47        2950.25           2147         794.00      3459.43
 1058.50        2950.50           2151         756.00      3293.74
 1058.53        2950.75           2155         802.00      3494.31
 1058.56        2951.00           2158         781.00      3402.75
 1058.59        2951.25           2162         784.00      3415.83
 1058.62        2951.50           2165         789.00      3437.63
 1058.65        2951.75           2169         773.00      3367.87
 1058.68        2952.00           2172         784.00      3415.83
 1058.71        2952.25           2176         814.00      3546.64
 1058.74        2952.50           2179         761.00      3315.54
 1058.77        2952.75           2183         805.00      3507.39
 1058.80        2953.00           2186         799.00      3481.23
 1058.83        2953.25           2190         807.00      3516.11
 1058.86        2953.50           2193         797.00      3472.51
 1058.89        2953.75           2197         816.00      3555.36
 1058.93        2954.00           2200         813.00      3542.28
 1058.96        2954.25           2204         821.00      3577.16
 1058.99        2954.50           2208         813.00      3542.28
 1059.02        2954.75           2211         813.00      3542.28
 1059.05        2955.00           2215         838.00      3651.28
 1059.08        2955.25           2218         814.00      3546.64
 1059.11        2955.50           2222         820.00      3572.80
 1059.14        2955.75           2225         839.00      3655.64
 1059.17        2956.00           2229         836.00      3642.56
 1059.20        2956.25           2232         832.00      3625.12
 1059.23        2956.50           2236         828.00      3607.68
 1059.26        2956.75           2239         857.00      3734.13
 1059.29        2957.00           2243         882.00      3843.14
 1059.32        2957.25           2246         846.00      3686.16
 1059.35        2957.50           2250         856.00      3729.77
 1059.38        2957.75           2254         864.00      3764.65
 1059.41        2958.00           2257         879.00      3830.05
 1059.45        2958.25           2261         865.00      3769.01
 1059.48        2958.50           2264         892.00      3886.74
 1059.51        2958.75           2268         885.00      3856.22
 1059.54        2959.00           2271         898.00      3912.90
 1059.57        2959.25           2275         925.00      4030.63
 1059.60        2959.50           2278         942.00      4104.76
 1059.63        2959.75           2282         943.00      4109.12
 1059.66        2960.00           2285         935.00      4074.23
 1059.69        2960.25           2289         967.00      4213.77
 1059.72        2960.50           2293         936.00      4078.60
 1059.75        2960.75           2296         967.00      4213.77
 1059.78        2961.00           2300        1000.00      4357.66
 1059.81        2961.25           2303        1046.00      4558.25
 1059.84        2961.50           2307        2109.00      9194.24
 1059.87        2961.75           2310        5620.00     24516.94
 1059.90        2962.00           2314       13098.00     57205.76
 1059.94        2962.25           2317       19568.00     85547.07
 1059.97        2962.50           2321       28570.00    125070.80
 1060.00        2962.75           2324       35886.00    157270.70
 1060.03        2963.00           2328       45731.00    200713.40
 1060.06        2963.25           2331       52510.00    230701.80
 1060.09        2963.50           2335       62449.00    274780.60
 1060.12        2963.75           2339       71963.00    317099.20
 1060.15        2964.00           2342       79579.00    351063.90
 1060.18        2964.25           2346       90077.00    398011.10
 1060.21        2964.50           2349       98074.00    433875.30
 1060.24        2964.75           2353      107540.00    476441.70
 1060.27        2965.00           2356      114728.00    508847.70
 1060.30        2965.25           2360      123950.00    550529.50
 1060.33        2965.50           2363      131163.00    583214.10
 1060.36        2965.75           2367      140107.00    623844.90
 1060.39        2966.00           2370      146081.00    651046.80
 1060.42        2966.25           2374      155060.00    692027.60
 1060.45        2966.50           2378      162525.00    726186.80
 1060.49        2966.75           2381      165105.00    738011.30
 1060.52        2967.00           2385      165724.00    740849.60
 1060.55        2967.25           2388      165759.00    741010.10
 1060.58        2967.50           2392      165515.00    739891.30
 1060.61        2967.75           2395      165313.00    738965.00
 1060.64        2968.00           2399      163362.00    730021.80
 1060.67        2968.25           2402      158877.00    709483.80
 1060.70        2968.50           2406      150125.00    669489.70
 1060.73        2968.75           2409      143588.00    639689.10
 1060.76        2969.00           2413      135040.00    600812.60
 1060.79        2969.25           2417      126527.00    562198.30
 1060.82        2969.50           2420      119505.00    530424.00
 1060.85        2969.75           2424      109303.00    484383.30
 1060.88        2970.00           2427      101928.00    451190.80
 1060.91        2970.25           2431       91897.00    406165.50
 1060.94        2970.50           2434       84107.00    371294.60
 1060.97        2970.75           2438       75004.00    330651.50
 1061.01        2971.00           2441       68478.00    301583.60
 1061.04        2971.25           2445       59836.00    263179.30
 1061.07        2971.50           2449       50233.00    220622.20
 1061.10        2971.75           2452       42573.00    186764.10
 1061.13        2972.00           2456       32629.00    142927.00
 1061.16        2972.25           2459       25449.00    111355.90
 1061.19        2972.50           2463       15567.00     68014.56
 1061.22        2972.75           2466        9310.00     40638.07
 1061.25        2973.00           2470        3686.00     16074.61
 1061.28        2973.25           2473        1682.00      7331.82
 1061.31        2973.50           2477        1065.00      4641.10
 1061.34        2973.75           2481         980.00      4270.45
 1061.37        2974.00           2484         990.00      4314.06
 1061.40        2974.25           2488         955.00      4161.44
 1061.43        2974.50           2491         937.00      4082.96
 1061.46        2974.75           2495         920.00      4008.83
 1061.49        2975.00           2498         934.00      4069.87
 1061.53        2975.25           2502         925.00      4030.63
 1061.56        2975.50           2505         881.00      3838.78
 1061.59        2975.75           2509         903.00      3934.70
 1061.62        2976.00           2512         892.00      3886.74
 1061.65        2976.25           2516         836.00      3642.56
 1061.68        2976.50           2520         872.00      3799.53
 1061.71        2976.75           2523         899.00      3917.26
 1061.74        2977.00           2527         811.00      3533.55
 1061.77        2977.25           2530         832.00      3625.12
 1061.80        2977.50           2534         828.00      3607.68
 1061.83        2977.75           2537         804.00      3503.03
 1061.86        2978.00           2541         850.00      3703.60
 1061.89        2978.25           2544         801.00      3489.95
 1061.92        2978.50           2548         821.00      3577.16
 1061.95        2978.75           2552         809.00      3524.83
 1061.98        2979.00           2555         797.00      3472.51
 1062.01        2979.25           2559         776.00      3380.95
 1062.05        2979.50           2562         796.00      3468.15
 1062.08        2979.75           2566         779.00      3394.03
 1062.11        2980.00           2569         786.00      3424.55
 1062.14        2980.25           2573         786.00      3424.55
 1062.17        2980.50           2577         766.00      3337.34
 1062.20        2980.75           2580         774.00      3372.23
 1062.23        2981.00           2584         797.00      3472.51
 1062.26        2981.25           2587         757.00      3298.10
 1062.29        2981.50           2591         763.00      3324.26
 1062.32        2981.75           2594         754.00      3285.02
 1062.35        2982.00           2598         741.00      3228.34
 1062.38        2982.25           2601         737.00      3210.90
 1062.41        2982.50           2605         756.00      3293.74
 1062.44        2982.75           2609         747.00      3254.50
 1062.47        2983.00           2612         739.00      3219.62
 1062.50        2983.25           2616         729.00      3176.02
 1062.53        2983.50           2619         747.00      3254.50
 1062.57        2983.75           2623         747.00      3254.50
 1062.60        2984.00           2626         736.00      3206.54
HS scan finished at 17:42:49
end
