************************************************************
  HS Scan of 
************************************************************
Integration time is 0.2294 seconds per sample
dh130117Reading 51.44 .94 2.33pr1000
************************************************************
Dead Time -------------------------  3.4E-08 
Number of Cycles Used -------------  4 
Starting Wavelength (Angstroms) ---  2950 
Final Wavelength (Angstoms) -------  2984 
Wavelength Increment (Angstroms) --  .25 
Filter Wheel #1 Position ---------- (1) Ground quartz diffuser (ND=2.32)
Filter Wheel #2 Position ---------- (1) Neutral Density 0.494



************************************************************
HS scan start time = 05:17:24
Dark Count =  0 


Time (GMT)  Wavelength (Ang)  Step Number  Raw Counts  Counts/Second

  318.30        2950.00           2144         848.00      3697.06
  318.49        2950.25           2147         870.00      3792.99
  318.52        2950.50           2151         846.00      3688.34
  318.55        2950.75           2155         885.00      3858.40
  318.58        2951.00           2158         901.00      3928.16
  318.61        2951.25           2162         849.00      3701.43
  318.65        2951.50           2165         838.00      3653.46
  318.68        2951.75           2169         883.00      3849.68
  318.71        2952.00           2172         875.00      3814.79
  318.74        2952.25           2176         851.00      3710.15
  318.77        2952.50           2179         883.00      3849.68
  318.80        2952.75           2183         874.00      3810.43
  318.83        2953.00           2186         882.00      3845.32
  318.86        2953.25           2190         891.00      3884.56
  318.89        2953.50           2193         870.00      3792.99
  318.92        2953.75           2197         901.00      3928.16
  318.95        2954.00           2200         916.00      3993.57
  318.98        2954.25           2204         903.00      3936.88
  319.01        2954.50           2208         909.00      3963.04
  319.04        2954.75           2211         902.00      3932.52
  319.07        2955.00           2215         907.00      3954.32
  319.10        2955.25           2218         918.00      4002.29
  319.13        2955.50           2222         929.00      4050.25
  319.17        2955.75           2225         917.00      3997.93
  319.20        2956.00           2229         934.00      4072.05
  319.23        2956.25           2232         942.00      4106.94
  319.26        2956.50           2236         929.00      4050.25
  319.29        2956.75           2239         924.00      4028.45
  319.32        2957.00           2243         923.00      4024.09
  319.35        2957.25           2246         940.00      4098.22
  319.38        2957.50           2250         952.00      4150.54
  319.41        2957.75           2254         961.00      4189.79
  319.44        2958.00           2257         983.00      4285.72
  319.47        2958.25           2261         981.00      4277.00
  319.50        2958.50           2264        1016.00      4429.61
  319.53        2958.75           2268         987.00      4303.16
  319.56        2959.00           2271        1020.00      4447.05
  319.59        2959.25           2275         979.00      4268.27
  319.62        2959.50           2278         983.00      4285.72
  319.65        2959.75           2282        1012.00      4412.17
  319.69        2960.00           2285        1053.00      4590.95
  319.72        2960.25           2289        1070.00      4665.08
  319.75        2960.50           2293        1062.00      4630.20
  319.78        2960.75           2296        1092.00      4761.01
  319.81        2961.00           2300        1171.00      5105.51
  319.84        2961.25           2303        1359.00      5925.34
  319.87        2961.50           2307        4217.00     18394.24
  319.90        2961.75           2310       10374.00     45292.02
  319.93        2962.00           2314       20530.00     89767.90
  319.96        2962.25           2317       27828.00    121811.20
  319.99        2962.50           2321       36937.00    161904.50
  320.02        2962.75           2324       44327.00    194512.30
  320.05        2963.00           2328       56839.00    249886.50
  320.08        2963.25           2331       66272.00    291773.00
  320.11        2963.50           2335       77367.00    341193.20
  320.14        2963.75           2339       88362.00    390333.50
  320.17        2964.00           2342       97220.00    430043.40
  320.21        2964.25           2346      108722.00    481767.90
  320.24        2964.50           2349      117216.00    520083.50
  320.27        2964.75           2353      129282.00    574685.80
  320.30        2965.00           2356      137909.00    613851.50
  320.33        2965.25           2360      148079.00    660158.10
  320.36        2965.50           2363      155416.00    693657.10
  320.39        2965.75           2367      165895.00    741636.10
  320.42        2966.00           2370      173587.00    776955.90
  320.45        2966.25           2374      183221.00    821314.40
  320.48        2966.50           2378      188872.00    847396.90
  320.51        2966.75           2381      190465.00    854757.90
  320.54        2967.00           2385      191183.00    858076.90
  320.57        2967.25           2388      190854.00    856556.10
  320.60        2967.50           2392      190769.00    856163.10
  320.63        2967.75           2395      190263.00    853824.30
  320.66        2968.00           2399      187024.00    838862.10
  320.69        2968.25           2402      180395.00    808288.30
  320.73        2968.50           2406      169897.00    760001.60
  320.76        2968.75           2409      162234.00    724856.00
  320.79        2969.00           2413      151880.00    677503.00
  320.82        2969.25           2417      141489.00    630135.40
  320.85        2969.50           2420      133289.00    592864.10
  320.88        2969.75           2424      123501.00    548499.50
  320.91        2970.00           2427      115492.00    512298.60
  320.94        2970.25           2431      103479.00    458167.30
  320.97        2970.50           2434       94508.00    417874.20
  321.00        2970.75           2438       83265.00    367532.80
  321.03        2971.00           2441       75242.00    331715.00
  321.06        2971.25           2445       64024.00    281780.00
  321.09        2971.50           2449       53917.00    236935.90
  321.12        2971.75           2452       45916.00    201533.10
  321.15        2972.00           2456       35341.00    154871.80
  321.18        2972.25           2459       27241.00    119231.30
  321.21        2972.50           2463       15490.00     67679.53
  321.24        2972.75           2466        7996.00     34897.53
  321.28        2973.00           2470        2644.00     11530.24
  321.31        2973.25           2473        1570.00      6845.53
  321.34        2973.50           2477        1191.00      5192.72
  321.37        2973.75           2481        1146.00      4996.49
  321.40        2974.00           2484        1160.00      5057.54
  321.43        2974.25           2488        1073.00      4678.16
  321.47        2974.50           2491        1037.00      4521.18
  321.50        2974.75           2495        1054.00      4595.31
  321.53        2975.00           2498        1055.00      4599.67
  321.56        2975.25           2502        1026.00      4473.22
  321.59        2975.50           2505        1030.00      4490.66
  321.62        2975.75           2509         995.00      4338.04
  321.65        2976.00           2512         997.00      4346.76
  321.68        2976.25           2516         959.00      4181.07
  321.71        2976.50           2520         960.00      4185.43
  321.74        2976.75           2523         974.00      4246.47
  321.77        2977.00           2527         947.00      4128.74
  321.80        2977.25           2530         977.00      4259.55
  321.83        2977.50           2534         926.00      4037.17
  321.86        2977.75           2537         953.00      4154.90
  321.89        2978.00           2541         907.00      3954.32
  321.92        2978.25           2544         913.00      3980.49
  321.95        2978.50           2548         886.00      3862.76
  321.99        2978.75           2552         906.00      3949.96
  322.02        2979.00           2555         907.00      3954.32
  322.05        2979.25           2559         926.00      4037.17
  322.08        2979.50           2562         894.00      3897.64
  322.11        2979.75           2566         903.00      3936.88
  322.14        2980.00           2569         873.00      3806.07
  322.17        2980.25           2573         877.00      3823.51
  322.20        2980.50           2577         873.00      3806.07
  322.23        2980.75           2580         874.00      3810.43
  322.26        2981.00           2584         871.00      3797.35
  322.29        2981.25           2587         863.00      3762.47
  322.32        2981.50           2591         862.00      3758.11
  322.35        2981.75           2594         844.00      3679.62
  322.38        2982.00           2598         825.00      3596.78
  322.41        2982.25           2601         869.00      3788.63
  322.44        2982.50           2605         842.00      3670.90
  322.47        2982.75           2609         855.00      3727.59
  322.51        2983.00           2612         843.00      3675.26
  322.54        2983.25           2616         853.00      3718.87
  322.57        2983.50           2619         842.00      3670.90
  322.60        2983.75           2623         841.00      3666.54
  322.63        2984.00           2626         843.00      3675.26
HS scan finished at 05:22:51
end
************************************************************
  HS Scan of 
************************************************************
Integration time is 0.2294 seconds per sample
dh130117Reading 51.44 .94 2.72pr1000
************************************************************
Dead Time -------------------------  3.4E-08 
Number of Cycles Used -------------  4 
Starting Wavelength (Angstroms) ---  2950 
Final Wavelength (Angstoms) -------  2984 
Wavelength Increment (Angstroms) --  .25 
Filter Wheel #1 Position ---------- (1) Ground quartz diffuser (ND=2.32)
Filter Wheel #2 Position ---------- (1) Neutral Density 0.494



************************************************************
HS scan start time = 17:07:20
Dark Count =  .5 


Time (GMT)  Wavelength (Ang)  Step Number  Raw Counts  Counts/Second

 1028.24        2950.00           2144         781.00      3402.75
 1028.43        2950.25           2147         782.00      3407.11
 1028.46        2950.50           2151         791.00      3446.35
 1028.49        2950.75           2155         768.00      3346.07
 1028.52        2951.00           2158         788.00      3433.27
 1028.55        2951.25           2162         771.00      3359.15
 1028.58        2951.50           2165         818.00      3564.08
 1028.61        2951.75           2169         777.00      3385.31
 1028.64        2952.00           2172         828.00      3607.68
 1028.68        2952.25           2176         768.00      3346.07
 1028.71        2952.50           2179         814.00      3546.64
 1028.74        2952.75           2183         818.00      3564.08
 1028.77        2953.00           2186         803.00      3498.67
 1028.80        2953.25           2190         803.00      3498.67
 1028.83        2953.50           2193         798.00      3476.87
 1028.86        2953.75           2197         819.00      3568.44
 1028.89        2954.00           2200         824.00      3590.24
 1028.92        2954.25           2204         799.00      3481.23
 1028.95        2954.50           2208         800.00      3485.59
 1028.98        2954.75           2211         817.00      3559.72
 1029.01        2955.00           2215         837.00      3646.92
 1029.04        2955.25           2218         841.00      3664.36
 1029.07        2955.50           2222         799.00      3481.23
 1029.10        2955.75           2225         838.00      3651.28
 1029.13        2956.00           2229         820.00      3572.80
 1029.17        2956.25           2232         863.00      3760.29
 1029.20        2956.50           2236         845.00      3681.80
 1029.23        2956.75           2239         855.00      3725.41
 1029.26        2957.00           2243         873.00      3803.89
 1029.29        2957.25           2246         899.00      3917.26
 1029.32        2957.50           2250         883.00      3847.50
 1029.35        2957.75           2254         861.00      3751.57
 1029.38        2958.00           2257         882.00      3843.14
 1029.41        2958.25           2261         903.00      3934.70
 1029.44        2958.50           2264         912.00      3973.95
 1029.47        2958.75           2268         911.00      3969.59
 1029.50        2959.00           2271         933.00      4065.51
 1029.53        2959.25           2275         945.00      4117.84
 1029.56        2959.50           2278         927.00      4039.35
 1029.59        2959.75           2282         945.00      4117.84
 1029.62        2960.00           2285         960.00      4183.25
 1029.65        2960.25           2289         969.00      4222.49
 1029.68        2960.50           2293         991.00      4318.42
 1029.72        2960.75           2296        1019.00      4440.51
 1029.75        2961.00           2300        1079.00      4702.15
 1029.78        2961.25           2303        1250.00      5447.83
 1029.81        2961.50           2307        3090.00     13473.91
 1029.84        2961.75           2310        7511.00     32776.26
 1029.87        2962.00           2314       16428.00     71785.72
 1029.90        2962.25           2317       23933.00    104698.60
 1029.93        2962.50           2321       35395.00    155107.50
 1029.96        2962.75           2324       43799.00    192177.90
 1029.99        2963.00           2328       54451.00    239299.60
 1030.02        2963.25           2331       61782.00    271818.30
 1030.05        2963.50           2335       71333.00    314293.10
 1030.08        2963.75           2339       82430.00    363798.70
 1030.11        2964.00           2342       90646.00    400560.00
 1030.14        2964.25           2346      102096.00    451946.10
 1030.17        2964.50           2349      109879.00    486978.80
 1030.20        2964.75           2353      119378.00    529849.90
 1030.24        2965.00           2356      127000.00    564341.10
 1030.27        2965.25           2360      137393.00    611503.70
 1030.30        2965.50           2363      145532.00    648544.90
 1030.33        2965.75           2367      155447.00    693796.60
 1030.36        2966.00           2370      162789.00    727396.30
 1030.39        2966.25           2374      171596.00    767803.10
 1030.42        2966.50           2378      177245.00    793780.30
 1030.45        2966.75           2381      179108.00    802357.70
 1030.49        2967.00           2385      179469.00    804020.30
 1030.52        2967.25           2388      180074.00    806807.20
 1030.55        2967.50           2392      179069.00    802178.10
 1030.58        2967.75           2395      179594.00    804596.10
 1030.62        2968.00           2399      176837.00    791902.60
 1030.65        2968.25           2402      170942.00    764798.70
 1030.68        2968.50           2406      161550.00    721720.60
 1030.71        2968.75           2409      155275.00    693010.40
 1030.74        2969.00           2413      146076.00    651024.00
 1030.77        2969.25           2417      135768.00    604119.50
 1030.80        2969.50           2420      128254.00    570023.60
 1030.83        2969.75           2424      117467.00    521215.00
 1030.86        2970.00           2427      109959.00    487339.30
 1030.89        2970.25           2431      100246.00    443631.30
 1030.92        2970.50           2434       92746.00    409971.00
 1030.95        2970.75           2438       80790.00    356471.80
 1030.98        2971.00           2441       71910.00    316863.10
 1031.01        2971.25           2445       60922.00    267999.80
 1031.04        2971.50           2449       50328.00    221042.60
 1031.07        2971.75           2452       43091.00    189051.30
 1031.10        2972.00           2456       32926.00    144234.40
 1031.14        2972.25           2459       24962.00    109216.90
 1031.17        2972.50           2463       15247.00     66613.21
 1031.20        2972.75           2466        8515.00     37163.32
 1031.23        2973.00           2470        2689.00     11724.38
 1031.26        2973.25           2473        1347.00      5870.83
 1031.29        2973.50           2477        1061.00      4623.66
 1031.32        2973.75           2481        1007.00      4388.19
 1031.35        2974.00           2484         987.00      4300.98
 1031.38        2974.25           2488         995.00      4335.86
 1031.41        2974.50           2491        1024.00      4462.32
 1031.44        2974.75           2495         958.00      4174.53
 1031.47        2975.00           2498         935.00      4074.23
 1031.50        2975.25           2502         946.00      4122.20
 1031.53        2975.50           2505         938.00      4087.32
 1031.56        2975.75           2509         918.00      4000.11
 1031.59        2976.00           2512         918.00      4000.11
 1031.62        2976.25           2516         888.00      3869.30
 1031.66        2976.50           2520         910.00      3965.23
 1031.69        2976.75           2523         862.00      3755.93
 1031.72        2977.00           2527         871.00      3795.17
 1031.75        2977.25           2530         886.00      3860.58
 1031.78        2977.50           2534         846.00      3686.16
 1031.81        2977.75           2537         896.00      3904.18
 1031.84        2978.00           2541         853.00      3716.69
 1031.87        2978.25           2544         838.00      3651.28
 1031.90        2978.50           2548         837.00      3646.92
 1031.93        2978.75           2552         827.00      3603.32
 1031.96        2979.00           2555         806.00      3511.75
 1031.99        2979.25           2559         821.00      3577.16
 1032.02        2979.50           2562         787.00      3428.91
 1032.05        2979.75           2566         794.00      3459.43
 1032.08        2980.00           2569         816.00      3555.36
 1032.11        2980.25           2573         808.00      3520.47
 1032.14        2980.50           2577         812.00      3537.91
 1032.18        2980.75           2580         807.00      3516.11
 1032.21        2981.00           2584         795.00      3463.79
 1032.24        2981.25           2587         797.00      3472.51
 1032.27        2981.50           2591         777.00      3385.31
 1032.30        2981.75           2594         779.00      3394.03
 1032.33        2982.00           2598         810.00      3529.19
 1032.36        2982.25           2601         778.00      3389.67
 1032.39        2982.50           2605         780.00      3398.39
 1032.42        2982.75           2609         758.00      3302.46
 1032.45        2983.00           2612         780.00      3398.39
 1032.48        2983.25           2616         770.00      3354.79
 1032.51        2983.50           2619         767.00      3341.70
 1032.54        2983.75           2623         739.00      3219.62
 1032.57        2984.00           2626         733.00      3193.46
HS scan finished at 17:12:48
end
