************************************************************
  HS Scan of (1) Internal mercury lamp
************************************************************
Integration time is 0.2294 seconds per sample
dh130118Reading 51.44 .94 2.68pr1000
************************************************************
Dead Time -------------------------  3.4E-08 
Number of Cycles Used -------------  4 
Starting Wavelength (Angstroms) ---  2950 
Final Wavelength (Angstoms) -------  2984 
Wavelength Increment (Angstroms) --  .25 
Filter Wheel #1 Position ---------- (1) Ground quartz diffuser (ND=2.32)
Filter Wheel #2 Position ---------- (1) Neutral Density 0.494



************************************************************
HS scan start time = 05:14:30
Dark Count =  .4 


Time (GMT)  Wavelength (Ang)  Step Number  Raw Counts  Counts/Second

  315.40        2950.00           2144         114.00       495.21
  315.59        2950.25           2147          86.00       373.15
  315.62        2950.50           2151          85.00       368.79
  315.65        2950.75           2155          86.00       373.15
  315.68        2951.00           2158          79.00       342.64
  315.71        2951.25           2162          85.00       368.79
  315.74        2951.50           2165          88.00       381.87
  315.77        2951.75           2169          93.00       403.67
  315.81        2952.00           2172          88.00       381.87
  315.84        2952.25           2176          84.00       364.43
  315.87        2952.50           2179          81.00       351.36
  315.90        2952.75           2183          80.00       347.00
  315.93        2953.00           2186          90.00       390.59
  315.96        2953.25           2190         106.00       460.34
  315.99        2953.50           2193          93.00       403.67
  316.02        2953.75           2197          89.00       386.23
  316.05        2954.00           2200          94.00       408.03
  316.08        2954.25           2204          86.00       373.15
  316.11        2954.50           2208          96.00       416.75
  316.14        2954.75           2211          88.00       381.87
  316.17        2955.00           2215          91.00       394.95
  316.20        2955.25           2218          86.00       373.15
  316.23        2955.50           2222          97.00       421.10
  316.26        2955.75           2225          94.00       408.03
  316.29        2956.00           2229          93.00       403.67
  316.33        2956.25           2232          95.00       412.39
  316.36        2956.50           2236          93.00       403.67
  316.39        2956.75           2239          97.00       421.10
  316.42        2957.00           2243         117.00       508.29
  316.45        2957.25           2246         116.00       503.93
  316.48        2957.50           2250          98.00       425.46
  316.51        2957.75           2254          94.00       408.03
  316.54        2958.00           2257          99.00       429.82
  316.57        2958.25           2261          97.00       421.10
  316.60        2958.50           2264          93.00       403.67
  316.63        2958.75           2268         103.00       447.26
  316.66        2959.00           2271         116.00       503.93
  316.69        2959.25           2275         124.00       538.81
  316.72        2959.50           2278         110.00       477.78
  316.75        2959.75           2282         105.00       455.98
  316.78        2960.00           2285         123.00       534.45
  316.81        2960.25           2289         142.00       617.28
  316.85        2960.50           2293         128.00       556.24
  316.88        2960.75           2296         114.00       495.21
  316.91        2961.00           2300         146.00       634.71
  316.94        2961.25           2303         314.00      1367.11
  316.97        2961.50           2307        1077.00      4693.86
  317.00        2961.75           2310        1884.00      8213.28
  317.03        2962.00           2314        3173.00     13836.50
  317.06        2962.25           2317        4008.00     17480.31
  317.09        2962.50           2321        5451.00     23779.47
  317.12        2962.75           2324        6398.00     27914.89
  317.15        2963.00           2328        7831.00     34174.83
  317.18        2963.25           2331        8984.00     39213.54
  317.21        2963.50           2335       10364.00     45246.54
  317.24        2963.75           2339       11752.00     51317.01
  317.27        2964.00           2342       13115.00     57280.58
  317.30        2964.25           2346       14302.00     62476.08
  317.33        2964.50           2349       15102.00     65978.71
  317.36        2964.75           2353       17332.00     75746.71
  317.40        2965.00           2356       18131.00     79248.12
  317.43        2965.25           2360       19427.00     84929.29
  317.46        2965.50           2363       20291.00     88717.96
  317.49        2965.75           2367       21272.00     93020.85
  317.52        2966.00           2370       22221.00     97184.59
  317.55        2966.25           2374       22876.00    100059.10
  317.58        2966.50           2378       23953.00    104786.80
  317.61        2966.75           2381       24191.00    105831.70
  317.64        2967.00           2385       24078.00    105335.60
  317.67        2967.25           2388       24640.00    107803.30
  317.70        2967.50           2392       24568.00    107487.10
  317.73        2967.75           2395       24213.00    105928.40
  317.76        2968.00           2399       23948.00    104764.80
  317.79        2968.25           2402       22949.00    100379.50
  317.82        2968.50           2406       21423.00     93683.28
  317.85        2968.75           2409       20508.00     89669.66
  317.88        2969.00           2413       19379.00     84718.84
  317.92        2969.25           2417       17502.00     76491.61
  317.95        2969.50           2420       16036.00     70069.08
  317.98        2969.75           2424       14380.00     62817.55
  318.01        2970.00           2427       13236.00     57810.12
  318.04        2970.25           2431       11574.00     50538.39
  318.07        2970.50           2434       10399.00     45399.58
  318.10        2970.75           2438        9180.00     40070.24
  318.13        2971.00           2441        8343.00     36412.10
  318.16        2971.25           2445        7020.00     30631.71
  318.19        2971.50           2449        5517.00     24067.64
  318.22        2971.75           2452        4460.00     19453.14
  318.25        2972.00           2456        3210.00     13997.94
  318.28        2972.25           2459        2244.00      9783.55
  318.31        2972.50           2463        1146.00      4994.75
  318.34        2972.75           2466         543.00      2365.49
  318.37        2973.00           2470         191.00       830.89
  318.41        2973.25           2473         161.00       700.10
  318.44        2973.50           2477         117.00       508.29
  318.47        2973.75           2481         105.00       455.98
  318.50        2974.00           2484         111.00       482.14
  318.53        2974.25           2488         111.00       482.14
  318.56        2974.50           2491         125.00       543.17
  318.59        2974.75           2495         102.00       442.90
  318.62        2975.00           2498          99.00       429.82
  318.65        2975.25           2502          96.00       416.75
  318.68        2975.50           2505          89.00       386.23
  318.71        2975.75           2509          90.00       390.59
  318.74        2976.00           2512          99.00       429.82
  318.77        2976.25           2516         104.00       451.62
  318.80        2976.50           2520          94.00       408.03
  318.83        2976.75           2523          93.00       403.67
  318.86        2977.00           2527          87.00       377.51
  318.89        2977.25           2530          93.00       403.67
  318.93        2977.50           2534          87.00       377.51
  318.96        2977.75           2537          88.00       381.87
  318.99        2978.00           2541          93.00       403.67
  319.02        2978.25           2544          92.00       399.31
  319.05        2978.50           2548          92.00       399.31
  319.08        2978.75           2552          94.00       408.03
  319.11        2979.00           2555          92.00       399.31
  319.14        2979.25           2559          81.00       351.36
  319.17        2979.50           2562          79.00       342.64
  319.20        2979.75           2566          84.00       364.43
  319.23        2980.00           2569          83.00       360.07
  319.26        2980.25           2573          88.00       381.87
  319.29        2980.50           2577          87.00       377.51
  319.32        2980.75           2580          83.00       360.07
  319.35        2981.00           2584          78.00       338.28
  319.38        2981.25           2587          88.00       381.87
  319.41        2981.50           2591          93.00       403.67
  319.44        2981.75           2594          83.00       360.07
  319.48        2982.00           2598          81.00       351.36
  319.51        2982.25           2601          80.00       347.00
  319.54        2982.50           2605          77.00       333.92
  319.57        2982.75           2609          82.00       355.71
  319.60        2983.00           2612          80.00       347.00
  319.63        2983.25           2616          71.00       307.76
  319.66        2983.50           2619          81.00       351.36
  319.69        2983.75           2623          85.00       368.79
  319.72        2984.00           2626          83.00       360.07
HS scan finished at 05:19:57
end
************************************************************
  HS Scan of (1) Internal mercury lamp
************************************************************
Integration time is 0.2294 seconds per sample
dh130118Reading 51.44 .94 2.82pr1000
************************************************************
Dead Time -------------------------  3.4E-08 
Number of Cycles Used -------------  4 
Starting Wavelength (Angstroms) ---  2950 
Final Wavelength (Angstoms) -------  2984 
Wavelength Increment (Angstroms) --  .25 
Filter Wheel #1 Position ---------- (1) Ground quartz diffuser (ND=2.32)
Filter Wheel #2 Position ---------- (1) Neutral Density 0.494



************************************************************
HS scan start time = 17:07:28
Dark Count =  .5 


Time (GMT)  Wavelength (Ang)  Step Number  Raw Counts  Counts/Second

 1028.37        2950.00           2144          76.00       329.12
 1028.56        2950.25           2147          77.00       333.48
 1028.59        2950.50           2151          83.00       359.64
 1028.62        2950.75           2155          73.00       316.05
 1028.65        2951.00           2158          68.00       294.25
 1028.68        2951.25           2162          78.00       337.84
 1028.71        2951.50           2165          81.00       350.92
 1028.74        2951.75           2169          73.00       316.05
 1028.77        2952.00           2172          81.00       350.92
 1028.80        2952.25           2176          71.00       307.33
 1028.83        2952.50           2179          76.00       329.12
 1028.86        2952.75           2183          83.00       359.64
 1028.90        2953.00           2186          69.00       298.61
 1028.93        2953.25           2190          77.00       333.48
 1028.96        2953.50           2193          82.00       355.28
 1028.99        2953.75           2197          73.00       316.05
 1029.02        2954.00           2200          77.00       333.48
 1029.05        2954.25           2204          85.00       368.36
 1029.08        2954.50           2208          85.00       368.36
 1029.11        2954.75           2211          83.00       359.64
 1029.14        2955.00           2215          79.00       342.20
 1029.17        2955.25           2218          83.00       359.64
 1029.20        2955.50           2222          84.00       364.00
 1029.23        2955.75           2225          84.00       364.00
 1029.26        2956.00           2229          87.00       377.08
 1029.29        2956.25           2232          92.00       398.87
 1029.32        2956.50           2236          91.00       394.51
 1029.35        2956.75           2239          83.00       359.64
 1029.38        2957.00           2243          94.00       407.59
 1029.42        2957.25           2246          82.00       355.28
 1029.45        2957.50           2250          89.00       385.79
 1029.48        2957.75           2254          82.00       355.28
 1029.51        2958.00           2257          79.00       342.20
 1029.54        2958.25           2261          87.00       377.08
 1029.57        2958.50           2264          88.00       381.43
 1029.60        2958.75           2268          89.00       385.79
 1029.63        2959.00           2271          99.00       429.39
 1029.66        2959.25           2275          88.00       381.43
 1029.69        2959.50           2278          95.00       411.95
 1029.72        2959.75           2282          96.00       416.31
 1029.75        2960.00           2285          85.00       368.36
 1029.78        2960.25           2289          90.00       390.15
 1029.81        2960.50           2293          93.00       403.23
 1029.84        2960.75           2296         100.00       433.75
 1029.87        2961.00           2300         136.00       590.68
 1029.90        2961.25           2303         271.00      1179.21
 1029.94        2961.50           2307         874.00      3808.25
 1029.97        2961.75           2310        1558.00      6791.02
 1030.00        2962.00           2314        2766.00     12060.31
 1030.03        2962.25           2317        3635.00     15852.05
 1030.06        2962.50           2321        4915.00     21438.90
 1030.09        2962.75           2324        5799.00     25298.56
 1030.12        2963.00           2328        6968.00     30404.13
 1030.15        2963.25           2331        7836.00     34196.24
 1030.18        2963.50           2335        8949.00     39060.13
 1030.21        2963.75           2339       10173.00     44410.95
 1030.24        2964.00           2342       11192.00     48867.09
 1030.27        2964.25           2346       12575.00     54917.18
 1030.30        2964.50           2349       13258.00     57905.96
 1030.33        2964.75           2353       14568.00     63640.17
 1030.36        2965.00           2356       15463.00     67559.11
 1030.39        2965.25           2360       16597.00     72526.05
 1030.42        2965.50           2363       17596.00     76903.08
 1030.46        2965.75           2367       18487.00     80808.03
 1030.49        2966.00           2370       19427.00     84928.84
 1030.52        2966.25           2374       20373.00     89077.12
 1030.55        2966.50           2378       20735.00     90664.84
 1030.58        2966.75           2381       20653.00     90305.19
 1030.61        2967.00           2385       20836.00     91107.85
 1030.64        2967.25           2388       21015.00     91893.02
 1030.67        2967.50           2392       20905.00     91410.51
 1030.70        2967.75           2395       20468.00     89493.78
 1030.73        2968.00           2399       19575.00     85577.76
 1030.76        2968.25           2402       18964.00     82898.98
 1030.79        2968.50           2406       17921.00     78327.33
 1030.82        2968.75           2409       17133.00     74874.33
 1030.85        2969.00           2413       15883.00     69398.52
 1030.88        2969.25           2417       14713.00     64275.01
 1030.91        2969.50           2420       13901.00     60720.26
 1030.94        2969.75           2424       12825.00     56011.10
 1030.97        2970.00           2427       11999.00     52397.10
 1031.01        2970.25           2431       10661.00     46544.83
 1031.04        2970.50           2434        9818.00     42858.84
 1031.07        2970.75           2438        8473.00     36979.77
 1031.10        2971.00           2441        7495.00     32706.36
 1031.13        2971.25           2445        6606.00     28822.92
 1031.16        2971.50           2449        5349.00     23333.68
 1031.19        2971.75           2452        4476.00     19522.54
 1031.22        2972.00           2456        3370.00     14695.66
 1031.25        2972.25           2459        2459.00     10720.99
 1031.28        2972.50           2463        1259.00      5487.07
 1031.31        2972.75           2466         588.00      2561.25
 1031.34        2973.00           2470         175.00       760.70
 1031.37        2973.25           2473         125.00       542.73
 1031.40        2973.50           2477         120.00       520.93
 1031.43        2973.75           2481         123.00       534.01
 1031.46        2974.00           2484          88.00       381.43
 1031.49        2974.25           2488         139.00       603.76
 1031.53        2974.50           2491         101.00       438.11
 1031.56        2974.75           2495          88.00       381.43
 1031.59        2975.00           2498         117.00       507.86
 1031.62        2975.25           2502          88.00       381.43
 1031.65        2975.50           2505          91.00       394.51
 1031.68        2975.75           2509         102.00       442.47
 1031.71        2976.00           2512          86.00       372.72
 1031.74        2976.25           2516          90.00       390.15
 1031.77        2976.50           2520          94.00       407.59
 1031.80        2976.75           2523          89.00       385.79
 1031.83        2977.00           2527          90.00       390.15
 1031.86        2977.25           2530          87.00       377.08
 1031.89        2977.50           2534          88.00       381.43
 1031.92        2977.75           2537          85.00       368.36
 1031.95        2978.00           2541          86.00       372.72
 1031.98        2978.25           2544          88.00       381.43
 1032.02        2978.50           2548          85.00       368.36
 1032.05        2978.75           2552          83.00       359.64
 1032.08        2979.00           2555          86.00       372.72
 1032.11        2979.25           2559          80.00       346.56
 1032.14        2979.50           2562          76.00       329.12
 1032.17        2979.75           2566          68.00       294.25
 1032.20        2980.00           2569          78.00       337.84
 1032.23        2980.25           2573          75.00       324.76
 1032.26        2980.50           2577          80.00       346.56
 1032.29        2980.75           2580          72.00       311.69
 1032.32        2981.00           2584          73.00       316.05
 1032.35        2981.25           2587          79.00       342.20
 1032.38        2981.50           2591          70.00       302.97
 1032.41        2981.75           2594          77.00       333.48
 1032.44        2982.00           2598          74.00       320.40
 1032.47        2982.25           2601          74.00       320.40
 1032.50        2982.50           2605          72.00       311.69
 1032.53        2982.75           2609          65.00       281.17
 1032.57        2983.00           2612          68.00       294.25
 1032.60        2983.25           2616          70.00       302.97
 1032.63        2983.50           2619          74.00       320.40
 1032.66        2983.75           2623          66.00       285.53
 1032.69        2984.00           2626          68.00       294.25
HS scan finished at 17:12:55
end
