************************************************************
  HS Scan of 
************************************************************
Integration time is 0.2294 seconds per sample
dh120117Reading 51.44 .94 2.66pr1000
************************************************************
Dead Time -------------------------  3.4E-08 
Number of Cycles Used -------------  4 
Starting Wavelength (Angstroms) ---  2950 
Final Wavelength (Angstoms) -------  2984 
Wavelength Increment (Angstroms) --  .25 
Filter Wheel #1 Position ---------- (1) Ground quartz diffuser (ND=2.32)
Filter Wheel #2 Position ---------- (1) Neutral Density 0.494



************************************************************
HS scan start time = 17:07:18
Dark Count =  .5 


Time (GMT)  Wavelength (Ang)  Step Number  Raw Counts  Counts/Second

 1028.20        2950.00           2144         799.00      3481.23
 1028.39        2950.25           2147         813.00      3542.28
 1028.42        2950.50           2151         803.00      3498.67
 1028.45        2950.75           2155         809.00      3524.83
 1028.48        2951.00           2158         816.00      3555.36
 1028.51        2951.25           2162         811.00      3533.55
 1028.54        2951.50           2165         810.00      3529.19
 1028.58        2951.75           2169         821.00      3577.16
 1028.61        2952.00           2172         827.00      3603.32
 1028.64        2952.25           2176         798.00      3476.87
 1028.67        2952.50           2179         793.00      3455.07
 1028.70        2952.75           2183         785.00      3420.19
 1028.73        2953.00           2186         808.00      3520.47
 1028.76        2953.25           2190         789.00      3437.63
 1028.79        2953.50           2193         800.00      3485.59
 1028.82        2953.75           2197         816.00      3555.36
 1028.85        2954.00           2200         789.00      3437.63
 1028.88        2954.25           2204         797.00      3472.51
 1028.91        2954.50           2208         780.00      3398.39
 1028.94        2954.75           2211         828.00      3607.68
 1028.97        2955.00           2215         828.00      3607.68
 1029.00        2955.25           2218         816.00      3555.36
 1029.03        2955.50           2222         800.00      3485.59
 1029.06        2955.75           2225         853.00      3716.69
 1029.09        2956.00           2229         805.00      3507.39
 1029.13        2956.25           2232         849.00      3699.24
 1029.16        2956.50           2236         864.00      3764.65
 1029.19        2956.75           2239         828.00      3607.68
 1029.22        2957.00           2243         853.00      3716.69
 1029.25        2957.25           2246         828.00      3607.68
 1029.28        2957.50           2250         885.00      3856.22
 1029.31        2957.75           2254         846.00      3686.16
 1029.34        2958.00           2257         850.00      3703.60
 1029.37        2958.25           2261         893.00      3891.10
 1029.40        2958.50           2264         861.00      3751.57
 1029.43        2958.75           2268         885.00      3856.22
 1029.46        2959.00           2271         864.00      3764.65
 1029.49        2959.25           2275         925.00      4030.63
 1029.52        2959.50           2278         903.00      3934.70
 1029.55        2959.75           2282         869.00      3786.45
 1029.58        2960.00           2285         924.00      4026.27
 1029.61        2960.25           2289         924.00      4026.27
 1029.65        2960.50           2293         925.00      4030.63
 1029.68        2960.75           2296         943.00      4109.12
 1029.71        2961.00           2300         979.00      4266.09
 1029.74        2961.25           2303        1069.00      4658.54
 1029.77        2961.50           2307        2135.00      9307.65
 1029.80        2961.75           2310        5478.00     23896.92
 1029.83        2962.00           2314       11666.00     50940.37
 1029.86        2962.25           2317       17076.00     74624.59
 1029.89        2962.50           2321       24832.00    108646.00
 1029.92        2962.75           2324       31577.00    138297.00
 1029.95        2963.00           2328       40428.00    177297.00
 1029.98        2963.25           2331       46362.00    203502.10
 1030.01        2963.50           2335       55544.00    244143.40
 1030.04        2963.75           2339       64947.00    285879.90
 1030.07        2964.00           2342       71789.00    316324.10
 1030.10        2964.25           2346       81236.00    358464.00
 1030.13        2964.50           2349       87426.00    386141.50
 1030.17        2964.75           2353       95575.00    422658.50
 1030.20        2965.00           2356      102332.00    453007.20
 1030.23        2965.25           2360      110434.00    489480.20
 1030.26        2965.50           2363      117006.00    519132.80
 1030.29        2965.75           2367      124955.00    555079.10
 1030.32        2966.00           2370      130580.00    580569.60
 1030.35        2966.25           2374      138187.00    615113.10
 1030.38        2966.50           2378      145314.00    647551.50
 1030.41        2966.75           2381      146914.00    654843.80
 1030.44        2967.00           2385      147413.00    657118.80
 1030.47        2967.25           2388      147710.00    658473.10
 1030.50        2967.50           2392      147345.00    656808.90
 1030.53        2967.75           2395      147785.00    658815.10
 1030.56        2968.00           2399      145442.00    648134.80
 1030.59        2968.25           2402      140975.00    627794.00
 1030.62        2968.50           2406      134044.00    596289.60
 1030.65        2968.75           2409      128879.00    572856.50
 1030.69        2969.00           2413      120528.00    535048.60
 1030.72        2969.25           2417      112203.00    497455.90
 1030.75        2969.50           2420      106373.00    471187.30
 1030.78        2969.75           2424       97063.00    429336.30
 1030.81        2970.00           2427       90403.00    399471.40
 1030.84        2970.25           2431       81697.00    360523.50
 1030.87        2970.50           2434       75083.00    331003.80
 1030.90        2970.75           2438       66528.00    292909.10
 1030.93        2971.00           2441       60247.00    265003.50
 1030.96        2971.25           2445       52205.00    229351.30
 1030.99        2971.50           2449       44285.00    194324.60
 1031.02        2971.75           2452       37557.00    164635.20
 1031.05        2972.00           2456       29447.00    128927.00
 1031.08        2972.25           2459       23321.00    102011.90
 1031.11        2972.50           2463       15238.00     66573.80
 1031.14        2972.75           2466        9210.00     40200.95
 1031.17        2973.00           2470        3227.00     14071.68
 1031.21        2973.25           2473        1494.00      6511.90
 1031.24        2973.50           2477        1007.00      4388.19
 1031.27        2973.75           2481         952.00      4148.36
 1031.30        2974.00           2484         941.00      4100.40
 1031.33        2974.25           2488         969.00      4222.49
 1031.36        2974.50           2491         915.00      3987.03
 1031.39        2974.75           2495         885.00      3856.22
 1031.42        2975.00           2498         911.00      3969.59
 1031.45        2975.25           2502         885.00      3856.22
 1031.48        2975.50           2505         868.00      3782.09
 1031.51        2975.75           2509         861.00      3751.57
 1031.54        2976.00           2512         865.00      3769.01
 1031.57        2976.25           2516         870.00      3790.81
 1031.60        2976.50           2520         823.00      3585.88
 1031.63        2976.75           2523         885.00      3856.22
 1031.66        2977.00           2527         835.00      3638.20
 1031.69        2977.25           2530         859.00      3742.85
 1031.73        2977.50           2534         801.00      3489.95
 1031.76        2977.75           2537         809.00      3524.83
 1031.79        2978.00           2541         828.00      3607.68
 1031.82        2978.25           2544         817.00      3559.72
 1031.85        2978.50           2548         833.00      3629.48
 1031.88        2978.75           2552         802.00      3494.31
 1031.91        2979.00           2555         793.00      3455.07
 1031.94        2979.25           2559         806.00      3511.75
 1031.97        2979.50           2562         789.00      3437.63
 1032.00        2979.75           2566         751.00      3271.94
 1032.03        2980.00           2569         746.00      3250.14
 1032.06        2980.25           2573         764.00      3328.62
 1032.09        2980.50           2577         774.00      3372.23
 1032.12        2980.75           2580         771.00      3359.15
 1032.15        2981.00           2584         776.00      3380.95
 1032.18        2981.25           2587         743.00      3237.06
 1032.21        2981.50           2591         770.00      3354.79
 1032.24        2981.75           2594         728.00      3171.66
 1032.28        2982.00           2598         775.00      3376.59
 1032.31        2982.25           2601         759.00      3306.82
 1032.34        2982.50           2605         734.00      3197.82
 1032.37        2982.75           2609         731.00      3184.74
 1032.40        2983.00           2612         723.00      3149.86
 1032.43        2983.25           2616         722.00      3145.50
 1032.46        2983.50           2619         726.00      3162.94
 1032.49        2983.75           2623         716.00      3119.34
 1032.52        2984.00           2626         721.00      3141.14
HS scan finished at 17:12:45
end
