************************************************************
  HS Scan of (1) Internal mercury lamp
************************************************************
Integration time is 0.2294 seconds per sample
dh120119Reading 51.44 .94 2.9pr1000
************************************************************
Dead Time -------------------------  3.4E-08 
Number of Cycles Used -------------  4 
Starting Wavelength (Angstroms) ---  2950 
Final Wavelength (Angstoms) -------  2984 
Wavelength Increment (Angstroms) --  .25 
Filter Wheel #1 Position ---------- (1) Ground quartz diffuser (ND=2.32)
Filter Wheel #2 Position ---------- (1) Neutral Density 0.494



************************************************************
HS scan start time = 05:15:01
Dark Count =  .6 


Time (GMT)  Wavelength (Ang)  Step Number  Raw Counts  Counts/Second

  315.92        2950.00           2144        1516.00      6607.41
  316.11        2950.25           2147        1568.00      6834.19
  316.14        2950.50           2151        1531.00      6672.83
  316.18        2950.75           2155        1524.00      6642.30
  316.21        2951.00           2158        1525.00      6646.66
  316.24        2951.25           2162        1551.00      6760.05
  316.27        2951.50           2165        1540.00      6712.08
  316.30        2951.75           2169        1594.00      6947.59
  316.33        2952.00           2172        1547.00      6742.61
  316.36        2952.25           2176        1541.00      6716.44
  316.39        2952.50           2179        1559.00      6794.94
  316.42        2952.75           2183        1574.00      6860.36
  316.45        2953.00           2186        1540.00      6712.08
  316.48        2953.25           2190        1585.00      6908.34
  316.51        2953.50           2193        1594.00      6947.59
  316.54        2953.75           2197        1602.00      6982.48
  316.57        2954.00           2200        1568.00      6834.19
  316.60        2954.25           2204        1622.00      7069.70
  316.63        2954.50           2208        1618.00      7052.26
  316.66        2954.75           2211        1599.00      6969.39
  316.70        2955.00           2215        1601.00      6978.12
  316.73        2955.25           2218        1647.00      7178.74
  316.76        2955.50           2222        1662.00      7244.16
  316.79        2955.75           2225        1646.00      7174.37
  316.82        2956.00           2229        1655.00      7213.63
  316.85        2956.25           2232        1640.00      7148.21
  316.88        2956.50           2236        1677.00      7309.58
  316.91        2956.75           2239        1680.00      7322.66
  316.94        2957.00           2243        1719.00      7492.75
  316.97        2957.25           2246        1696.00      7392.44
  317.00        2957.50           2250        1722.00      7505.84
  317.03        2957.75           2254        1739.00      7579.98
  317.06        2958.00           2257        1797.00      7832.95
  317.09        2958.25           2261        1778.00      7750.08
  317.12        2958.50           2264        1799.00      7841.67
  317.15        2958.75           2268        1801.00      7850.40
  317.18        2959.00           2271        1805.00      7867.84
  317.22        2959.25           2275        1850.00      8064.11
  317.25        2959.50           2278        1822.00      7941.99
  317.28        2959.75           2282        1871.00      8155.70
  317.31        2960.00           2285        1919.00      8365.06
  317.34        2960.25           2289        1953.00      8513.36
  317.37        2960.50           2293        1952.00      8509.00
  317.40        2960.75           2296        2028.00      8840.50
  317.43        2961.00           2300        2118.00      9233.06
  317.46        2961.25           2303        2697.00     11758.84
  317.49        2961.50           2307        6917.00     30180.91
  317.52        2961.75           2310       15153.00     66201.16
  317.55        2962.00           2314       33114.00    145061.60
  317.58        2962.25           2317       48531.00    213091.90
  317.61        2962.50           2321       71813.00    316430.60
  317.64        2962.75           2324       88696.00    391826.10
  317.67        2963.00           2328      112884.00    500527.00
  317.70        2963.25           2331      130951.00    582251.90
  317.74        2963.50           2335      156019.00    696411.00
  317.77        2963.75           2339      177929.00    796928.50
  317.80        2964.00           2342      195378.00    877481.20
  317.83        2964.25           2346      219489.00    989531.40
  317.86        2964.50           2349      237705.00   1074766.00
  317.89        2964.75           2353      261224.00   1185563.00
  317.92        2965.00           2356      277568.00   1263064.00
  317.95        2965.25           2360      299827.00   1369290.00
  317.98        2965.50           2363      317044.00   1451996.00
  318.01        2965.75           2367      339107.00   1558684.00
  318.04        2966.00           2370      356367.00   1642705.00
  318.07        2966.25           2374      375250.00   1735196.00
  318.10        2966.50           2378      390380.00   1809740.00
  318.13        2966.75           2381      396388.00   1839449.00
  318.16        2967.00           2385      399288.00   1853812.00
  318.19        2967.25           2388      400200.00   1858332.00
  318.22        2967.50           2392      399692.00   1855814.00
  318.26        2967.75           2395      398863.00   1851706.00
  318.29        2968.00           2399      396124.00   1838142.00
  318.32        2968.25           2402      387227.00   1794173.00
  318.35        2968.50           2406      370231.00   1710554.00
  318.38        2968.75           2409      355985.00   1640840.00
  318.41        2969.00           2413      336293.00   1545033.00
  318.44        2969.25           2417      314483.00   1439664.00
  318.47        2969.50           2420      295589.00   1349005.00
  318.50        2969.75           2424      269939.00   1226837.00
  318.53        2970.00           2427      252634.00   1144997.00
  318.56        2970.25           2431      228908.00   1033541.00
  318.59        2970.50           2434      211824.00    953816.10
  318.62        2970.75           2438      187954.00    843153.80
  318.65        2971.00           2441      170461.00    762589.00
  318.68        2971.25           2445      144865.00    645505.30
  318.71        2971.50           2449      118677.00    526681.30
  318.74        2971.75           2452      100101.00    442979.40
  318.78        2972.00           2456       76342.00    336617.90
  318.81        2972.25           2459       59002.00    259477.90
  318.84        2972.50           2463       36572.00    160293.20
  318.87        2972.75           2466       21761.00     95165.31
  318.90        2973.00           2470        7921.00     34567.19
  318.93        2973.25           2473        3644.00     15890.89
  318.96        2973.50           2477        2204.00      9608.20
  318.99        2973.75           2481        2014.00      8779.43
  319.02        2974.00           2484        2003.00      8731.45
  319.05        2974.25           2488        1988.00      8666.02
  319.08        2974.50           2491        1926.00      8395.60
  319.11        2974.75           2495        1981.00      8635.49
  319.14        2975.00           2498        1882.00      8203.68
  319.17        2975.25           2502        1853.00      8077.20
  319.20        2975.50           2505        1808.00      7880.93
  319.23        2975.75           2509        1779.00      7754.44
  319.26        2976.00           2512        1787.00      7789.33
  319.30        2976.25           2516        1740.00      7584.34
  319.33        2976.50           2520        1710.00      7453.50
  319.36        2976.75           2523        1733.00      7553.82
  319.39        2977.00           2527        1678.00      7313.94
  319.42        2977.25           2530        1691.00      7370.64
  319.45        2977.50           2534        1679.00      7318.30
  319.48        2977.75           2537        1647.00      7178.74
  319.51        2978.00           2541        1676.00      7305.22
  319.54        2978.25           2544        1618.00      7052.26
  319.57        2978.50           2548        1604.00      6991.20
  319.60        2978.75           2552        1634.00      7122.04
  319.63        2979.00           2555        1569.00      6838.56
  319.66        2979.25           2559        1557.00      6786.22
  319.69        2979.50           2562        1525.00      6646.66
  319.72        2979.75           2566        1530.00      6668.47
  319.75        2980.00           2569        1523.00      6637.94
  319.78        2980.25           2573        1524.00      6642.30
  319.82        2980.50           2577        1492.00      6502.75
  319.85        2980.75           2580        1475.00      6428.61
  319.88        2981.00           2584        1480.00      6450.41
  319.91        2981.25           2587        1509.00      6576.89
  319.94        2981.50           2591        1469.00      6402.44
  319.97        2981.75           2594        1530.00      6668.47
  320.00        2982.00           2598        1460.00      6363.19
  320.03        2982.25           2601        1483.00      6463.50
  320.06        2982.50           2605        1464.00      6380.64
  320.09        2982.75           2609        1466.00      6389.36
  320.12        2983.00           2612        1475.00      6428.61
  320.15        2983.25           2616        1432.00      6241.08
  320.18        2983.50           2619        1435.00      6254.16
  320.21        2983.75           2623        1423.00      6201.83
  320.24        2984.00           2626        1428.00      6223.64
HS scan finished at 05:20:28
end
************************************************************
  HS Scan of (1) Internal mercury lamp
************************************************************
Integration time is 0.2294 seconds per sample
dh120119Reading 51.44 .94 2.96pr1000
************************************************************
Dead Time -------------------------  3.4E-08 
Number of Cycles Used -------------  4 
Starting Wavelength (Angstroms) ---  2950 
Final Wavelength (Angstoms) -------  2984 
Wavelength Increment (Angstroms) --  .25 
Filter Wheel #1 Position ---------- (1) Ground quartz diffuser (ND=2.32)
Filter Wheel #2 Position ---------- (1) Neutral Density 0.494



************************************************************
HS scan start time = 17:07:30
Dark Count =  .8 


Time (GMT)  Wavelength (Ang)  Step Number  Raw Counts  Counts/Second

 1028.40        2950.00           2144        1416.00      6170.43
 1028.60        2950.25           2147        1461.00      6366.68
 1028.63        2950.50           2151        1419.00      6183.51
 1028.66        2950.75           2155        1433.00      6244.57
 1028.69        2951.00           2158        1486.00      6475.71
 1028.72        2951.25           2162        1449.00      6314.35
 1028.75        2951.50           2165        1488.00      6484.43
 1028.78        2951.75           2169        1463.00      6375.40
 1028.81        2952.00           2172        1463.00      6375.40
 1028.84        2952.25           2176        1477.00      6436.46
 1028.87        2952.50           2179        1471.00      6410.29
 1028.90        2952.75           2183        1481.00      6453.90
 1028.93        2953.00           2186        1491.00      6497.51
 1028.97        2953.25           2190        1532.00      6676.32
 1029.00        2953.50           2193        1518.00      6615.26
 1029.03        2953.75           2197        1551.00      6759.18
 1029.06        2954.00           2200        1539.00      6706.85
 1029.09        2954.25           2204        1566.00      6824.60
 1029.12        2954.50           2208        1530.00      6667.60
 1029.15        2954.75           2211        1499.00      6532.40
 1029.18        2955.00           2215        1546.00      6737.38
 1029.21        2955.25           2218        1530.00      6667.60
 1029.24        2955.50           2222        1555.00      6776.63
 1029.27        2955.75           2225        1540.00      6711.21
 1029.30        2956.00           2229        1593.00      6942.35
 1029.33        2956.25           2232        1562.00      6807.16
 1029.36        2956.50           2236        1599.00      6968.52
 1029.39        2956.75           2239        1617.00      7047.02
 1029.42        2957.00           2243        1594.00      6946.72
 1029.45        2957.25           2246        1611.00      7020.86
 1029.48        2957.50           2250        1620.00      7060.11
 1029.52        2957.75           2254        1700.00      7409.01
 1029.55        2958.00           2257        1663.00      7247.64
 1029.58        2958.25           2261        1687.00      7352.32
 1029.61        2958.50           2264        1703.00      7422.10
 1029.64        2958.75           2268        1712.00      7461.35
 1029.67        2959.00           2271        1739.00      7579.11
 1029.70        2959.25           2275        1783.00      7771.02
 1029.73        2959.50           2278        1738.00      7574.75
 1029.76        2959.75           2282        1794.00      7818.99
 1029.79        2960.00           2285        1776.00      7740.49
 1029.82        2960.25           2289        1835.00      7997.82
 1029.85        2960.50           2293        1892.00      8246.43
 1029.88        2960.75           2296        1906.00      8307.49
 1029.91        2961.00           2300        1974.00      8604.09
 1029.96        2961.25           2303        2242.00      9773.08
 1029.99        2961.50           2307        4806.00     20961.75
 1030.02        2961.75           2310       12073.00     52719.53
 1030.05        2962.00           2314       28436.00    124480.40
 1030.08        2962.25           2317       43811.00    192229.60
 1030.11        2962.50           2321       66081.00    290920.10
 1030.14        2962.75           2324       82086.00    362260.20
 1030.17        2963.00           2328      102725.00    454772.90
 1030.20        2963.25           2331      120040.00    532841.00
 1030.23        2963.50           2335      143550.00    639514.60
 1030.26        2963.75           2339      167504.00    749013.60
 1030.30        2964.00           2342      183822.00    824082.30
 1030.33        2964.25           2346      205842.00    926002.70
 1030.36        2964.50           2349      222879.00   1005355.00
 1030.39        2964.75           2353      244580.00   1107065.00
 1030.42        2965.00           2356      260466.00   1181978.00
 1030.45        2965.25           2360      284007.00   1293711.00
 1030.48        2965.50           2363      301551.00   1377549.00
 1030.51        2965.75           2367      323024.00   1480834.00
 1030.54        2966.00           2370      338349.00   1555005.00
 1030.57        2966.25           2374      355322.00   1637603.00
 1030.60        2966.50           2378      370595.00   1712339.00
 1030.63        2966.75           2381      375698.00   1737397.00
 1030.66        2967.00           2385      377780.00   1747633.00
 1030.69        2967.25           2388      378201.00   1749704.00
 1030.72        2967.50           2392      378216.00   1749777.00
 1030.75        2967.75           2395      378641.00   1751868.00
 1030.78        2968.00           2399      374144.00   1729761.00
 1030.82        2968.25           2402      367602.00   1697662.00
 1030.85        2968.50           2406      351353.00   1618245.00
 1030.88        2968.75           2409      337489.00   1550832.00
 1030.91        2969.00           2413      315288.00   1443538.00
 1030.94        2969.25           2417      295791.00   1349970.00
 1030.97        2969.50           2420      279989.00   1274579.00
 1031.00        2969.75           2424      259003.00   1175063.00
 1031.03        2970.00           2427      242731.00   1098371.00
 1031.06        2970.25           2431      221408.00    998486.00
 1031.09        2970.50           2434      203111.00    913323.20
 1031.12        2970.75           2438      179244.00    802982.60
 1031.15        2971.00           2441      161583.00    721870.50
 1031.18        2971.25           2445      137862.00    613634.30
 1031.21        2971.50           2449      115644.00    512981.20
 1031.24        2971.75           2452       99304.00    439398.00
 1031.27        2972.00           2456       78521.00    346339.50
 1031.30        2972.25           2459       62499.00    275001.40
 1031.34        2972.50           2463       40798.00    178928.30
 1031.37        2972.75           2466       25370.00    111007.60
 1031.40        2973.00           2470        9156.00     39963.60
 1031.43        2973.25           2473        3830.00     16701.72
 1031.46        2973.50           2477        2199.00      9585.51
 1031.49        2973.75           2481        1927.00      8399.09
 1031.52        2974.00           2484        1961.00      8547.38
 1031.55        2974.25           2488        1897.00      8268.24
 1031.58        2974.50           2491        1867.00      8137.39
 1031.61        2974.75           2495        1786.00      7784.10
 1031.64        2975.00           2498        1797.00      7832.08
 1031.67        2975.25           2502        1795.00      7823.35
 1031.70        2975.50           2505        1742.00      7592.20
 1031.73        2975.75           2509        1699.00      7404.65
 1031.76        2976.00           2512        1712.00      7461.35
 1031.79        2976.25           2516        1710.00      7452.63
 1031.82        2976.50           2520        1667.00      7265.09
 1031.86        2976.75           2523        1648.00      7182.22
 1031.89        2977.00           2527        1649.00      7186.59
 1031.92        2977.25           2530        1602.00      6981.60
 1031.95        2977.50           2534        1582.00      6894.38
 1031.98        2977.75           2537        1579.00      6881.30
 1032.01        2978.00           2541        1615.00      7038.30
 1032.04        2978.25           2544        1526.00      6650.15
 1032.07        2978.50           2548        1520.00      6623.99
 1032.10        2978.75           2552        1508.00      6571.65
 1032.13        2979.00           2555        1517.00      6610.90
 1032.16        2979.25           2559        1489.00      6488.79
 1032.19        2979.50           2562        1460.00      6362.32
 1032.22        2979.75           2566        1502.00      6545.48
 1032.25        2980.00           2569        1457.00      6349.23
 1032.28        2980.25           2573        1479.00      6445.18
 1032.31        2980.50           2577        1468.00      6397.21
 1032.34        2980.75           2580        1456.00      6344.87
 1032.37        2981.00           2584        1427.00      6218.40
 1032.41        2981.25           2587        1445.00      6296.90
 1032.44        2981.50           2591        1416.00      6170.43
 1032.47        2981.75           2594        1420.00      6187.88
 1032.50        2982.00           2598        1423.00      6200.96
 1032.53        2982.25           2601        1397.00      6087.57
 1032.56        2982.50           2605        1380.00      6013.43
 1032.59        2982.75           2609        1385.00      6035.24
 1032.62        2983.00           2612        1428.00      6222.76
 1032.65        2983.25           2616        1384.00      6030.88
 1032.68        2983.50           2619        1366.00      5952.38
 1032.71        2983.75           2623        1396.00      6083.21
 1032.74        2984.00           2626        1403.00      6113.74
HS scan finished at 17:12:58
end
