************************************************************
  HS Scan of (1) Internal mercury lamp
************************************************************
Integration time is 0.2294 seconds per sample
dh150119Reading 51.44 .94 2.49pr1000
************************************************************
Dead Time -------------------------  3.4E-08 
Number of Cycles Used -------------  4 
Starting Wavelength (Angstroms) ---  2950 
Final Wavelength (Angstoms) -------  2984 
Wavelength Increment (Angstroms) --  .25 
Filter Wheel #1 Position ---------- (1) Ground quartz diffuser (ND=2.32)
Filter Wheel #2 Position ---------- (1) Neutral Density 0.494



************************************************************
HS scan start time = 05:16:39
Dark Count =  .4 


Time (GMT)  Wavelength (Ang)  Step Number  Raw Counts  Counts/Second

  317.55        2950.00           2144        1543.00      6726.04
  317.74        2950.25           2147        1589.00      6926.65
  317.78        2950.50           2151        1563.00      6813.26
  317.81        2950.75           2155        1549.00      6752.20
  317.84        2951.00           2158        1582.00      6896.12
  317.87        2951.25           2162        1562.00      6808.90
  317.90        2951.50           2165        1588.00      6922.29
  317.93        2951.75           2169        1586.00      6913.57
  317.96        2952.00           2172        1593.00      6944.10
  317.99        2952.25           2176        1573.00      6856.87
  318.02        2952.50           2179        1591.00      6935.38
  318.05        2952.75           2183        1585.00      6909.21
  318.08        2953.00           2186        1603.00      6987.71
  318.11        2953.25           2190        1600.00      6974.63
  318.14        2953.50           2193        1626.00      7088.02
  318.17        2953.75           2197        1606.00      7000.79
  318.20        2954.00           2200        1625.00      7083.66
  318.23        2954.25           2204        1630.00      7105.47
  318.26        2954.50           2208        1628.00      7096.74
  318.30        2954.75           2211        1627.00      7092.38
  318.33        2955.00           2215        1601.00      6978.99
  318.36        2955.25           2218        1680.00      7323.53
  318.39        2955.50           2222        1665.00      7258.11
  318.42        2955.75           2225        1689.00      7362.78
  318.45        2956.00           2229        1664.00      7253.75
  318.48        2956.25           2232        1650.00      7192.69
  318.51        2956.50           2236        1677.00      7310.45
  318.54        2956.75           2239        1672.00      7288.64
  318.57        2957.00           2243        1725.00      7519.80
  318.60        2957.25           2246        1704.00      7428.21
  318.63        2957.50           2250        1722.00      7506.71
  318.66        2957.75           2254        1746.00      7611.39
  318.69        2958.00           2257        1764.00      7689.89
  318.72        2958.25           2261        1766.00      7698.61
  318.75        2958.50           2264        1809.00      7886.16
  318.78        2958.75           2268        1795.00      7825.10
  318.81        2959.00           2271        1809.00      7886.16
  318.85        2959.25           2275        1812.00      7899.24
  318.88        2959.50           2278        1841.00      8025.73
  318.91        2959.75           2282        1852.00      8073.71
  318.94        2960.00           2285        1894.00      8256.89
  318.97        2960.25           2289        1929.00      8409.55
  319.00        2960.50           2293        1928.00      8405.19
  319.03        2960.75           2296        1972.00      8597.11
  319.06        2961.00           2300        2041.00      8898.07
  319.09        2961.25           2303        2435.00     10616.74
  319.12        2961.50           2307        5612.00     24482.45
  319.15        2961.75           2310       13176.00     57547.53
  319.18        2962.00           2314       30131.00    131935.80
  319.21        2962.25           2317       44189.00    193901.00
  319.24        2962.50           2321       62317.00    274194.70
  319.27        2962.75           2324       75000.00    330634.20
  319.30        2963.00           2328       95731.00    423359.00
  319.33        2963.25           2331      111699.00    495183.60
  319.37        2963.50           2335      134933.00    600327.00
  319.40        2963.75           2339      156426.00    698272.80
  319.43        2964.00           2342      171526.00    767481.90
  319.46        2964.25           2346      191012.00    857284.60
  319.49        2964.50           2349      207225.00    932429.90
  319.52        2964.75           2353      228913.00   1033565.00
  319.55        2965.00           2356      243982.00   1104254.00
  319.58        2965.25           2360      263244.00   1195120.00
  319.61        2965.50           2363      278859.00   1269205.00
  319.64        2965.75           2367      297824.00   1359700.00
  319.67        2966.00           2370      311298.00   1424342.00
  319.70        2966.25           2374      328335.00   1506497.00
  319.73        2966.50           2378      339936.00   1562710.00
  319.76        2966.75           2381      345243.00   1588498.00
  319.79        2967.00           2385      346870.00   1596414.00
  319.82        2967.25           2388      346630.00   1595246.00
  319.85        2967.50           2392      346367.00   1593966.00
  319.89        2967.75           2395      346177.00   1593042.00
  319.92        2968.00           2399      342492.00   1575124.00
  319.95        2968.25           2402      333784.00   1532872.00
  319.98        2968.50           2406      317100.00   1452267.00
  320.01        2968.75           2409      302664.00   1382886.00
  320.04        2969.00           2413      283927.00   1293332.00
  320.07        2969.25           2417      264879.00   1202860.00
  320.10        2969.50           2420      251669.00   1140448.00
  320.13        2969.75           2424      231764.00   1046913.00
  320.16        2970.00           2427      216698.00    976517.30
  320.19        2970.25           2431      195830.00    879574.80
  320.22        2970.50           2434      179791.00    805504.00
  320.25        2970.75           2438      159081.00    710417.80
  320.28        2971.00           2441      143554.00    639534.60
  320.31        2971.25           2445      122210.00    542656.30
  320.34        2971.50           2449      103466.00    458107.10
  320.37        2971.75           2452       89224.00    394191.30
  320.41        2972.00           2456       70401.00    310143.40
  320.44        2972.25           2459       55268.00    242920.50
  320.47        2972.50           2463       33904.00    148540.80
  320.50        2972.75           2466       19101.00     83500.02
  320.53        2973.00           2470        6943.00     30295.36
  320.56        2973.25           2473        3496.00     15245.91
  320.59        2973.50           2477        2197.00      9578.53
  320.62        2973.75           2481        1957.00      8531.68
  320.65        2974.00           2484        1943.00      8470.62
  320.68        2974.25           2488        1889.00      8235.09
  320.71        2974.50           2491        1884.00      8213.28
  320.74        2974.75           2495        1885.00      8217.64
  320.77        2975.00           2498        1816.00      7916.69
  320.80        2975.25           2502        1828.00      7969.03
  320.83        2975.50           2505        1762.00      7681.17
  320.86        2975.75           2509        1729.00      7537.24
  320.89        2976.00           2512        1734.00      7559.05
  320.93        2976.25           2516        1695.00      7388.95
  320.96        2976.50           2520        1698.00      7402.04
  320.99        2976.75           2523        1704.00      7428.21
  321.02        2977.00           2527        1684.00      7340.98
  321.05        2977.25           2530        1710.00      7454.37
  321.08        2977.50           2534        1625.00      7083.66
  321.11        2977.75           2537        1644.00      7166.52
  321.14        2978.00           2541        1617.00      7048.77
  321.17        2978.25           2544        1610.00      7018.24
  321.20        2978.50           2548        1601.00      6978.99
  321.23        2978.75           2552        1566.00      6826.34
  321.26        2979.00           2555        1582.00      6896.12
  321.29        2979.25           2559        1581.00      6891.76
  321.32        2979.50           2562        1574.00      6861.23
  321.35        2979.75           2566        1576.00      6869.96
  321.38        2980.00           2569        1544.00      6730.40
  321.41        2980.25           2573        1563.00      6813.26
  321.45        2980.50           2577        1579.00      6883.04
  321.48        2980.75           2580        1541.00      6717.31
  321.51        2981.00           2584        1484.00      6468.73
  321.54        2981.25           2587        1479.00      6446.92
  321.57        2981.50           2591        1486.00      6477.45
  321.60        2981.75           2594        1475.00      6429.48
  321.63        2982.00           2598        1436.00      6259.40
  321.66        2982.25           2601        1483.00      6464.37
  321.69        2982.50           2605        1468.00      6398.95
  321.72        2982.75           2609        1465.00      6385.87
  321.75        2983.00           2612        1455.00      6342.26
  321.78        2983.25           2616        1506.00      6564.67
  321.81        2983.50           2619        1396.00      6084.96
  321.84        2983.75           2623        1435.00      6255.04
  321.87        2984.00           2626        1441.00      6281.20
HS scan finished at 05:22:06
end
************************************************************
  HS Scan of (1) Internal mercury lamp
************************************************************
Integration time is 0.2294 seconds per sample
dh150119Reading 51.44 .94 3.07pr1000
************************************************************
Dead Time -------------------------  3.4E-08 
Number of Cycles Used -------------  4 
Starting Wavelength (Angstroms) ---  2950 
Final Wavelength (Angstoms) -------  2984 
Wavelength Increment (Angstroms) --  .25 
Filter Wheel #1 Position ---------- (1) Ground quartz diffuser (ND=2.32)
Filter Wheel #2 Position ---------- (1) Neutral Density 0.494



************************************************************
HS scan start time = 17:07:26
Dark Count =  .9 


Time (GMT)  Wavelength (Ang)  Step Number  Raw Counts  Counts/Second

 1028.33        2950.00           2144        1201.00      5232.40
 1028.53        2950.25           2147        1166.00      5079.78
 1028.56        2950.50           2151        1163.00      5066.70
 1028.59        2950.75           2155        1161.00      5057.98
 1028.62        2951.00           2158        1236.00      5385.03
 1028.65        2951.25           2162        1172.00      5105.94
 1028.68        2951.50           2165        1206.00      5254.21
 1028.71        2951.75           2169        1221.00      5319.62
 1028.74        2952.00           2172        1157.00      5040.53
 1028.77        2952.25           2176        1210.00      5271.65
 1028.80        2952.50           2179        1189.00      5180.08
 1028.83        2952.75           2183        1221.00      5319.62
 1028.86        2953.00           2186        1230.00      5358.87
 1028.89        2953.25           2190        1216.00      5297.82
 1028.93        2953.50           2193        1201.00      5232.40
 1028.96        2953.75           2197        1209.00      5267.29
 1028.99        2954.00           2200        1253.00      5459.17
 1029.02        2954.25           2204        1203.00      5241.13
 1029.05        2954.50           2208        1199.00      5223.68
 1029.08        2954.75           2211        1248.00      5437.36
 1029.11        2955.00           2215        1249.00      5441.72
 1029.14        2955.25           2218        1254.00      5463.53
 1029.17        2955.50           2222        1282.00      5585.63
 1029.20        2955.75           2225        1244.00      5419.92
 1029.23        2956.00           2229        1291.00      5624.88
 1029.26        2956.25           2232        1305.00      5685.93
 1029.29        2956.50           2236        1314.00      5725.18
 1029.32        2956.75           2239        1319.00      5746.98
 1029.35        2957.00           2243        1338.00      5829.84
 1029.38        2957.25           2246        1317.00      5738.26
 1029.41        2957.50           2250        1351.00      5886.53
 1029.45        2957.75           2254        1327.00      5781.87
 1029.48        2958.00           2257        1323.00      5764.43
 1029.51        2958.25           2261        1363.00      5938.86
 1029.54        2958.50           2264        1366.00      5951.95
 1029.57        2958.75           2268        1399.00      6095.86
 1029.60        2959.00           2271        1372.00      5978.11
 1029.63        2959.25           2275        1441.00      6279.02
 1029.66        2959.50           2278        1460.00      6361.88
 1029.69        2959.75           2282        1440.00      6274.66
 1029.72        2960.00           2285        1489.00      6488.35
 1029.75        2960.25           2289        1501.00      6540.69
 1029.78        2960.50           2293        1535.00      6688.97
 1029.81        2960.75           2296        1553.00      6767.47
 1029.84        2961.00           2300        1594.00      6946.28
 1029.87        2961.25           2303        1745.00      7604.84
 1029.90        2961.50           2307        2926.00     12756.62
 1029.93        2961.75           2310        6918.00     30183.97
 1029.97        2962.00           2314       20058.00     87693.94
 1030.00        2962.25           2317       33974.00    148846.90
 1030.03        2962.50           2321       53921.00    236949.70
 1030.06        2962.75           2324       67947.00    299219.20
 1030.09        2963.00           2328       85632.00    378112.80
 1030.12        2963.25           2331      100284.00    443800.20
 1030.15        2963.50           2335      121052.00    537416.30
 1030.18        2963.75           2339      141347.00    629485.00
 1030.21        2964.00           2342      156688.00    699468.50
 1030.24        2964.25           2346      175967.00    787897.50
 1030.27        2964.50           2349      191228.00    858280.80
 1030.30        2964.75           2353      210428.00    947319.30
 1030.33        2965.00           2356      224343.00   1012193.00
 1030.36        2965.25           2360      242550.00   1097519.00
 1030.39        2965.50           2363      255393.00   1158013.00
 1030.42        2965.75           2367      272914.00   1240952.00
 1030.45        2966.00           2370      287608.00   1310879.00
 1030.49        2966.25           2374      305450.00   1396248.00
 1030.52        2966.50           2378      318630.00   1459638.00
 1030.55        2966.75           2381      322679.00   1479168.00
 1030.58        2967.00           2385      324956.00   1490163.00
 1030.61        2967.25           2388      325088.00   1490800.00
 1030.64        2967.50           2392      325668.00   1493603.00
 1030.67        2967.75           2395      324432.00   1487632.00
 1030.70        2968.00           2399      321775.00   1474805.00
 1030.73        2968.25           2402      314398.00   1439253.00
 1030.76        2968.50           2406      299431.00   1367392.00
 1030.79        2968.75           2409      286892.00   1307464.00
 1030.82        2969.00           2413      270127.00   1227727.00
 1030.85        2969.25           2417      252105.00   1142501.00
 1030.88        2969.50           2420      236678.00   1069945.00
 1030.91        2969.75           2424      217534.00    980412.20
 1030.94        2970.00           2427      203200.00    913735.60
 1030.97        2970.25           2431      184491.00    827167.80
 1031.00        2970.50           2434      171813.00    768798.30
 1031.04        2970.75           2438      152972.00    682485.80
 1031.07        2971.00           2441      137725.00    613011.00
 1031.10        2971.25           2445      117417.00    520987.30
 1031.13        2971.50           2449       96319.00    425995.30
 1031.16        2971.75           2452       82068.00    362179.30
 1031.19        2972.00           2456       63765.00    280625.10
 1031.22        2972.25           2459       50130.00    220164.60
 1031.25        2972.50           2463       31501.00    137960.80
 1031.28        2972.75           2466       18516.00     80933.38
 1031.31        2973.00           2470        6741.00     29410.83
 1031.34        2973.25           2473        3137.00     13677.24
 1031.37        2973.50           2477        1862.00      8115.14
 1031.40        2973.75           2481        1614.00      7033.50
 1031.43        2974.00           2484        1595.00      6950.64
 1031.46        2974.25           2488        1543.00      6723.86
 1031.49        2974.50           2491        1556.00      6780.55
 1031.52        2974.75           2495        1494.00      6510.16
 1031.56        2975.00           2498        1491.00      6497.08
 1031.59        2975.25           2502        1413.00      6156.91
 1031.62        2975.50           2505        1451.00      6322.63
 1031.65        2975.75           2509        1382.00      6021.72
 1031.68        2976.00           2512        1385.00      6034.80
 1031.71        2976.25           2516        1384.00      6030.44
 1031.74        2976.50           2520        1348.00      5873.45
 1031.77        2976.75           2523        1334.00      5812.40
 1031.80        2977.00           2527        1307.00      5694.65
 1031.83        2977.25           2530        1313.00      5720.82
 1031.86        2977.50           2534        1283.00      5589.99
 1031.89        2977.75           2537        1297.00      5651.04
 1031.92        2978.00           2541        1244.00      5419.92
 1031.95        2978.25           2544        1251.00      5450.44
 1031.98        2978.50           2548        1267.00      5520.22
 1032.01        2978.75           2552        1237.00      5389.39
 1032.04        2979.00           2555        1194.00      5201.88
 1032.08        2979.25           2559        1244.00      5419.92
 1032.11        2979.50           2562        1229.00      5354.51
 1032.14        2979.75           2566        1194.00      5201.88
 1032.17        2980.00           2569        1194.00      5201.88
 1032.20        2980.25           2573        1182.00      5149.55
 1032.23        2980.50           2577        1174.00      5114.66
 1032.26        2980.75           2580        1185.00      5162.63
 1032.29        2981.00           2584        1159.00      5049.25
 1032.32        2981.25           2587        1142.00      4975.12
 1032.35        2981.50           2591        1145.00      4988.20
 1032.38        2981.75           2594        1194.00      5201.88
 1032.41        2982.00           2598        1154.00      5027.45
 1032.44        2982.25           2601        1129.00      4918.43
 1032.47        2982.50           2605        1125.00      4900.99
 1032.50        2982.75           2609        1134.00      4940.24
 1032.53        2983.00           2612        1168.00      5088.50
 1032.56        2983.25           2616        1131.00      4927.16
 1032.60        2983.50           2619        1097.00      4778.89
 1032.63        2983.75           2623        1131.00      4927.16
 1032.66        2984.00           2626        1131.00      4927.16
HS scan finished at 17:12:53
end
