************************************************************
  HS Scan of 
************************************************************
Integration time is 0.2294 seconds per sample
dh140117Reading 51.44 .94 2.27pr1000
************************************************************
Dead Time -------------------------  3.4E-08 
Number of Cycles Used -------------  4 
Starting Wavelength (Angstroms) ---  2950 
Final Wavelength (Angstoms) -------  2984 
Wavelength Increment (Angstroms) --  .25 
Filter Wheel #1 Position ---------- (1) Ground quartz diffuser (ND=2.32)
Filter Wheel #2 Position ---------- (1) Neutral Density 0.494



************************************************************
HS scan start time = 05:16:54
Dark Count =  .2 


Time (GMT)  Wavelength (Ang)  Step Number  Raw Counts  Counts/Second

  317.80        2950.00           2144         856.00      3731.07
  317.99        2950.25           2147         859.00      3744.16
  318.02        2950.50           2151         864.00      3765.96
  318.05        2950.75           2155         872.00      3800.84
  318.08        2951.00           2158         854.00      3722.35
  318.11        2951.25           2162         886.00      3861.88
  318.14        2951.50           2165         868.00      3783.40
  318.18        2951.75           2169         868.00      3783.40
  318.21        2952.00           2172         864.00      3765.96
  318.24        2952.25           2176         894.00      3896.77
  318.27        2952.50           2179         902.00      3931.65
  318.30        2952.75           2183         883.00      3848.80
  318.33        2953.00           2186         856.00      3731.07
  318.36        2953.25           2190         906.00      3949.09
  318.39        2953.50           2193         891.00      3883.69
  318.42        2953.75           2197         920.00      4010.14
  318.45        2954.00           2200         879.00      3831.36
  318.48        2954.25           2204         901.00      3927.29
  318.51        2954.50           2208         865.00      3770.32
  318.54        2954.75           2211         895.00      3901.13
  318.57        2955.00           2215         888.00      3870.61
  318.60        2955.25           2218         921.00      4014.50
  318.63        2955.50           2222         919.00      4005.78
  318.66        2955.75           2225         922.00      4018.86
  318.70        2956.00           2229         925.00      4031.94
  318.73        2956.25           2232         938.00      4088.62
  318.76        2956.50           2236         939.00      4092.98
  318.79        2956.75           2239         935.00      4075.54
  318.82        2957.00           2243         946.00      4123.51
  318.85        2957.25           2246         918.00      4001.42
  318.88        2957.50           2250         937.00      4084.26
  318.91        2957.75           2254         964.00      4202.00
  318.94        2958.00           2257         969.00      4223.80
  318.97        2958.25           2261         968.00      4219.44
  319.00        2958.50           2264         998.00      4350.25
  319.03        2958.75           2268         969.00      4223.80
  319.06        2959.00           2271         994.00      4332.81
  319.09        2959.25           2275         997.00      4345.89
  319.12        2959.50           2278         987.00      4302.29
  319.15        2959.75           2282        1025.00      4467.98
  319.18        2960.00           2285        1018.00      4437.46
  319.22        2960.25           2289        1023.00      4459.26
  319.25        2960.50           2293        1052.00      4585.72
  319.28        2960.75           2296        1072.00      4672.93
  319.31        2961.00           2300        1093.00      4764.50
  319.34        2961.25           2303        1237.00      5392.45
  319.37        2961.50           2307        2838.00     12375.74
  319.40        2961.75           2310        6740.00     29409.51
  319.43        2962.00           2314       14470.00     63212.43
  319.46        2962.25           2317       22025.00     96325.42
  319.49        2962.50           2321       31800.00    139279.60
  319.52        2962.75           2324       38867.00    170412.60
  319.55        2963.00           2328       48961.00    214995.70
  319.58        2963.25           2331       56402.00    247948.10
  319.61        2963.50           2335       65695.00    289206.50
  319.64        2963.75           2339       76580.00    337681.30
  319.67        2964.00           2342       84311.00    372208.10
  319.70        2964.25           2346       94450.00    417613.10
  319.74        2964.50           2349      102256.00    452666.80
  319.77        2964.75           2353      111738.00    495360.40
  319.80        2965.00           2356      118208.00    524563.90
  319.83        2965.25           2360      126911.00    563939.20
  319.86        2965.50           2363      134675.00    599156.20
  319.89        2965.75           2367      143874.00    640992.90
  319.92        2966.00           2370      150559.00    671471.70
  319.95        2966.25           2374      159421.00    711974.80
  319.98        2966.50           2378      165685.00    740672.10
  320.01        2966.75           2381      167732.00    750062.50
  320.04        2967.00           2385      168350.00    752898.60
  320.07        2967.25           2388      168312.00    752724.20
  320.10        2967.50           2392      168409.00    753169.50
  320.13        2967.75           2395      168386.00    753064.00
  320.16        2968.00           2399      166340.00    743676.30
  320.19        2968.25           2402      160987.00    719143.80
  320.22        2968.50           2406      152987.00    682557.40
  320.26        2968.75           2409      147528.00    657644.60
  320.29        2969.00           2413      138654.00    617237.80
  320.32        2969.25           2417      128918.00    573034.60
  320.35        2969.50           2420      121640.00    540078.70
  320.38        2969.75           2424      111182.00    492853.40
  320.41        2970.00           2427      104019.00    460595.40
  320.44        2970.25           2431       94643.00    418478.80
  320.47        2970.50           2434       87402.00    386035.50
  320.50        2970.75           2438       77554.00    342026.70
  320.53        2971.00           2441       69414.00    305750.50
  320.56        2971.25           2445       59196.00    260340.50
  320.59        2971.50           2449       49216.00    216123.70
  320.62        2971.75           2452       42140.00    184853.90
  320.65        2972.00           2456       32469.00    142224.00
  320.68        2972.25           2459       25297.00    110689.60
  320.71        2972.50           2463       15743.00     68786.68
  320.74        2972.75           2466        8916.00     38917.20
  320.78        2973.00           2470        2925.00     12755.31
  320.81        2973.25           2473        1487.00      6482.68
  320.84        2973.50           2477        1119.00      4877.88
  320.87        2973.75           2481        1060.00      4620.60
  320.90        2974.00           2484        1037.00      4520.31
  320.93        2974.25           2488        1045.00      4555.20
  320.96        2974.50           2491        1044.00      4550.84
  320.99        2974.75           2495        1008.00      4393.86
  321.02        2975.00           2498         992.00      4324.09
  321.05        2975.25           2502        1027.00      4476.71
  321.08        2975.50           2505         979.00      4267.40
  321.11        2975.75           2509         961.00      4188.91
  321.14        2976.00           2512         925.00      4031.94
  321.17        2976.25           2516         939.00      4092.98
  321.20        2976.50           2520         924.00      4027.58
  321.23        2976.75           2523         924.00      4027.58
  321.26        2977.00           2527         920.00      4010.14
  321.29        2977.25           2530         901.00      3927.29
  321.33        2977.50           2534         896.00      3905.49
  321.36        2977.75           2537         932.00      4062.46
  321.39        2978.00           2541         869.00      3787.76
  321.42        2978.25           2544         903.00      3936.01
  321.45        2978.50           2548         929.00      4049.38
  321.48        2978.75           2552         881.00      3840.08
  321.51        2979.00           2555         892.00      3888.05
  321.54        2979.25           2559         894.00      3896.77
  321.57        2979.50           2562         858.00      3739.80
  321.60        2979.75           2566         850.00      3704.91
  321.63        2980.00           2569         848.00      3696.19
  321.66        2980.25           2573         837.00      3648.23
  321.69        2980.50           2577         860.00      3748.52
  321.72        2980.75           2580         822.00      3582.83
  321.75        2981.00           2584         837.00      3648.23
  321.78        2981.25           2587         857.00      3735.43
  321.81        2981.50           2591         797.00      3473.82
  321.85        2981.75           2594         836.00      3643.87
  321.88        2982.00           2598         813.00      3543.58
  321.91        2982.25           2601         821.00      3578.47
  321.94        2982.50           2605         818.00      3565.38
  321.97        2982.75           2609         855.00      3726.71
  322.00        2983.00           2612         801.00      3491.26
  322.03        2983.25           2616         805.00      3508.70
  322.06        2983.50           2619         830.00      3617.71
  322.09        2983.75           2623         810.00      3530.50
  322.12        2984.00           2626         787.00      3430.22
HS scan finished at 05:22:20
end
