************************************************************
  HS Scan of 
************************************************************
Integration time is 0.2294 seconds per sample
dh190117Reading 51.44 .94 2.21pr1000
************************************************************
Dead Time -------------------------  3.4E-08 
Number of Cycles Used -------------  4 
Starting Wavelength (Angstroms) ---  2950 
Final Wavelength (Angstoms) -------  2984 
Wavelength Increment (Angstroms) --  .25 
Filter Wheel #1 Position ---------- (1) Ground quartz diffuser (ND=2.32)
Filter Wheel #2 Position ---------- (1) Neutral Density 0.494



************************************************************
HS scan start time = 05:13:54
Dark Count =  .3 


Time (GMT)  Wavelength (Ang)  Step Number  Raw Counts  Counts/Second

  314.80        2950.00           2144         878.00      3826.57
  315.00        2950.25           2147         913.00      3979.18
  315.03        2950.50           2151         874.00      3809.12
  315.06        2950.75           2155         885.00      3857.09
  315.09        2951.00           2158         867.00      3778.60
  315.12        2951.25           2162         904.00      3939.94
  315.15        2951.50           2165         901.00      3926.85
  315.18        2951.75           2169         904.00      3939.94
  315.21        2952.00           2172         898.00      3913.77
  315.24        2952.25           2176         869.00      3787.32
  315.27        2952.50           2179         898.00      3913.77
  315.30        2952.75           2183         884.00      3852.73
  315.33        2953.00           2186         897.00      3909.41
  315.36        2953.25           2190         905.00      3944.30
  315.40        2953.50           2193         898.00      3913.77
  315.43        2953.75           2197         906.00      3948.66
  315.46        2954.00           2200         915.00      3987.90
  315.49        2954.25           2204         923.00      4022.78
  315.52        2954.50           2208         912.00      3974.82
  315.55        2954.75           2211         926.00      4035.86
  315.58        2955.00           2215         932.00      4062.03
  315.61        2955.25           2218         928.00      4044.58
  315.64        2955.50           2222         937.00      4083.83
  315.67        2955.75           2225         921.00      4014.06
  315.70        2956.00           2229         962.00      4192.84
  315.73        2956.25           2232         922.00      4018.42
  315.76        2956.50           2236         950.00      4140.51
  315.79        2956.75           2239         939.00      4092.55
  315.82        2957.00           2243         958.00      4175.40
  315.85        2957.25           2246         942.00      4105.63
  315.88        2957.50           2250         970.00      4227.72
  315.92        2957.75           2254         946.00      4123.07
  315.95        2958.00           2257         982.00      4280.05
  315.98        2958.25           2261         974.00      4245.16
  316.01        2958.50           2264        1025.00      4467.55
  316.04        2958.75           2268        1015.00      4423.94
  316.07        2959.00           2271         994.00      4332.37
  316.10        2959.25           2275        1007.00      4389.06
  316.13        2959.50           2278        1005.00      4380.34
  316.16        2959.75           2282        1034.00      4506.79
  316.19        2960.00           2285        1039.00      4528.60
  316.22        2960.25           2289        1056.00      4602.73
  316.25        2960.50           2293        1047.00      4563.48
  316.28        2960.75           2296        1083.00      4720.46
  316.31        2961.00           2300        1128.00      4916.69
  316.34        2961.25           2303        1287.00      5610.05
  316.37        2961.50           2307        3898.00     17000.67
  316.40        2961.75           2310        8542.00     37282.19
  316.44        2962.00           2314       16074.00     70235.97
  316.47        2962.25           2317       23197.00    101468.50
  316.50        2962.50           2321       33120.00    145089.30
  316.53        2962.75           2324       40332.00    176874.40
  316.56        2963.00           2328       49382.00    216857.70
  316.59        2963.25           2331       56407.00    247969.80
  316.62        2963.50           2335       66932.00    294706.80
  316.65        2963.75           2339       77247.00    340656.50
  316.68        2964.00           2342       85075.00    375624.20
  316.71        2964.25           2346       94465.00    417680.00
  316.74        2964.50           2349      101373.00    448696.90
  316.77        2964.75           2353      111795.00    495616.90
  316.80        2965.00           2356      119176.00    528937.80
  316.83        2965.25           2360      127983.00    568796.30
  316.86        2965.50           2363      134931.00    600318.50
  316.89        2965.75           2367      143950.00    641338.60
  316.92        2966.00           2370      150978.00    673383.70
  316.96        2966.25           2374      159150.00    710734.00
  316.99        2966.50           2378      164530.00    735376.10
  317.02        2966.75           2381      165729.00    740873.50
  317.05        2967.00           2385      166771.00    745652.80
  317.08        2967.25           2388      166481.00    744322.60
  317.11        2967.50           2392      166611.00    744919.00
  317.14        2967.75           2395      166140.00    742758.50
  317.17        2968.00           2399      163048.00    728584.00
  317.20        2968.25           2402      158473.00    707636.10
  317.23        2968.50           2406      150285.00    670220.70
  317.26        2968.75           2409      143687.00    640140.80
  317.29        2969.00           2413      133435.00    593525.60
  317.32        2969.25           2417      124220.00    551752.50
  317.35        2969.50           2420      117174.00    519892.40
  317.38        2969.75           2424      107992.00    478478.30
  317.41        2970.00           2427      100746.00    445879.00
  317.44        2970.25           2431       91345.00    403692.70
  317.48        2970.50           2434       84561.00    373325.60
  317.51        2970.75           2438       74032.00    326319.30
  317.54        2971.00           2441       66517.00    292861.10
  317.57        2971.25           2445       56632.00    248967.40
  317.60        2971.50           2449       46746.00    205200.40
  317.63        2971.75           2452       39449.00    172979.00
  317.66        2972.00           2456       30517.00    133634.10
  317.69        2972.25           2459       23889.00    104506.30
  317.72        2972.50           2463       14340.00     62642.88
  317.75        2972.75           2466        7350.00     32073.76
  317.78        2973.00           2470        2210.00      9635.68
  317.81        2973.25           2473        1282.00      5588.25
  317.84        2973.50           2477        1130.00      4925.41
  317.87        2973.75           2481        1082.00      4716.10
  317.90        2974.00           2484        1039.00      4528.60
  317.93        2974.25           2488        1036.00      4515.51
  317.96        2974.50           2491        1028.00      4480.63
  318.00        2974.75           2495        1038.00      4524.24
  318.03        2975.00           2498         998.00      4349.82
  318.06        2975.25           2502         991.00      4319.29
  318.09        2975.50           2505         973.00      4240.80
  318.12        2975.75           2509         969.00      4223.36
  318.15        2976.00           2512         981.00      4275.69
  318.18        2976.25           2516         962.00      4192.84
  318.21        2976.50           2520         941.00      4101.27
  318.24        2976.75           2523         936.00      4079.47
  318.27        2977.00           2527         920.00      4009.70
  318.30        2977.25           2530         912.00      3974.82
  318.33        2977.50           2534         909.00      3961.74
  318.36        2977.75           2537         909.00      3961.74
  318.39        2978.00           2541         898.00      3913.77
  318.42        2978.25           2544         881.00      3839.65
  318.45        2978.50           2548         891.00      3883.25
  318.48        2978.75           2552         912.00      3974.82
  318.52        2979.00           2555         877.00      3822.21
  318.55        2979.25           2559         886.00      3861.45
  318.58        2979.50           2562         924.00      4027.14
  318.61        2979.75           2566         845.00      3682.68
  318.64        2980.00           2569         879.00      3830.93
  318.67        2980.25           2573         854.00      3721.92
  318.70        2980.50           2577         870.00      3791.68
  318.73        2980.75           2580         853.00      3717.56
  318.76        2981.00           2584         869.00      3787.32
  318.79        2981.25           2587         846.00      3687.04
  318.82        2981.50           2591         848.00      3695.76
  318.85        2981.75           2594         830.00      3617.27
  318.88        2982.00           2598         829.00      3612.91
  318.91        2982.25           2601         831.00      3621.63
  318.94        2982.50           2605         818.00      3564.95
  318.97        2982.75           2609         806.00      3512.63
  319.00        2983.00           2612         814.00      3547.51
  319.04        2983.25           2616         804.00      3503.90
  319.07        2983.50           2619         821.00      3578.03
  319.10        2983.75           2623         835.00      3639.07
  319.13        2984.00           2626         812.00      3538.79
HS scan finished at 05:19:21
end
************************************************************
  HS Scan of 
************************************************************
Integration time is 0.2294 seconds per sample
dh190117Reading 51.44 .94 2.84pr1000
************************************************************
Dead Time -------------------------  3.4E-08 
Number of Cycles Used -------------  4 
Starting Wavelength (Angstroms) ---  2950 
Final Wavelength (Angstoms) -------  2984 
Wavelength Increment (Angstroms) --  .25 
Filter Wheel #1 Position ---------- (1) Ground quartz diffuser (ND=2.32)
Filter Wheel #2 Position ---------- (1) Neutral Density 0.494



************************************************************
HS scan start time = 17:37:23
Dark Count =  .7 


Time (GMT)  Wavelength (Ang)  Step Number  Raw Counts  Counts/Second

 1058.29        2950.00           2144         681.00      2965.86
 1058.48        2950.25           2147         693.00      3018.18
 1058.51        2950.50           2151         673.00      2930.98
 1058.54        2950.75           2155         694.00      3022.54
 1058.57        2951.00           2158         664.00      2891.74
 1058.60        2951.25           2162         690.00      3005.10
 1058.63        2951.50           2165         678.00      2952.78
 1058.66        2951.75           2169         675.00      2939.70
 1058.69        2952.00           2172         723.00      3148.99
 1058.72        2952.25           2176         680.00      2961.50
 1058.75        2952.50           2179         694.00      3022.54
 1058.79        2952.75           2183         744.00      3240.55
 1058.82        2953.00           2186         700.00      3048.70
 1058.85        2953.25           2190         722.00      3144.63
 1058.88        2953.50           2193         683.00      2974.58
 1058.91        2953.75           2197         723.00      3148.99
 1058.94        2954.00           2200         700.00      3048.70
 1058.97        2954.25           2204         688.00      2996.38
 1059.00        2954.50           2208         740.00      3223.11
 1059.03        2954.75           2211         710.00      3092.30
 1059.06        2955.00           2215         709.00      3087.94
 1059.09        2955.25           2218         717.00      3122.83
 1059.12        2955.50           2222         737.00      3210.03
 1059.15        2955.75           2225         747.00      3253.63
 1059.18        2956.00           2229         738.00      3214.39
 1059.21        2956.25           2232         747.00      3253.63
 1059.24        2956.50           2236         730.00      3179.51
 1059.27        2956.75           2239         766.00      3336.47
 1059.31        2957.00           2243         761.00      3314.67
 1059.34        2957.25           2246         779.00      3393.16
 1059.37        2957.50           2250         808.00      3519.60
 1059.40        2957.75           2254         772.00      3362.63
 1059.43        2958.00           2257         781.00      3401.88
 1059.46        2958.25           2261         809.00      3523.96
 1059.49        2958.50           2264         782.00      3406.24
 1059.52        2958.75           2268         793.00      3454.20
 1059.55        2959.00           2271         807.00      3515.24
 1059.58        2959.25           2275         791.00      3445.48
 1059.61        2959.50           2278         818.00      3563.20
 1059.64        2959.75           2282         818.00      3563.20
 1059.67        2960.00           2285         832.00      3624.25
 1059.70        2960.25           2289         838.00      3650.41
 1059.73        2960.50           2293         878.00      3824.82
 1059.76        2960.75           2296         920.00      4007.96
 1059.80        2961.00           2300         947.00      4125.69
 1059.83        2961.25           2303        1007.00      4387.32
 1059.86        2961.50           2307        2669.00     11636.25
 1059.89        2961.75           2310        6489.00     28311.02
 1059.92        2962.00           2314       13818.00     60356.08
 1059.95        2962.25           2317       20070.00     87747.46
 1059.98        2962.50           2321       28702.00    125650.30
 1060.01        2962.75           2324       35375.00    155018.50
 1060.04        2963.00           2328       44829.00    196726.90
 1060.07        2963.25           2331       51852.00    227787.50
 1060.10        2963.50           2335       62417.00    274637.50
 1060.13        2963.75           2339       72024.00    317370.00
 1060.16        2964.00           2342       78485.00    346179.30
 1060.19        2964.25           2346       87722.00    387465.40
 1060.22        2964.50           2349       94387.00    417328.30
 1060.25        2964.75           2353      104534.00    462910.00
 1060.28        2965.00           2356      112059.00    496805.60
 1060.31        2965.25           2360      119886.00    532145.30
 1060.35        2965.50           2363      126506.00    562102.20
 1060.38        2965.75           2367      134408.00    597941.50
 1060.41        2966.00           2370      140590.00    626041.30
 1060.44        2966.25           2374      149495.00    666614.10
 1060.47        2966.50           2378      157703.00    704111.70
 1060.50        2966.75           2381      160182.00    715455.80
 1060.53        2967.00           2385      160734.00    717983.10
 1060.56        2967.25           2388      161410.00    721078.60
 1060.59        2967.50           2392      160899.00    718738.60
 1060.62        2967.75           2395      160997.00    719187.30
 1060.65        2968.00           2399      160409.00    716495.00
 1060.68        2968.25           2402      156915.00    700507.60
 1060.71        2968.50           2406      149263.00    665555.60
 1060.74        2968.75           2409      142137.00    633081.60
 1060.77        2969.00           2413      133033.00    591698.80
 1060.80        2969.25           2417      123864.00    550139.20
 1060.84        2969.50           2420      117196.00    519990.00
 1060.87        2969.75           2424      108736.00    481827.80
 1060.90        2970.00           2427      101197.00    447904.10
 1060.93        2970.25           2431       90339.00    399183.70
 1060.96        2970.50           2434       82844.00    365648.00
 1060.99        2970.75           2438       72538.00    319659.80
 1061.02        2971.00           2441       65214.00    287065.90
 1061.05        2971.25           2445       55889.00    245671.70
 1061.08        2971.50           2449       46876.00    205773.40
 1061.11        2971.75           2452       39550.00    173422.80
 1061.14        2972.00           2456       30578.00    133900.70
 1061.17        2972.25           2459       23371.00    102230.50
 1061.20        2972.50           2463       14504.00     63359.10
 1061.23        2972.75           2466        8094.00     35322.70
 1061.26        2973.00           2470        2735.00     11924.19
 1061.29        2973.25           2473        1400.00      6101.09
 1061.32        2973.50           2477         981.00      4273.94
 1061.35        2973.75           2481         923.00      4021.04
 1061.39        2974.00           2484         888.00      3868.42
 1061.42        2974.25           2488         855.00      3724.53
 1061.45        2974.50           2491         839.00      3654.77
 1061.48        2974.75           2495         852.00      3711.45
 1061.51        2975.00           2498         800.00      3484.72
 1061.54        2975.25           2502         828.00      3606.81
 1061.57        2975.50           2505         818.00      3563.20
 1061.60        2975.75           2509         803.00      3497.80
 1061.63        2976.00           2512         814.00      3545.76
 1061.66        2976.25           2516         762.00      3319.03
 1061.69        2976.50           2520         803.00      3497.80
 1061.72        2976.75           2523         758.00      3301.59
 1061.75        2977.00           2527         735.00      3201.31
 1061.78        2977.25           2530         757.00      3297.23
 1061.81        2977.50           2534         763.00      3323.39
 1061.84        2977.75           2537         753.00      3279.79
 1061.87        2978.00           2541         725.00      3157.71
 1061.91        2978.25           2544         712.00      3101.02
 1061.94        2978.50           2548         733.00      3192.59
 1061.97        2978.75           2552         702.00      3057.42
 1062.00        2979.00           2555         731.00      3183.87
 1062.03        2979.25           2559         708.00      3083.58
 1062.06        2979.50           2562         715.00      3114.10
 1062.09        2979.75           2566         697.00      3035.62
 1062.12        2980.00           2569         690.00      3005.10
 1062.15        2980.25           2573         698.00      3039.98
 1062.18        2980.50           2577         719.00      3131.55
 1062.21        2980.75           2580         711.00      3096.66
 1062.24        2981.00           2584         684.00      2978.94
 1062.27        2981.25           2587         683.00      2974.58
 1062.30        2981.50           2591         666.00      2900.46
 1062.33        2981.75           2594         678.00      2952.78
 1062.36        2982.00           2598         671.00      2922.26
 1062.39        2982.25           2601         680.00      2961.50
 1062.43        2982.50           2605         676.00      2944.06
 1062.46        2982.75           2609         651.00      2835.06
 1062.49        2983.00           2612         679.00      2957.14
 1062.52        2983.25           2616         644.00      2804.54
 1062.55        2983.50           2619         660.00      2874.30
 1062.58        2983.75           2623         625.00      2721.70
 1062.61        2984.00           2626         659.00      2869.94
HS scan finished at 17:42:50
end
