************************************************************
  HS Scan of (1) Internal mercury lamp
************************************************************
Integration time is 0.2294 seconds per sample
dh160119Reading 51.44 .94 2.92pr1000
************************************************************
Dead Time -------------------------  3.4E-08 
Number of Cycles Used -------------  4 
Starting Wavelength (Angstroms) ---  2950 
Final Wavelength (Angstoms) -------  2984 
Wavelength Increment (Angstroms) --  .25 
Filter Wheel #1 Position ---------- (1) Ground quartz diffuser (ND=2.32)
Filter Wheel #2 Position ---------- (1) Neutral Density 0.494



************************************************************
HS scan start time = 05:13:08
Dark Count =  .6 


Time (GMT)  Wavelength (Ang)  Step Number  Raw Counts  Counts/Second

  314.03        2950.00           2144        1541.00      6716.44
  314.22        2950.25           2147        1553.00      6768.78
  314.25        2950.50           2151        1525.00      6646.66
  314.28        2950.75           2155        1523.00      6637.94
  314.31        2951.00           2158        1549.00      6751.33
  314.34        2951.25           2162        1562.00      6808.03
  314.38        2951.50           2165        1595.00      6951.95
  314.41        2951.75           2169        1589.00      6925.78
  314.44        2952.00           2172        1564.00      6816.75
  314.47        2952.25           2176        1573.00      6856.00
  314.50        2952.50           2179        1596.00      6956.31
  314.53        2952.75           2183        1578.00      6877.81
  314.56        2953.00           2186        1609.00      7013.01
  314.59        2953.25           2190        1625.00      7082.79
  314.62        2953.50           2193        1614.00      7034.81
  314.65        2953.75           2197        1619.00      7056.62
  314.68        2954.00           2200        1627.00      7091.51
  314.71        2954.25           2204        1639.00      7143.85
  314.74        2954.50           2208        1645.00      7170.01
  314.77        2954.75           2211        1612.00      7026.09
  314.80        2955.00           2215        1688.00      7357.55
  314.83        2955.25           2218        1685.00      7344.47
  314.86        2955.50           2222        1689.00      7361.91
  314.90        2955.75           2225        1688.00      7357.55
  314.93        2956.00           2229        1693.00      7379.36
  314.96        2956.25           2232        1719.00      7492.75
  314.99        2956.50           2236        1719.00      7492.75
  315.02        2956.75           2239        1737.00      7571.26
  315.05        2957.00           2243        1743.00      7597.43
  315.08        2957.25           2246        1767.00      7702.10
  315.11        2957.50           2250        1802.00      7854.76
  315.14        2957.75           2254        1772.00      7723.91
  315.17        2958.00           2257        1791.00      7806.78
  315.20        2958.25           2261        1774.00      7732.64
  315.23        2958.50           2264        1812.00      7898.37
  315.26        2958.75           2268        1849.00      8059.75
  315.29        2959.00           2271        1837.00      8007.41
  315.32        2959.25           2275        1885.00      8216.77
  315.35        2959.50           2278        1897.00      8269.11
  315.38        2959.75           2282        1936.00      8439.21
  315.42        2960.00           2285        1939.00      8452.30
  315.45        2960.25           2289        1966.00      8570.07
  315.48        2960.50           2293        2019.00      8801.24
  315.51        2960.75           2296        2076.00      9049.86
  315.54        2961.00           2300        2214.00      9651.81
  315.57        2961.25           2303        2964.00     12923.73
  315.60        2961.50           2307        9088.00     39667.24
  315.63        2961.75           2310       19554.00     85485.24
  315.66        2962.00           2314       39209.00    171919.20
  315.69        2962.25           2317       56380.00    247848.80
  315.72        2962.50           2321       81338.00    358919.20
  315.75        2962.75           2324       99978.00    442426.70
  315.78        2963.00           2328      122974.00    546111.90
  315.81        2963.25           2331      141337.00    629440.90
  315.84        2963.50           2335      165324.00    739015.00
  315.87        2963.75           2339      188667.00    846447.10
  315.90        2964.00           2342      208189.00    936909.30
  315.94        2964.25           2346      236450.00   1068878.00
  315.97        2964.50           2349      254869.00   1155541.00
  316.00        2964.75           2353      278930.00   1269542.00
  316.03        2965.00           2356      294920.00   1345805.00
  316.06        2965.25           2360      316093.00   1447416.00
  316.09        2965.50           2363      332499.00   1526647.00
  316.12        2965.75           2367      353846.00   1630402.00
  316.15        2966.00           2370      370622.00   1712472.00
  316.18        2966.25           2374      392133.00   1818402.00
  316.21        2966.50           2378      406140.00   1887805.00
  316.24        2966.75           2381      409564.00   1904822.00
  316.27        2967.00           2385      410438.00   1909169.00
  316.30        2967.25           2388      410509.00   1909522.00
  316.33        2967.50           2392      410272.00   1908343.00
  316.36        2967.75           2395      408756.00   1900804.00
  316.39        2968.00           2399      398634.00   1850572.00
  316.42        2968.25           2402      386154.00   1788879.00
  316.46        2968.50           2406      365483.00   1687281.00
  316.50        2968.75           2409      350483.00   1614007.00
  316.53        2969.00           2413      329843.00   1513790.00
  316.56        2969.25           2417      308397.00   1410399.00
  316.59        2969.50           2420      288971.00   1317384.00
  316.62        2969.75           2424      259896.00   1179284.00
  316.65        2970.00           2427      245383.00   1110843.00
  316.70        2970.25           2431      221179.00    997418.10
  316.73        2970.50           2434      204154.00    918165.30
  316.76        2970.75           2438      180822.00    810253.00
  316.79        2971.00           2441      162413.00    725673.30
  316.82        2971.25           2445      138119.00    614803.50
  316.85        2971.50           2449      113615.00    503824.70
  316.88        2971.75           2452       95744.00    423416.30
  316.91        2972.00           2456       71223.00    313802.80
  316.94        2972.25           2459       52155.00    229129.40
  316.98        2972.50           2463       29982.00    131279.50
  317.01        2972.75           2466       17100.00     74729.31
  317.04        2973.00           2470        6265.00     27333.15
  317.07        2973.25           2473        3164.00     13796.36
  317.10        2973.50           2477        2227.00      9708.52
  317.13        2973.75           2481        2048.00      8927.73
  317.16        2974.00           2484        2060.00      8980.07
  317.19        2974.25           2488        2010.00      8761.98
  317.22        2974.50           2491        1955.00      8522.09
  317.26        2974.75           2495        1938.00      8447.94
  317.30        2975.00           2498        1926.00      8395.60
  317.33        2975.25           2502        1878.00      8186.24
  317.36        2975.50           2505        1833.00      7989.96
  317.39        2975.75           2509        1856.00      8090.28
  317.42        2976.00           2512        1826.00      7959.43
  317.45        2976.25           2516        1817.00      7920.18
  317.48        2976.50           2520        1744.00      7601.79
  317.51        2976.75           2523        1767.00      7702.10
  317.54        2977.00           2527        1716.00      7479.67
  317.57        2977.25           2530        1708.00      7444.78
  317.60        2977.50           2534        1729.00      7536.37
  317.63        2977.75           2537        1721.00      7501.48
  317.66        2978.00           2541        1637.00      7135.12
  317.69        2978.25           2544        1705.00      7431.70
  317.72        2978.50           2548        1660.00      7235.43
  317.76        2978.75           2552        1600.00      6973.76
  317.79        2979.00           2555        1601.00      6978.12
  317.82        2979.25           2559        1585.00      6908.34
  317.85        2979.50           2562        1622.00      7069.70
  317.88        2979.75           2566        1584.00      6903.97
  317.91        2980.00           2569        1587.00      6917.06
  317.94        2980.25           2573        1592.00      6938.86
  317.97        2980.50           2577        1559.00      6794.94
  318.00        2980.75           2580        1558.00      6790.58
  318.03        2981.00           2584        1546.00      6738.25
  318.06        2981.25           2587        1570.00      6842.92
  318.09        2981.50           2591        1460.00      6363.19
  318.12        2981.75           2594        1554.00      6773.14
  318.15        2982.00           2598        1510.00      6581.25
  318.18        2982.25           2601        1517.00      6611.77
  318.21        2982.50           2605        1535.00      6690.28
  318.24        2982.75           2609        1474.00      6424.25
  318.27        2983.00           2612        1513.00      6594.33
  318.31        2983.25           2616        1463.00      6376.27
  318.34        2983.50           2619        1487.00      6480.94
  318.37        2983.75           2623        1454.00      6337.02
  318.40        2984.00           2626        1450.00      6319.58
HS scan finished at 05:18:37
end
************************************************************
  HS Scan of (1) Internal mercury lamp
************************************************************
Integration time is 0.2294 seconds per sample
dh160119Reading 51.44 .94 2.86pr1000
************************************************************
Dead Time -------------------------  3.4E-08 
Number of Cycles Used -------------  4 
Starting Wavelength (Angstroms) ---  2950 
Final Wavelength (Angstoms) -------  2984 
Wavelength Increment (Angstroms) --  .25 
Filter Wheel #1 Position ---------- (1) Ground quartz diffuser (ND=2.32)
Filter Wheel #2 Position ---------- (1) Neutral Density 0.494



************************************************************
HS scan start time = 17:07:25
Dark Count =  .5 


Time (GMT)  Wavelength (Ang)  Step Number  Raw Counts  Counts/Second

 1028.31        2950.00           2144         968.00      4218.13
 1028.50        2950.25           2147         996.00      4340.22
 1028.53        2950.50           2151         948.00      4130.92
 1028.56        2950.75           2155        1007.00      4388.19
 1028.59        2951.00           2158         960.00      4183.25
 1028.62        2951.25           2162         993.00      4327.14
 1028.66        2951.50           2165         947.00      4126.56
 1028.69        2951.75           2169         996.00      4340.22
 1028.72        2952.00           2172         980.00      4270.45
 1028.75        2952.25           2176        1005.00      4379.47
 1028.78        2952.50           2179        1021.00      4449.23
 1028.81        2952.75           2183        1052.00      4584.41
 1028.84        2953.00           2186        1034.00      4505.92
 1028.87        2953.25           2190        1048.00      4566.97
 1028.90        2953.50           2193        1007.00      4388.19
 1028.93        2953.75           2197        1033.00      4501.56
 1028.96        2954.00           2200        1019.00      4440.51
 1028.99        2954.25           2204        1049.00      4571.33
 1029.02        2954.50           2208        1061.00      4623.66
 1029.05        2954.75           2211        1012.00      4409.99
 1029.10        2955.00           2215        1052.00      4584.41
 1029.13        2955.25           2218        1045.00      4553.89
 1029.16        2955.50           2222        1021.00      4449.23
 1029.19        2955.75           2225        1020.00      4444.87
 1029.22        2956.00           2229        1052.00      4584.41
 1029.25        2956.25           2232        1036.00      4514.64
 1029.28        2956.50           2236        1090.00      4750.11
 1029.31        2956.75           2239        1084.00      4723.95
 1029.34        2957.00           2243        1093.00      4763.20
 1029.37        2957.25           2246        1103.00      4806.80
 1029.40        2957.50           2250        1099.00      4789.36
 1029.44        2957.75           2254        1092.00      4758.83
 1029.47        2958.00           2257        1103.00      4806.80
 1029.50        2958.25           2261        1167.00      5085.88
 1029.53        2958.50           2264        1137.00      4955.06
 1029.56        2958.75           2268        1143.00      4981.23
 1029.59        2959.00           2271        1157.00      5042.28
 1029.62        2959.25           2275        1152.00      5020.47
 1029.66        2959.50           2278        1170.00      5098.97
 1029.70        2959.75           2282        1217.00      5303.92
 1029.73        2960.00           2285        1216.00      5299.56
 1029.76        2960.25           2289        1249.00      5443.47
 1029.79        2960.50           2293        1267.00      5521.96
 1029.82        2960.75           2296        1264.00      5508.88
 1029.85        2961.00           2300        1296.00      5648.43
 1029.88        2961.25           2303        1360.00      5927.52
 1029.91        2961.50           2307        2391.00     10424.36
 1029.94        2961.75           2310        6200.00     27049.71
 1029.97        2962.00           2314       15432.00     67423.35
 1030.00        2962.25           2317       24378.00    106652.40
 1030.03        2962.50           2321       37967.00    166442.70
 1030.06        2962.75           2324       48726.00    213954.90
 1030.09        2963.00           2328       62938.00    276952.70
 1030.12        2963.25           2331       75460.00    332684.80
 1030.15        2963.50           2335       91632.00    404977.90
 1030.18        2963.75           2339      106745.00    472862.00
 1030.22        2964.00           2342      117882.00    523089.70
 1030.25        2964.25           2346      132446.00    589035.60
 1030.28        2964.50           2349      143521.00    639383.90
 1030.31        2964.75           2353      158933.00    709740.10
 1030.34        2965.00           2356      170188.00    761335.60
 1030.37        2965.25           2360      187827.00    842567.80
 1030.40        2965.50           2363      200198.00    899812.20
 1030.43        2965.75           2367      214836.00    967840.40
 1030.46        2966.00           2370      224685.00   1013793.00
 1030.49        2966.25           2374      237310.00   1072913.00
 1030.52        2966.50           2378      249577.00   1130589.00
 1030.55        2966.75           2381      253510.00   1149129.00
 1030.58        2967.00           2385      255455.00   1158307.00
 1030.61        2967.25           2388      255954.00   1160663.00
 1030.64        2967.50           2392      255631.00   1159138.00
 1030.67        2967.75           2395      255531.00   1158666.00
 1030.70        2968.00           2399      253698.00   1150016.00
 1030.74        2968.25           2402      248165.00   1123938.00
 1030.77        2968.50           2406      236083.00   1067156.00
 1030.80        2968.75           2409      225742.00   1018734.00
 1030.83        2969.00           2413      211493.00    952276.10
 1030.86        2969.25           2417      197457.00    887109.20
 1030.89        2969.50           2420      187025.00    838864.40
 1030.92        2969.75           2424      173788.00    777877.60
 1030.95        2970.00           2427      162385.00    725545.40
 1030.98        2970.25           2431      147249.00    656371.10
 1031.01        2970.50           2434      134226.00    597116.00
 1031.04        2970.75           2438      117854.00    522963.30
 1031.07        2971.00           2441      106122.00    470057.30
 1031.10        2971.25           2445       91667.00    405134.80
 1031.13        2971.50           2449       76674.00    338099.30
 1031.16        2971.75           2452       64856.00    285475.50
 1031.19        2972.00           2456       49319.00    216578.10
 1031.22        2972.25           2459       37922.00    166244.40
 1031.26        2972.50           2463       24102.00    105440.50
 1031.29        2972.75           2466       14576.00     63675.20
 1031.32        2973.00           2470        5015.00     21875.46
 1031.35        2973.25           2473        2326.00     10140.81
 1031.38        2973.50           2477        1477.00      6437.76
 1031.41        2973.75           2481        1381.00      6019.11
 1031.44        2974.00           2484        1291.00      5626.62
 1031.47        2974.25           2488        1306.00      5692.03
 1031.50        2974.50           2491        1236.00      5386.78
 1031.53        2974.75           2495        1211.00      5277.76
 1031.56        2975.00           2498        1190.00      5186.18
 1031.59        2975.25           2502        1172.00      5107.69
 1031.62        2975.50           2505        1198.00      5221.07
 1031.65        2975.75           2509        1122.00      4889.65
 1031.68        2976.00           2512        1134.00      4941.98
 1031.71        2976.25           2516        1128.00      4915.82
 1031.74        2976.50           2520        1115.00      4859.13
 1031.78        2976.75           2523        1117.00      4867.85
 1031.81        2977.00           2527        1135.00      4946.34
 1031.84        2977.25           2530        1119.00      4876.57
 1031.87        2977.50           2534        1062.00      4628.02
 1031.90        2977.75           2537        1065.00      4641.10
 1031.93        2978.00           2541        1064.00      4636.74
 1031.96        2978.25           2544        1042.00      4540.81
 1031.99        2978.50           2548        1048.00      4566.97
 1032.02        2978.75           2552        1054.00      4593.13
 1032.05        2979.00           2555        1021.00      4449.23
 1032.08        2979.25           2559        1020.00      4444.87
 1032.11        2979.50           2562        1004.00      4375.11
 1032.15        2979.75           2566         980.00      4270.45
 1032.18        2980.00           2569         986.00      4296.62
 1032.21        2980.25           2573         993.00      4327.14
 1032.24        2980.50           2577         967.00      4213.77
 1032.27        2980.75           2580         988.00      4305.34
 1032.30        2981.00           2584         958.00      4174.53
 1032.33        2981.25           2587         964.00      4200.69
 1032.36        2981.50           2591         949.00      4135.28
 1032.39        2981.75           2594         950.00      4139.64
 1032.42        2982.00           2598         936.00      4078.60
 1032.45        2982.25           2601         936.00      4078.60
 1032.49        2982.50           2605         953.00      4152.72
 1032.52        2982.75           2609         946.00      4122.20
 1032.55        2983.00           2612         930.00      4052.43
 1032.58        2983.25           2616         938.00      4087.32
 1032.61        2983.50           2619         923.00      4021.91
 1032.64        2983.75           2623         945.00      4117.84
 1032.67        2984.00           2626         955.00      4161.44
HS scan finished at 17:12:54
end
