************************************************************
  HS Scan of (1) Internal mercury lamp
************************************************************
Integration time is 0.2294 seconds per sample
dh170119Reading 51.44 .94 2.56pr1000
************************************************************
Dead Time -------------------------  3.4E-08 
Number of Cycles Used -------------  4 
Starting Wavelength (Angstroms) ---  2950 
Final Wavelength (Angstoms) -------  2984 
Wavelength Increment (Angstroms) --  .25 
Filter Wheel #1 Position ---------- (1) Ground quartz diffuser (ND=2.32)
Filter Wheel #2 Position ---------- (1) Neutral Density 0.494



************************************************************
HS scan start time = 05:12:32
Dark Count =  .4 


Time (GMT)  Wavelength (Ang)  Step Number  Raw Counts  Counts/Second

  313.43        2950.00           2144        1669.00      7275.56
  313.63        2950.25           2147        1676.00      7306.09
  313.66        2950.50           2151        1650.00      7192.69
  313.69        2950.75           2155        1713.00      7467.46
  313.72        2951.00           2158        1695.00      7388.95
  313.75        2951.25           2162        1708.00      7445.65
  313.78        2951.50           2165        1683.00      7336.62
  313.81        2951.75           2169        1718.00      7489.26
  313.84        2952.00           2172        1716.00      7480.54
  313.87        2952.25           2176        1738.00      7576.49
  313.90        2952.50           2179        1706.00      7436.93
  313.93        2952.75           2183        1778.00      7750.95
  313.96        2953.00           2186        1737.00      7572.13
  313.99        2953.25           2190        1707.00      7441.29
  314.02        2953.50           2193        1741.00      7589.58
  314.05        2953.75           2197        1733.00      7554.69
  314.08        2954.00           2200        1786.00      7785.84
  314.12        2954.25           2204        1784.00      7777.12
  314.15        2954.50           2208        1768.00      7707.34
  314.18        2954.75           2211        1758.00      7663.72
  314.21        2955.00           2215        1811.00      7894.88
  314.24        2955.25           2218        1824.00      7951.58
  314.27        2955.50           2222        1799.00      7842.54
  314.30        2955.75           2225        1814.00      7907.97
  314.33        2956.00           2229        1816.00      7916.69
  314.36        2956.25           2232        1886.00      8222.00
  314.39        2956.50           2236        1835.00      7999.56
  314.42        2956.75           2239        1862.00      8117.32
  314.45        2957.00           2243        1908.00      8317.96
  314.48        2957.25           2246        1864.00      8126.05
  314.51        2957.50           2250        1909.00      8322.32
  314.54        2957.75           2254        1893.00      8252.53
  314.57        2958.00           2257        1968.00      8579.66
  314.60        2958.25           2261        1970.00      8588.38
  314.63        2958.50           2264        2016.00      8789.03
  314.67        2958.75           2268        2016.00      8789.03
  314.70        2959.00           2271        2038.00      8884.98
  314.73        2959.25           2275        2033.00      8863.18
  314.76        2959.50           2278        2046.00      8919.88
  314.79        2959.75           2282        2120.00      9242.66
  314.82        2960.00           2285        2103.00      9168.51
  314.85        2960.25           2289        2197.00      9578.53
  314.88        2960.50           2293        2207.00      9622.15
  314.91        2960.75           2296        2216.00      9661.41
  314.94        2961.00           2300        2312.00     10080.18
  314.97        2961.25           2303        2660.00     11598.30
  315.00        2961.50           2307        5852.00     25530.44
  315.03        2961.75           2310       14939.00     65264.98
  315.06        2962.00           2314       36997.00    162167.20
  315.09        2962.25           2317       56317.00    247570.40
  315.12        2962.50           2321       83864.00    370208.70
  315.15        2962.75           2324      103603.00    458723.30
  315.19        2963.00           2328      132443.00    589022.40
  315.22        2963.25           2331      152947.00    682373.80
  315.25        2963.50           2335      181965.00    815521.60
  315.28        2963.75           2339      207898.00    935557.50
  315.31        2964.00           2342      231218.00   1044356.00
  315.34        2964.25           2346      260505.00   1182164.00
  315.37        2964.50           2349      281884.00   1283601.00
  315.40        2964.75           2353      309610.00   1416228.00
  315.43        2965.00           2356      329053.00   1509969.00
  315.46        2965.25           2360      352697.00   1624799.00
  315.49        2965.50           2363      372463.00   1721508.00
  315.52        2965.75           2367      397968.00   1847273.00
  315.55        2966.00           2370      417209.00   1942892.00
  315.58        2966.25           2374      439973.00   2056856.00
  315.61        2966.50           2378      456081.00   2138054.00
  315.64        2966.75           2381      461066.00   2163278.00
  315.67        2967.00           2385      463139.00   2173780.00
  315.71        2967.25           2388      463372.00   2174961.00
  315.74        2967.50           2392      463709.00   2176669.00
  315.77        2967.75           2395      462489.00   2170486.00
  315.80        2968.00           2399      454716.00   2131156.00
  315.83        2968.25           2402      441394.00   2064000.00
  315.86        2968.50           2406      420110.00   1957364.00
  315.89        2968.75           2409      402616.00   1870313.00
  315.92        2969.00           2413      377942.00   1748432.00
  315.95        2969.25           2417      349677.00   1610081.00
  315.98        2969.50           2420      328376.00   1506695.00
  316.01        2969.75           2424      302036.00   1379876.00
  316.04        2970.00           2427      282316.00   1285658.00
  316.07        2970.25           2431      254922.00   1155792.00
  316.10        2970.50           2434      235439.00   1064136.00
  316.13        2970.75           2438      207523.00    933814.70
  316.16        2971.00           2441      186432.00    836127.30
  316.19        2971.25           2445      159356.00    711676.30
  316.23        2971.50           2449      133705.00    594750.80
  316.26        2971.75           2452      113575.00    503645.20
  316.29        2972.00           2456       85322.00    376728.40
  316.32        2972.25           2459       63627.00    280014.20
  316.35        2972.50           2463       38767.00    169970.70
  316.38        2972.75           2466       23904.00    104571.70
  316.41        2973.00           2470        8797.00     38396.21
  316.44        2973.25           2473        4224.00     18423.05
  316.47        2973.50           2477        2541.00     11079.15
  316.50        2973.75           2481        2313.00     10084.54
  316.53        2974.00           2484        2265.00      9875.16
  316.56        2974.25           2488        2227.00      9709.40
  316.59        2974.50           2491        2163.00      9430.22
  316.62        2974.75           2495        2143.00      9342.99
  316.65        2975.00           2498        2083.00      9081.27
  316.68        2975.25           2502        2033.00      8863.18
  316.72        2975.50           2505        2050.00      8937.33
  316.75        2975.75           2509        2014.00      8780.30
  316.78        2976.00           2512        2026.00      8832.64
  316.81        2976.25           2516        1936.00      8440.09
  316.84        2976.50           2520        1953.00      8514.23
  316.87        2976.75           2523        1938.00      8448.81
  316.90        2977.00           2527        1865.00      8130.41
  316.93        2977.25           2530        1874.00      8169.66
  316.96        2977.50           2534        1887.00      8226.36
  316.99        2977.75           2537        1868.00      8143.49
  317.02        2978.00           2541        1827.00      7964.67
  317.05        2978.25           2544        1781.00      7764.04
  317.08        2978.50           2548        1762.00      7681.17
  317.11        2978.75           2552        1780.00      7759.68
  317.14        2979.00           2555        1743.00      7598.30
  317.17        2979.25           2559        1737.00      7572.13
  317.20        2979.50           2562        1718.00      7489.26
  317.23        2979.75           2566        1738.00      7576.49
  317.27        2980.00           2569        1686.00      7349.70
  317.30        2980.25           2573        1715.00      7476.18
  317.33        2980.50           2577        1672.00      7288.64
  317.36        2980.75           2580        1663.00      7249.39
  317.39        2981.00           2584        1706.00      7436.93
  317.42        2981.25           2587        1658.00      7227.58
  317.45        2981.50           2591        1659.00      7231.94
  317.48        2981.75           2594        1654.00      7210.14
  317.51        2982.00           2598        1658.00      7227.58
  317.54        2982.25           2601        1612.00      7026.96
  317.57        2982.50           2605        1640.00      7149.08
  317.60        2982.75           2609        1609.00      7013.88
  317.63        2983.00           2612        1593.00      6944.10
  317.66        2983.25           2616        1570.00      6843.79
  317.69        2983.50           2619        1597.00      6961.54
  317.72        2983.75           2623        1628.00      7096.74
  317.75        2984.00           2626        1595.00      6952.82
HS scan finished at 05:17:59
end
************************************************************
  HS Scan of (1) Internal mercury lamp
************************************************************
Integration time is 0.2294 seconds per sample
dh170119Reading 51.44 .94 2.7pr1000
************************************************************
Dead Time -------------------------  3.4E-08 
Number of Cycles Used -------------  4 
Starting Wavelength (Angstroms) ---  2950 
Final Wavelength (Angstoms) -------  2984 
Wavelength Increment (Angstroms) --  .25 
Filter Wheel #1 Position ---------- (1) Ground quartz diffuser (ND=2.32)
Filter Wheel #2 Position ---------- (1) Neutral Density 0.494



************************************************************
HS scan start time = 17:09:57
Dark Count =  .4 


Time (GMT)  Wavelength (Ang)  Step Number  Raw Counts  Counts/Second

 1030.85        2950.00           2144        1187.00      5173.53
 1031.04        2950.25           2147        1200.00      5230.22
 1031.07        2950.50           2151        1244.00      5422.10
 1031.10        2950.75           2155        1203.00      5243.31
 1031.13        2951.00           2158        1212.00      5282.55
 1031.16        2951.25           2162        1227.00      5347.96
 1031.19        2951.50           2165        1257.00      5478.79
 1031.22        2951.75           2169        1251.00      5452.62
 1031.25        2952.00           2172        1215.00      5295.64
 1031.28        2952.25           2176        1195.00      5208.42
 1031.31        2952.50           2179        1224.00      5334.88
 1031.35        2952.75           2183        1238.00      5395.93
 1031.38        2953.00           2186        1235.00      5382.85
 1031.41        2953.25           2190        1251.00      5452.62
 1031.44        2953.50           2193        1229.00      5356.69
 1031.47        2953.75           2197        1227.00      5347.96
 1031.50        2954.00           2200        1228.00      5352.33
 1031.53        2954.25           2204        1302.00      5675.03
 1031.56        2954.50           2208        1232.00      5369.77
 1031.59        2954.75           2211        1279.00      5574.73
 1031.62        2955.00           2215        1308.00      5701.19
 1031.65        2955.25           2218        1261.00      5496.23
 1031.68        2955.50           2222        1298.00      5657.58
 1031.71        2955.75           2225        1288.00      5613.97
 1031.74        2956.00           2229        1286.00      5605.25
 1031.77        2956.25           2232        1312.00      5718.64
 1031.80        2956.50           2236        1309.00      5705.55
 1031.83        2956.75           2239        1330.00      5797.13
 1031.87        2957.00           2243        1298.00      5657.58
 1031.90        2957.25           2246        1358.00      5919.24
 1031.93        2957.50           2250        1334.00      5814.58
 1031.96        2957.75           2254        1357.00      5914.88
 1031.99        2958.00           2257        1364.00      5945.40
 1032.02        2958.25           2261        1362.00      5936.68
 1032.05        2958.50           2264        1402.00      6111.12
 1032.08        2958.75           2268        1387.00      6045.71
 1032.11        2959.00           2271        1423.00      6202.70
 1032.14        2959.25           2275        1442.00      6285.56
 1032.17        2959.50           2278        1471.00      6412.03
 1032.20        2959.75           2282        1482.00      6460.01
 1032.23        2960.00           2285        1492.00      6503.62
 1032.26        2960.25           2289        1500.00      6538.51
 1032.29        2960.50           2293        1567.00      6830.71
 1032.32        2960.75           2296        1564.00      6817.62
 1032.35        2961.00           2300        1578.00      6878.68
 1032.39        2961.25           2303        1731.00      7545.96
 1032.42        2961.50           2307        3242.00     14137.57
 1032.45        2961.75           2310        8739.00     38142.72
 1032.48        2962.00           2314       22088.00     96600.98
 1032.51        2962.25           2317       33989.00    148915.10
 1032.54        2962.50           2321       49978.00    219494.20
 1032.57        2962.75           2324       61330.00    269811.70
 1032.60        2963.00           2328       77274.00    340776.50
 1032.63        2963.25           2331       90378.00    399359.80
 1032.66        2963.50           2335      109514.00    485334.50
 1032.69        2963.75           2339      128173.00    569656.90
 1032.72        2964.00           2342      140620.00    626179.10
 1032.75        2964.25           2346      158795.00    709109.10
 1032.78        2964.50           2349      172077.00    770013.70
 1032.81        2964.75           2353      187380.00    840504.00
 1032.84        2965.00           2356      200966.00    903373.90
 1032.87        2965.25           2360      219210.00    988230.80
 1032.90        2965.50           2363      231923.00   1047658.00
 1032.94        2965.75           2367      248720.00   1126552.00
 1032.97        2966.00           2370      260769.00   1183413.00
 1033.00        2966.25           2374      275030.00   1251003.00
 1033.03        2966.50           2378      287248.00   1309164.00
 1033.06        2966.75           2381      291513.00   1329523.00
 1033.09        2967.00           2385      293885.00   1340857.00
 1033.12        2967.25           2388      293703.00   1339987.00
 1033.15        2967.50           2392      293988.00   1341350.00
 1033.18        2967.75           2395      293442.00   1338740.00
 1033.21        2968.00           2399      291070.00   1327406.00
 1033.24        2968.25           2402      284946.00   1298188.00
 1033.27        2968.50           2406      272058.00   1236891.00
 1033.30        2968.75           2409      259857.00   1179101.00
 1033.33        2969.00           2413      244650.00   1107396.00
 1033.36        2969.25           2417      228268.00   1030547.00
 1033.39        2969.50           2420      216163.00    974023.80
 1033.42        2969.75           2424      200217.00    899900.80
 1033.46        2970.00           2427      188498.00    845667.20
 1033.49        2970.25           2431      171410.00    766949.10
 1033.52        2970.50           2434      156979.00    700801.60
 1033.55        2970.75           2438      138421.00    616177.40
 1033.58        2971.00           2441      124391.00    552526.10
 1033.61        2971.25           2445      107349.00    475582.10
 1033.64        2971.50           2449       90659.00    400618.60
 1033.67        2971.75           2452       78473.00    346127.10
 1033.70        2972.00           2456       61919.00    272427.20
 1033.73        2972.25           2459       49499.00    217374.90
 1033.76        2972.50           2463       31649.00    138614.30
 1033.79        2972.75           2466       19924.00     87108.52
 1033.82        2973.00           2470        7205.00     31439.87
 1033.85        2973.25           2473        3105.00     13539.80
 1033.88        2973.50           2477        1856.00      8091.15
 1033.91        2973.75           2481        1585.00      6909.21
 1033.94        2974.00           2484        1601.00      6978.99
 1033.98        2974.25           2488        1540.00      6712.95
 1034.01        2974.50           2491        1510.00      6582.12
 1034.04        2974.75           2495        1483.00      6464.37
 1034.07        2975.00           2498        1459.00      6359.70
 1034.10        2975.25           2502        1427.00      6220.15
 1034.13        2975.50           2505        1428.00      6224.51
 1034.16        2975.75           2509        1437.00      6263.76
 1034.19        2976.00           2512        1401.00      6106.76
 1034.22        2976.25           2516        1371.00      5975.93
 1034.25        2976.50           2520        1338.00      5832.02
 1034.28        2976.75           2523        1331.00      5801.49
 1034.31        2977.00           2527        1345.00      5862.55
 1034.34        2977.25           2530        1294.00      5640.14
 1034.37        2977.50           2534        1315.00      5731.72
 1034.40        2977.75           2537        1338.00      5832.02
 1034.43        2978.00           2541        1272.00      5544.20
 1034.46        2978.25           2544        1290.00      5622.70
 1034.50        2978.50           2548        1264.00      5509.31
 1034.53        2978.75           2552        1249.00      5443.90
 1034.56        2979.00           2555        1236.00      5387.21
 1034.59        2979.25           2559        1222.00      5326.16
 1034.62        2979.50           2562        1238.00      5395.93
 1034.65        2979.75           2566        1192.00      5195.34
 1034.68        2980.00           2569        1198.00      5221.50
 1034.71        2980.25           2573        1217.00      5304.36
 1034.74        2980.50           2577        1250.00      5448.26
 1034.77        2980.75           2580        1208.00      5265.11
 1034.80        2981.00           2584        1206.00      5256.39
 1034.83        2981.25           2587        1163.00      5068.88
 1034.86        2981.50           2591        1147.00      4999.11
 1034.89        2981.75           2594        1214.00      5291.27
 1034.92        2982.00           2598        1186.00      5169.17
 1034.95        2982.25           2601        1183.00      5156.09
 1034.98        2982.50           2605        1160.00      5055.80
 1035.02        2982.75           2609        1168.00      5090.68
 1035.05        2983.00           2612        1173.00      5112.48
 1035.08        2983.25           2616        1177.00      5129.93
 1035.11        2983.50           2619        1134.00      4942.42
 1035.14        2983.75           2623        1147.00      4999.11
 1035.17        2984.00           2626        1140.00      4968.58
HS scan finished at 17:15:23
end
