************************************************************
  HS Scan of (1) Internal mercury lamp
************************************************************
Integration time is 0.2294 seconds per sample
dh130119Reading 51.44 .94 2.9pr1000
************************************************************
Dead Time -------------------------  3.4E-08 
Number of Cycles Used -------------  4 
Starting Wavelength (Angstroms) ---  2950 
Final Wavelength (Angstoms) -------  2984 
Wavelength Increment (Angstroms) --  .25 
Filter Wheel #1 Position ---------- (1) Ground quartz diffuser (ND=2.32)
Filter Wheel #2 Position ---------- (1) Neutral Density 0.494



************************************************************
HS scan start time = 05:14:33
Dark Count =  .6 


Time (GMT)  Wavelength (Ang)  Step Number  Raw Counts  Counts/Second

  315.44        2950.00           2144        1548.00      6746.97
  315.63        2950.25           2147        1545.00      6733.89
  315.67        2950.50           2151        1550.00      6755.69
  315.70        2950.75           2155        1545.00      6733.89
  315.73        2951.00           2158        1537.00      6699.00
  315.76        2951.25           2162        1539.00      6707.72
  315.79        2951.50           2165        1514.00      6598.69
  315.82        2951.75           2169        1556.00      6781.86
  315.85        2952.00           2172        1532.00      6677.19
  315.88        2952.25           2176        1532.00      6677.19
  315.91        2952.50           2179        1551.00      6760.05
  315.94        2952.75           2183        1577.00      6873.45
  315.97        2953.00           2186        1591.00      6934.50
  316.00        2953.25           2190        1574.00      6860.36
  316.03        2953.50           2193        1571.00      6847.28
  316.06        2953.75           2197        1599.00      6969.39
  316.09        2954.00           2200        1581.00      6890.89
  316.12        2954.25           2204        1598.00      6965.03
  316.15        2954.50           2208        1628.00      7095.87
  316.18        2954.75           2211        1634.00      7122.04
  316.22        2955.00           2215        1650.00      7191.82
  316.25        2955.25           2218        1623.00      7074.06
  316.28        2955.50           2222        1645.00      7170.01
  316.31        2955.75           2225        1628.00      7095.87
  316.34        2956.00           2229        1650.00      7191.82
  316.37        2956.25           2232        1663.00      7248.52
  316.40        2956.50           2236        1685.00      7344.47
  316.43        2956.75           2239        1687.00      7353.19
  316.46        2957.00           2243        1708.00      7444.78
  316.49        2957.25           2246        1716.00      7479.67
  316.52        2957.50           2250        1776.00      7741.36
  316.55        2957.75           2254        1766.00      7697.74
  316.58        2958.00           2257        1717.00      7484.03
  316.61        2958.25           2261        1772.00      7723.91
  316.64        2958.50           2264        1795.00      7824.23
  316.67        2958.75           2268        1762.00      7680.30
  316.70        2959.00           2271        1848.00      8055.39
  316.74        2959.25           2275        1844.00      8037.94
  316.77        2959.50           2278        1832.00      7985.60
  316.80        2959.75           2282        1888.00      8229.85
  316.83        2960.00           2285        1908.00      8317.09
  316.86        2960.25           2289        1931.00      8417.40
  316.89        2960.50           2293        1948.00      8491.55
  316.92        2960.75           2296        2036.00      8875.39
  316.95        2961.00           2300        2141.00      9333.39
  316.98        2961.25           2303        2602.00     11344.39
  317.01        2961.50           2307        6857.00     29918.83
  317.04        2961.75           2310       15705.00     68618.50
  317.07        2962.00           2314       33984.00    148892.20
  317.10        2962.25           2317       51077.00    224357.10
  317.13        2962.50           2321       75453.00    332653.10
  317.16        2962.75           2324       92949.00    410880.60
  317.19        2963.00           2328      115432.00    512025.00
  317.22        2963.25           2331      130939.00    582197.50
  317.26        2963.50           2335      157127.00    701477.60
  317.29        2963.75           2339      183798.00    823972.60
  317.32        2964.00           2342      203136.00    913440.10
  317.35        2964.25           2346      226875.00   1024031.00
  317.38        2964.50           2349      244274.00   1105627.00
  317.41        2964.75           2353      268434.00   1219701.00
  317.44        2965.00           2356      285709.00   1301824.00
  317.47        2965.25           2360      306899.00   1403204.00
  317.50        2965.50           2363      323837.00   1484760.00
  317.53        2965.75           2367      347454.00   1599255.00
  317.56        2966.00           2370      363355.00   1676863.00
  317.59        2966.25           2374      382406.00   1770404.00
  317.62        2966.50           2378      396288.00   1838954.00
  317.65        2966.75           2381      400751.00   1861063.00
  317.68        2967.00           2385      402834.00   1871393.00
  317.71        2967.25           2388      402920.00   1871820.00
  317.74        2967.50           2392      403260.00   1873507.00
  317.78        2967.75           2395      402401.00   1869245.00
  317.81        2968.00           2399      397282.00   1843875.00
  317.84        2968.25           2402      387848.00   1797238.00
  317.87        2968.50           2406      369587.00   1707395.00
  317.90        2968.75           2409      355007.00   1636067.00
  317.93        2969.00           2413      332137.00   1524894.00
  317.96        2969.25           2417      309233.00   1414415.00
  317.99        2969.50           2420      292880.00   1336053.00
  318.02        2969.75           2424      270260.00   1228359.00
  318.05        2970.00           2427      252310.00   1143469.00
  318.08        2970.25           2431      229048.00   1034196.00
  318.11        2970.50           2434      213708.00    962586.40
  318.14        2970.75           2438      188696.00    846581.00
  318.17        2971.00           2441      168161.00    752029.40
  318.20        2971.25           2445      141885.00    631935.10
  318.23        2971.50           2449      117543.00    521557.90
  318.26        2971.75           2452      100089.00    442925.40
  318.30        2972.00           2456       78973.00    348358.00
  318.33        2972.25           2459       61468.00    270423.60
  318.36        2972.50           2463       38376.00    168245.60
  318.39        2972.75           2466       22194.00     97065.24
  318.42        2973.00           2470        7173.00     31299.20
  318.45        2973.25           2473        3373.00     14708.31
  318.48        2973.50           2477        2200.00      9590.75
  318.51        2973.75           2481        2062.00      8988.80
  318.54        2974.00           2484        1992.00      8683.47
  318.57        2974.25           2488        1935.00      8434.85
  318.60        2974.50           2491        1955.00      8522.09
  318.63        2974.75           2495        1916.00      8351.98
  318.66        2975.00           2498        1895.00      8260.38
  318.69        2975.25           2502        1832.00      7985.60
  318.72        2975.50           2505        1804.00      7863.48
  318.75        2975.75           2509        1809.00      7885.29
  318.78        2976.00           2512        1783.00      7771.89
  318.81        2976.25           2516        1739.00      7579.98
  318.85        2976.50           2520        1760.00      7671.57
  318.88        2976.75           2523        1716.00      7479.67
  318.91        2977.00           2527        1691.00      7370.64
  318.94        2977.25           2530        1731.00      7545.09
  318.97        2977.50           2534        1684.00      7340.11
  319.00        2977.75           2537        1663.00      7248.52
  319.03        2978.00           2541        1628.00      7095.87
  319.06        2978.25           2544        1652.00      7200.54
  319.09        2978.50           2548        1599.00      6969.39
  319.12        2978.75           2552        1635.00      7126.40
  319.15        2979.00           2555        1593.00      6943.23
  319.18        2979.25           2559        1547.00      6742.61
  319.21        2979.50           2562        1580.00      6886.53
  319.24        2979.75           2566        1537.00      6699.00
  319.27        2980.00           2569        1532.00      6677.19
  319.30        2980.25           2573        1544.00      6729.53
  319.33        2980.50           2577        1544.00      6729.53
  319.37        2980.75           2580        1509.00      6576.89
  319.40        2981.00           2584        1482.00      6459.13
  319.43        2981.25           2587        1490.00      6494.02
  319.46        2981.50           2591        1470.00      6406.80
  319.49        2981.75           2594        1528.00      6659.75
  319.52        2982.00           2598        1499.00      6533.27
  319.55        2982.25           2601        1493.00      6507.11
  319.58        2982.50           2605        1437.00      6262.89
  319.61        2982.75           2609        1464.00      6380.64
  319.64        2983.00           2612        1468.00      6398.08
  319.67        2983.25           2616        1430.00      6232.36
  319.70        2983.50           2619        1466.00      6389.36
  319.73        2983.75           2623        1464.00      6380.64
  319.76        2984.00           2626        1484.00      6467.86
HS scan finished at 05:19:59
end
************************************************************
  HS Scan of (1) Internal mercury lamp
************************************************************
Integration time is 0.2294 seconds per sample
dh130119Reading 51.44 .94 3.03pr1000
************************************************************
Dead Time -------------------------  3.4E-08 
Number of Cycles Used -------------  4 
Starting Wavelength (Angstroms) ---  2950 
Final Wavelength (Angstoms) -------  2984 
Wavelength Increment (Angstroms) --  .25 
Filter Wheel #1 Position ---------- (1) Ground quartz diffuser (ND=2.32)
Filter Wheel #2 Position ---------- (1) Neutral Density 0.494



************************************************************
HS scan start time = 17:07:28
Dark Count =  .9 


Time (GMT)  Wavelength (Ang)  Step Number  Raw Counts  Counts/Second

 1028.36        2950.00           2144        1007.00      4386.44
 1028.56        2950.25           2147        1040.00      4530.34
 1028.59        2950.50           2151        1036.00      4512.90
 1028.62        2950.75           2155        1021.00      4447.49
 1028.65        2951.00           2158        1014.00      4416.97
 1028.68        2951.25           2162        1045.00      4552.14
 1028.71        2951.50           2165        1034.00      4504.18
 1028.74        2951.75           2169        1008.00      4390.80
 1028.77        2952.00           2172        1066.00      4643.72
 1028.80        2952.25           2176        1040.00      4530.34
 1028.83        2952.50           2179        1041.00      4534.70
 1028.86        2952.75           2183        1038.00      4521.62
 1028.89        2953.00           2186        1027.00      4473.65
 1028.92        2953.25           2190        1078.00      4696.04
 1028.95        2953.50           2193        1035.00      4508.54
 1028.98        2953.75           2197        1071.00      4665.52
 1029.01        2954.00           2200        1017.00      4430.05
 1029.05        2954.25           2204        1065.00      4639.35
 1029.08        2954.50           2208        1077.00      4691.68
 1029.11        2954.75           2211        1078.00      4696.04
 1029.14        2955.00           2215        1035.00      4508.54
 1029.17        2955.25           2218        1072.00      4669.88
 1029.20        2955.50           2222        1114.00      4853.02
 1029.23        2955.75           2225        1090.00      4748.37
 1029.26        2956.00           2229        1144.00      4983.84
 1029.29        2956.25           2232        1104.00      4809.42
 1029.32        2956.50           2236        1109.00      4831.22
 1029.35        2956.75           2239        1158.00      5044.89
 1029.38        2957.00           2243        1119.00      4874.83
 1029.41        2957.25           2246        1169.00      5092.86
 1029.44        2957.50           2250        1144.00      4983.84
 1029.47        2957.75           2254        1141.00      4970.76
 1029.50        2958.00           2257        1139.00      4962.04
 1029.53        2958.25           2261        1167.00      5084.14
 1029.57        2958.50           2264        1204.00      5245.49
 1029.60        2958.75           2268        1196.00      5210.60
 1029.63        2959.00           2271        1205.00      5249.85
 1029.66        2959.25           2275        1230.00      5358.87
 1029.69        2959.50           2278        1201.00      5232.40
 1029.72        2959.75           2282        1252.00      5454.80
 1029.75        2960.00           2285        1282.00      5585.63
 1029.78        2960.25           2289        1278.00      5568.19
 1029.81        2960.50           2293        1352.00      5890.89
 1029.84        2960.75           2296        1336.00      5821.12
 1029.87        2961.00           2300        1416.00      6170.00
 1029.90        2961.25           2303        1549.00      6750.02
 1029.93        2961.50           2307        3048.00     13288.92
 1029.96        2961.75           2310        8058.00     35164.51
 1029.99        2962.00           2314       20477.00     89531.50
 1030.02        2962.25           2317       31665.00    138682.50
 1030.05        2962.50           2321       45802.00    201025.40
 1030.09        2962.75           2324       56235.00    247204.60
 1030.12        2963.00           2328       72367.00    318897.10
 1030.15        2963.25           2331       85773.00    378743.50
 1030.18        2963.50           2335      104217.00    461483.00
 1030.21        2963.75           2339      120809.00    536317.50
 1030.24        2964.00           2342      132631.00    589873.30
 1030.27        2964.25           2346      149108.00    664847.50
 1030.30        2964.50           2349      162562.00    726354.50
 1030.33        2964.75           2353      180545.00    808975.20
 1030.36        2965.00           2356      192911.00    866063.80
 1030.39        2965.25           2360      208596.00    938799.90
 1030.42        2965.50           2363      220612.00    994770.10
 1030.45        2965.75           2367      235379.00   1063853.00
 1030.48        2966.00           2370      248277.00   1124464.00
 1030.51        2966.25           2374      262027.00   1189360.00
 1030.54        2966.50           2378      272347.00   1238260.00
 1030.57        2966.75           2381      276786.00   1259345.00
 1030.60        2967.00           2385      278386.00   1266953.00
 1030.64        2967.25           2388      279108.00   1270387.00
 1030.67        2967.50           2392      278763.00   1268746.00
 1030.70        2967.75           2395      278393.00   1266986.00
 1030.73        2968.00           2399      275786.00   1254593.00
 1030.76        2968.25           2402      270507.00   1229529.00
 1030.79        2968.50           2406      257631.00   1168580.00
 1030.82        2968.75           2409      245435.00   1111086.00
 1030.85        2969.00           2413      230459.00   1040799.00
 1030.88        2969.25           2417      216356.00    974921.00
 1030.91        2969.50           2420      205592.00    924841.10
 1030.94        2969.75           2424      190833.00    856454.80
 1030.97        2970.00           2427      177395.00    794469.00
 1031.00        2970.25           2431      160351.00    716228.60
 1031.03        2970.50           2434      146801.00    654326.90
 1031.06        2970.75           2438      130220.00    578935.10
 1031.09        2971.00           2441      117785.00    522649.80
 1031.12        2971.25           2445      101399.00    448811.10
 1031.16        2971.50           2449       85805.00    378886.60
 1031.19        2971.75           2452       74502.00    328411.70
 1031.22        2972.00           2456       59245.00    260554.80
 1031.25        2972.25           2459       46740.00    205171.30
 1031.28        2972.50           2463       29758.00    130293.00
 1031.31        2972.75           2466       18156.00     79355.50
 1031.34        2973.00           2470        6521.00     28449.92
 1031.37        2973.25           2473        2976.00     12974.77
 1031.40        2973.50           2477        1640.00      7146.90
 1031.43        2973.75           2481        1411.00      6148.19
 1031.46        2974.00           2484        1341.00      5842.92
 1031.49        2974.25           2488        1306.00      5690.29
 1031.52        2974.50           2491        1316.00      5733.90
 1031.55        2974.75           2495        1289.00      5616.16
 1031.58        2975.00           2498        1292.00      5629.24
 1031.61        2975.25           2502        1247.00      5433.00
 1031.65        2975.50           2505        1222.00      5323.98
 1031.68        2975.75           2509        1216.00      5297.82
 1031.71        2976.00           2512        1183.00      5153.91
 1031.74        2976.25           2516        1184.00      5158.27
 1031.77        2976.50           2520        1161.00      5057.98
 1031.80        2976.75           2523        1131.00      4927.16
 1031.83        2977.00           2527        1120.00      4879.19
 1031.86        2977.25           2530        1192.00      5193.16
 1031.89        2977.50           2534        1157.00      5040.53
 1031.92        2977.75           2537        1152.00      5018.73
 1031.95        2978.00           2541        1084.00      4722.21
 1031.98        2978.25           2544        1095.00      4770.17
 1032.01        2978.50           2548        1088.00      4739.65
 1032.04        2978.75           2552        1076.00      4687.32
 1032.07        2979.00           2555        1043.00      4543.42
 1032.10        2979.25           2559        1076.00      4687.32
 1032.13        2979.50           2562        1054.00      4591.39
 1032.16        2979.75           2566        1008.00      4390.80
 1032.20        2980.00           2569        1002.00      4364.64
 1032.23        2980.25           2573        1032.00      4495.46
 1032.26        2980.50           2577         991.00      4316.68
 1032.29        2980.75           2580        1011.00      4403.89
 1032.32        2981.00           2584         998.00      4347.20
 1032.35        2981.25           2587         992.00      4321.04
 1032.38        2981.50           2591        1004.00      4373.36
 1032.41        2981.75           2594         964.00      4198.94
 1032.44        2982.00           2598         983.00      4281.79
 1032.47        2982.25           2601         979.00      4264.35
 1032.50        2982.50           2605         989.00      4307.95
 1032.53        2982.75           2609         980.00      4268.71
 1032.56        2983.00           2612         975.00      4246.91
 1032.59        2983.25           2616         948.00      4129.18
 1032.62        2983.50           2619         961.00      4185.86
 1032.65        2983.75           2623         948.00      4129.18
 1032.69        2984.00           2626         972.00      4233.83
HS scan finished at 17:12:55
end
