************************************************************
  HS Scan of 
************************************************************
Integration time is 0.2294 seconds per sample
dh160117Reading 51.44 .94 2.9pr1000
************************************************************
Dead Time -------------------------  3.4E-08 
Number of Cycles Used -------------  4 
Starting Wavelength (Angstroms) ---  2950 
Final Wavelength (Angstoms) -------  2984 
Wavelength Increment (Angstroms) --  .25 
Filter Wheel #1 Position ---------- (1) Ground quartz diffuser (ND=2.32)
Filter Wheel #2 Position ---------- (1) Neutral Density 0.494



************************************************************
HS scan start time = 05:12:50
Dark Count =  .6 


Time (GMT)  Wavelength (Ang)  Step Number  Raw Counts  Counts/Second

  313.73        2950.00           2144         761.00      3315.11
  313.93        2950.25           2147         771.00      3358.71
  313.96        2950.50           2151         762.00      3319.47
  313.99        2950.75           2155         756.00      3293.31
  314.02        2951.00           2158         748.00      3258.43
  314.05        2951.25           2162         740.00      3223.54
  314.08        2951.50           2165         781.00      3402.31
  314.11        2951.75           2169         743.00      3236.63
  314.14        2952.00           2172         768.00      3345.63
  314.17        2952.25           2176         758.00      3302.03
  314.20        2952.50           2179         783.00      3411.03
  314.23        2952.75           2183         751.00      3271.51
  314.26        2953.00           2186         786.00      3424.11
  314.30        2953.25           2190         770.00      3354.35
  314.33        2953.50           2193         781.00      3402.31
  314.36        2953.75           2197         785.00      3419.75
  314.39        2954.00           2200         789.00      3437.19
  314.42        2954.25           2204         779.00      3393.59
  314.45        2954.50           2208         809.00      3524.40
  314.48        2954.75           2211         805.00      3506.96
  314.51        2955.00           2215         833.00      3629.04
  314.54        2955.25           2218         820.00      3572.36
  314.57        2955.50           2222         830.00      3615.96
  314.60        2955.75           2225         804.00      3502.60
  314.63        2956.00           2229         818.00      3563.64
  314.66        2956.25           2232         838.00      3650.85
  314.69        2956.50           2236         834.00      3633.40
  314.72        2956.75           2239         855.00      3724.97
  314.75        2957.00           2243         865.00      3768.57
  314.78        2957.25           2246         849.00      3698.81
  314.82        2957.50           2250         862.00      3755.49
  314.85        2957.75           2254         907.00      3951.71
  314.88        2958.00           2257         853.00      3716.25
  314.91        2958.25           2261         850.00      3703.17
  314.94        2958.50           2264         850.00      3703.17
  314.97        2958.75           2268         922.00      4017.11
  315.00        2959.00           2271         902.00      3929.91
  315.03        2959.25           2275         905.00      3942.99
  315.06        2959.50           2278         896.00      3903.74
  315.09        2959.75           2282         936.00      4078.16
  315.12        2960.00           2285         931.00      4056.36
  315.15        2960.25           2289         986.00      4296.18
  315.18        2960.50           2293         977.00      4256.94
  315.21        2960.75           2296        1004.00      4374.67
  315.24        2961.00           2300        1024.00      4461.88
  315.27        2961.25           2303        1302.00      5674.16
  315.30        2961.50           2307        4514.00     19687.98
  315.33        2961.75           2310        9710.00     42386.24
  315.38        2962.00           2314       18714.00     81802.62
  315.41        2962.25           2317       26714.00    116912.80
  315.44        2962.50           2321       37646.00    165027.10
  315.47        2962.75           2324       46068.00    202202.30
  315.50        2963.00           2328       56483.00    248305.40
  315.53        2963.25           2331       65399.00    287888.80
  315.56        2963.50           2335       78062.00    344291.90
  315.59        2963.75           2339       89488.00    395372.60
  315.63        2964.00           2342       98374.00    435222.00
  315.66        2964.25           2346      109553.00    485509.30
  315.69        2964.50           2349      118339.00    525154.10
  315.72        2964.75           2353      129777.00    576927.50
  315.75        2965.00           2356      138159.00    614985.40
  315.78        2965.25           2360      148066.00    660096.10
  315.81        2965.50           2363      155310.00    693169.90
  315.84        2965.75           2367      165661.00    740560.30
  315.87        2966.00           2370      173148.00    774935.00
  315.90        2966.25           2374      182936.00    819997.40
  315.93        2966.50           2378      189342.00    849565.50
  315.96        2966.75           2381      190663.00    855670.40
  315.99        2967.00           2385      190965.00    857066.50
  316.02        2967.25           2388      190949.00    856992.50
  316.05        2967.50           2392      190886.00    856701.20
  316.08        2967.75           2395      190466.00    854759.80
  316.11        2968.00           2399      185480.00    831732.50
  316.15        2968.25           2402      179522.00    804264.00
  316.18        2968.50           2406      170755.00    763939.30
  316.21        2968.75           2409      162052.00    724019.50
  316.24        2969.00           2413      151742.00    676870.10
  316.27        2969.25           2417      141382.00    629645.80
  316.30        2969.50           2420      133253.00    592698.00
  316.33        2969.75           2424      122202.00    542619.10
  316.36        2970.00           2427      112918.00    500680.40
  316.39        2970.25           2431      101913.00    451123.00
  316.42        2970.50           2434       94070.00    415907.00
  316.45        2970.75           2438       83293.00    367655.30
  316.48        2971.00           2441       75174.00    331409.10
  316.51        2971.25           2445       63458.00    279262.40
  316.54        2971.50           2449       51005.00    224038.40
  316.57        2971.75           2452       42639.00    187055.10
  316.60        2972.00           2456       32493.00    142327.90
  316.63        2972.25           2459       24753.00    108298.70
  316.67        2972.50           2463       14549.00     63556.56
  316.70        2972.75           2466        7301.00     31858.38
  316.73        2973.00           2470        2286.00      9965.89
  316.76        2973.25           2473        1338.00      5831.15
  316.79        2973.50           2477        1087.00      4736.60
  316.82        2973.75           2481        1011.00      4405.19
  316.85        2974.00           2484        1021.00      4448.80
  316.88        2974.25           2488         996.00      4339.79
  316.91        2974.50           2491         984.00      4287.46
  316.94        2974.75           2495         924.00      4025.83
  316.97        2975.00           2498         952.00      4147.93
  317.00        2975.25           2502         912.00      3973.51
  317.03        2975.50           2505         881.00      3838.34
  317.06        2975.75           2509         918.00      3999.67
  317.09        2976.00           2512         896.00      3903.74
  317.12        2976.25           2516         895.00      3899.38
  317.15        2976.50           2520         881.00      3838.34
  317.19        2976.75           2523         872.00      3799.10
  317.22        2977.00           2527         875.00      3812.18
  317.25        2977.25           2530         886.00      3860.14
  317.28        2977.50           2534         836.00      3642.13
  317.31        2977.75           2537         839.00      3655.21
  317.34        2978.00           2541         838.00      3650.85
  317.37        2978.25           2544         846.00      3685.73
  317.40        2978.50           2548         801.00      3489.52
  317.43        2978.75           2552         800.00      3485.16
  317.46        2979.00           2555         791.00      3445.91
  317.49        2979.25           2559         811.00      3533.12
  317.52        2979.50           2562         786.00      3424.11
  317.55        2979.75           2566         803.00      3498.24
  317.58        2980.00           2569         797.00      3472.08
  317.61        2980.25           2573         800.00      3485.16
  317.64        2980.50           2577         793.00      3454.63
  317.67        2980.75           2580         777.00      3384.87
  317.71        2981.00           2584         799.00      3480.80
  317.74        2981.25           2587         788.00      3432.83
  317.77        2981.50           2591         792.00      3450.27
  317.80        2981.75           2594         745.00      3245.35
  317.83        2982.00           2598         769.00      3349.99
  317.86        2982.25           2601         772.00      3363.07
  317.89        2982.50           2605         746.00      3249.71
  317.92        2982.75           2609         761.00      3315.11
  317.95        2983.00           2612         763.00      3323.83
  317.98        2983.25           2616         777.00      3384.87
  318.01        2983.50           2619         734.00      3197.38
  318.04        2983.75           2623         742.00      3232.26
  318.07        2984.00           2626         733.00      3193.02
HS scan finished at 05:18:18
end
************************************************************
  HS Scan of 
************************************************************
Integration time is 0.2294 seconds per sample
dh160117Reading 51.44 .94 2.82pr1000
************************************************************
Dead Time -------------------------  3.4E-08 
Number of Cycles Used -------------  4 
Starting Wavelength (Angstroms) ---  2950 
Final Wavelength (Angstoms) -------  2984 
Wavelength Increment (Angstroms) --  .25 
Filter Wheel #1 Position ---------- (1) Ground quartz diffuser (ND=2.32)
Filter Wheel #2 Position ---------- (1) Neutral Density 0.494



************************************************************
HS scan start time = 17:07:19
Dark Count =  .7 


Time (GMT)  Wavelength (Ang)  Step Number  Raw Counts  Counts/Second

 1028.22        2950.00           2144         784.00      3414.96
 1028.41        2950.25           2147         782.00      3406.24
 1028.44        2950.50           2151         748.00      3257.99
 1028.47        2950.75           2155         774.00      3371.35
 1028.50        2951.00           2158         785.00      3419.32
 1028.53        2951.25           2162         789.00      3436.76
 1028.56        2951.50           2165         780.00      3397.52
 1028.60        2951.75           2169         791.00      3445.48
 1028.63        2952.00           2172         801.00      3489.08
 1028.66        2952.25           2176         812.00      3537.04
 1028.69        2952.50           2179         802.00      3493.44
 1028.72        2952.75           2183         791.00      3445.48
 1028.75        2953.00           2186         824.00      3589.37
 1028.78        2953.25           2190         805.00      3506.52
 1028.81        2953.50           2193         796.00      3467.28
 1028.84        2953.75           2197         801.00      3489.08
 1028.87        2954.00           2200         814.00      3545.76
 1028.90        2954.25           2204         805.00      3506.52
 1028.93        2954.50           2208         828.00      3606.81
 1028.96        2954.75           2211         814.00      3545.76
 1028.99        2955.00           2215         799.00      3480.36
 1029.02        2955.25           2218         827.00      3602.45
 1029.05        2955.50           2222         822.00      3580.65
 1029.08        2955.75           2225         797.00      3471.64
 1029.12        2956.00           2229         778.00      3388.80
 1029.15        2956.25           2232         845.00      3680.93
 1029.18        2956.50           2236         851.00      3707.09
 1029.21        2956.75           2239         854.00      3720.17
 1029.24        2957.00           2243         871.00      3794.30
 1029.27        2957.25           2246         837.00      3646.05
 1029.30        2957.50           2250         892.00      3885.87
 1029.33        2957.75           2254         866.00      3772.50
 1029.36        2958.00           2257         872.00      3798.66
 1029.39        2958.25           2261         911.00      3968.71
 1029.42        2958.50           2264         929.00      4047.20
 1029.45        2958.75           2268         921.00      4012.32
 1029.48        2959.00           2271         950.00      4138.77
 1029.51        2959.25           2275         920.00      4007.96
 1029.54        2959.50           2278         914.00      3981.79
 1029.57        2959.75           2282         952.00      4147.49
 1029.60        2960.00           2285         919.00      4003.60
 1029.64        2960.25           2289         948.00      4130.05
 1029.67        2960.50           2293         947.00      4125.69
 1029.70        2960.75           2296         993.00      4326.27
 1029.73        2961.00           2300        1020.00      4444.00
 1029.76        2961.25           2303        1137.00      4954.19
 1029.79        2961.50           2307        2484.00     10829.18
 1029.82        2961.75           2310        6526.00     28472.63
 1029.85        2962.00           2314       14236.00     62185.84
 1029.88        2962.25           2317       20962.00     91659.66
 1029.91        2962.50           2321       31089.00    136148.90
 1029.94        2962.75           2324       39364.00    172602.40
 1029.97        2963.00           2328       50161.00    220302.70
 1030.00        2963.25           2331       57467.00    252668.30
 1030.03        2963.50           2335       66964.00    294847.30
 1030.06        2963.75           2339       77621.00    342323.50
 1030.09        2964.00           2342       86024.00    379867.20
 1030.12        2964.25           2346       96681.00    427620.80
 1030.16        2964.50           2349      104448.00    462523.10
 1030.19        2964.75           2353      114619.00    508354.80
 1030.22        2965.00           2356      122092.00    542121.10
 1030.25        2965.25           2360      132788.00    590586.80
 1030.28        2965.50           2363      140676.00    626432.60
 1030.31        2965.75           2367      149921.00    668557.80
 1030.34        2966.00           2370      156986.00    700832.30
 1030.37        2966.25           2374      166140.00    742756.60
 1030.40        2966.50           2378      172920.00    773886.50
 1030.43        2966.75           2381      175410.00    785336.00
 1030.46        2967.00           2385      176025.00    788165.30
 1030.49        2967.25           2388      176059.00    788321.80
 1030.52        2967.50           2392      175908.00    787627.00
 1030.55        2967.75           2395      176308.00    789467.30
 1030.58        2968.00           2399      173827.00    778056.00
 1030.61        2968.25           2402      169472.00    758047.00
 1030.64        2968.50           2406      161382.00    720950.30
 1030.68        2968.75           2409      155497.00    694024.10
 1030.71        2969.00           2413      146602.00    653420.60
 1030.74        2969.25           2417      135828.00    604391.10
 1030.77        2969.50           2420      128077.00    569220.50
 1030.80        2969.75           2424      117997.00    523608.40
 1030.83        2970.00           2427      111181.00    492846.70
 1030.86        2970.25           2431      100935.00    446726.60
 1030.89        2970.50           2434       93432.00    413045.60
 1030.92        2970.75           2438       81646.00    360294.80
 1030.95        2971.00           2441       73946.00    325934.20
 1030.98        2971.25           2445       63014.00    277289.40
 1031.01        2971.50           2449       52874.00    232312.90
 1031.04        2971.75           2452       45266.00    198657.70
 1031.07        2972.00           2456       35531.00    155705.70
 1031.10        2972.25           2459       28059.00    122823.50
 1031.13        2972.50           2463       18562.00     81135.90
 1031.16        2972.75           2466       11398.00     49767.23
 1031.19        2973.00           2470        3785.00     16505.77
 1031.23        2973.25           2473        1653.00      7204.47
 1031.26        2973.50           2477        1070.00      4662.03
 1031.29        2973.75           2481        1034.00      4505.05
 1031.32        2974.00           2484        1000.00      4356.79
 1031.35        2974.25           2488         992.00      4321.91
 1031.38        2974.50           2491         961.00      4186.73
 1031.41        2974.75           2495         951.00      4143.13
 1031.44        2975.00           2498         958.00      4173.65
 1031.47        2975.25           2502         901.00      3925.11
 1031.50        2975.50           2505         905.00      3942.55
 1031.53        2975.75           2509         936.00      4077.72
 1031.56        2976.00           2512         912.00      3973.07
 1031.59        2976.25           2516         865.00      3768.14
 1031.62        2976.50           2520         879.00      3829.18
 1031.65        2976.75           2523         889.00      3872.79
 1031.68        2977.00           2527         868.00      3781.22
 1031.71        2977.25           2530         846.00      3685.29
 1031.75        2977.50           2534         839.00      3654.77
 1031.78        2977.75           2537         845.00      3680.93
 1031.81        2978.00           2541         828.00      3606.81
 1031.84        2978.25           2544         847.00      3689.65
 1031.87        2978.50           2548         828.00      3606.81
 1031.90        2978.75           2552         831.00      3619.89
 1031.93        2979.00           2555         803.00      3497.80
 1031.96        2979.25           2559         814.00      3545.76
 1031.99        2979.50           2562         811.00      3532.68
 1032.02        2979.75           2566         816.00      3554.48
 1032.05        2980.00           2569         796.00      3467.28
 1032.08        2980.25           2573         831.00      3619.89
 1032.11        2980.50           2577         792.00      3449.84
 1032.14        2980.75           2580         797.00      3471.64
 1032.17        2981.00           2584         761.00      3314.67
 1032.20        2981.25           2587         794.00      3458.56
 1032.23        2981.50           2591         756.00      3292.87
 1032.27        2981.75           2594         755.00      3288.51
 1032.30        2982.00           2598         769.00      3349.55
 1032.33        2982.25           2601         769.00      3349.55
 1032.36        2982.50           2605         741.00      3227.47
 1032.39        2982.75           2609         772.00      3362.63
 1032.42        2983.00           2612         761.00      3314.67
 1032.45        2983.25           2616         756.00      3292.87
 1032.48        2983.50           2619         749.00      3262.35
 1032.51        2983.75           2623         753.00      3279.79
 1032.54        2984.00           2626         719.00      3131.55
HS scan finished at 17:12:46
end
