************************************************************
  HS Scan of (1) Internal mercury lamp
************************************************************
Integration time is 0.2294 seconds per sample
dh190118Reading 51.44 .94 2.33pr1000
************************************************************
Dead Time -------------------------  3.4E-08 
Number of Cycles Used -------------  4 
Starting Wavelength (Angstroms) ---  2950 
Final Wavelength (Angstoms) -------  2984 
Wavelength Increment (Angstroms) --  .25 
Filter Wheel #1 Position ---------- (1) Ground quartz diffuser (ND=2.32)
Filter Wheel #2 Position ---------- (1) Neutral Density 0.494



************************************************************
HS scan start time = 05:14:01
Dark Count =  .2 


Time (GMT)  Wavelength (Ang)  Step Number  Raw Counts  Counts/Second

  314.91        2950.00           2144         112.00       487.37
  315.11        2950.25           2147         100.00       435.05
  315.14        2950.50           2151         100.00       435.05
  315.17        2950.75           2155         107.00       465.57
  315.20        2951.00           2158          92.00       400.18
  315.23        2951.25           2162          97.00       421.98
  315.26        2951.50           2165         115.00       500.44
  315.29        2951.75           2169          96.00       417.62
  315.32        2952.00           2172          98.00       426.34
  315.35        2952.25           2176         104.00       452.49
  315.38        2952.50           2179         103.00       448.13
  315.41        2952.75           2183         103.00       448.13
  315.44        2953.00           2186         104.00       452.49
  315.47        2953.25           2190         128.00       557.12
  315.50        2953.50           2193         106.00       461.21
  315.53        2953.75           2197         109.00       474.29
  315.57        2954.00           2200         104.00       452.49
  315.60        2954.25           2204         122.00       530.96
  315.63        2954.50           2208         133.00       578.91
  315.66        2954.75           2211         140.00       609.43
  315.69        2955.00           2215         124.00       539.68
  315.72        2955.25           2218         142.00       618.15
  315.75        2955.50           2222         107.00       465.57
  315.78        2955.75           2225         132.00       574.55
  315.81        2956.00           2229         112.00       487.37
  315.84        2956.25           2232         126.00       548.40
  315.87        2956.50           2236         116.00       504.80
  315.90        2956.75           2239         134.00       583.27
  315.93        2957.00           2243         104.00       452.49
  315.96        2957.25           2246         111.00       483.01
  315.99        2957.50           2250         153.00       666.10
  316.02        2957.75           2254         106.00       461.21
  316.05        2958.00           2257         147.00       639.94
  316.09        2958.25           2261         140.00       609.43
  316.12        2958.50           2264         130.00       565.83
  316.15        2958.75           2268         129.00       561.48
  316.18        2959.00           2271         137.00       596.35
  316.21        2959.25           2275         129.00       561.48
  316.24        2959.50           2278         120.00       522.24
  316.28        2959.75           2282         158.00       687.90
  316.31        2960.00           2285         138.00       600.71
  316.34        2960.25           2289         123.00       535.32
  316.37        2960.50           2293         137.00       596.35
  316.40        2960.75           2296         148.00       644.30
  316.43        2961.00           2300         147.00       639.94
  316.46        2961.25           2303         210.00       914.59
  316.49        2961.50           2307         625.00      2723.88
  316.52        2961.75           2310        1341.00      5845.98
  316.55        2962.00           2314        2889.00     12598.25
  316.58        2962.25           2317        4261.00     18585.41
  316.61        2962.50           2321        6085.00     26548.80
  316.64        2962.75           2324        7416.00     32362.53
  316.67        2963.00           2328        9148.00     39931.25
  316.70        2963.25           2331       10531.00     45977.66
  316.73        2963.50           2335       12194.00     53251.52
  316.76        2963.75           2339       14170.00     61899.10
  316.80        2964.00           2342       15761.00     68865.50
  316.83        2964.25           2346       17495.00     76461.82
  316.86        2964.50           2349       18640.00     81480.00
  316.89        2964.75           2353       20252.00     88547.79
  316.92        2965.00           2356       21730.00     95031.06
  316.95        2965.25           2360       23464.00    102640.90
  316.98        2965.50           2363       25060.00    109648.70
  317.01        2965.75           2367       26712.00    116905.80
  317.04        2966.00           2370       27413.00    119986.30
  317.07        2966.25           2374       28525.00    124874.30
  317.10        2966.50           2378       29908.00    130955.80
  317.13        2966.75           2381       29967.00    131215.30
  317.16        2967.00           2385       29999.00    131356.10
  317.19        2967.25           2388       30017.00    131435.20
  317.22        2967.50           2392       29954.00    131158.10
  317.25        2967.75           2395       29537.00    129324.20
  317.28        2968.00           2399       28658.00    125459.10
  317.32        2968.25           2402       27467.00    120223.60
  317.35        2968.50           2406       25962.00    113610.60
  317.38        2968.75           2409       24712.00    108120.40
  317.41        2969.00           2413       23159.00    101302.10
  317.44        2969.25           2417       21414.00     93644.68
  317.47        2969.50           2420       20004.00     87460.22
  317.50        2969.75           2424       18398.00     80419.25
  317.53        2970.00           2427       17040.00     74468.18
  317.56        2970.25           2431       15462.00     67556.04
  317.59        2970.50           2434       14194.00     62004.16
  317.62        2970.75           2438       12586.00     54966.62
  317.65        2971.00           2441       11215.00     48968.99
  317.68        2971.25           2445        9419.00     41115.85
  317.71        2971.50           2449        7466.00     32580.97
  317.74        2971.75           2452        6242.00     27234.45
  317.77        2972.00           2456        4742.00     20684.99
  317.80        2972.25           2459        3631.00     15835.90
  317.84        2972.50           2463        2127.00      9274.07
  317.87        2972.75           2466        1119.00      4877.88
  317.90        2973.00           2470         370.00      1612.12
  317.93        2973.25           2473         204.00       888.43
  317.96        2973.50           2477         148.00       644.30
  317.99        2973.75           2481         141.00       613.79
  318.02        2974.00           2484         139.00       605.07
  318.05        2974.25           2488         162.00       705.34
  318.08        2974.50           2491         151.00       657.38
  318.11        2974.75           2495         129.00       561.48
  318.14        2975.00           2498         133.00       578.91
  318.17        2975.25           2502         138.00       600.71
  318.20        2975.50           2505         132.00       574.55
  318.23        2975.75           2509         129.00       561.48
  318.26        2976.00           2512         145.00       631.23
  318.29        2976.25           2516         115.00       500.44
  318.32        2976.50           2520         120.00       522.24
  318.35        2976.75           2523         113.00       491.73
  318.39        2977.00           2527         157.00       683.54
  318.42        2977.25           2530         108.00       469.93
  318.45        2977.50           2534         129.00       561.48
  318.48        2977.75           2537         127.00       552.76
  318.51        2978.00           2541         126.00       548.40
  318.54        2978.25           2544         126.00       548.40
  318.57        2978.50           2548         106.00       461.21
  318.60        2978.75           2552         122.00       530.96
  318.63        2979.00           2555         104.00       452.49
  318.66        2979.25           2559         102.00       443.77
  318.69        2979.50           2562          98.00       426.34
  318.72        2979.75           2566          93.00       404.54
  318.75        2980.00           2569         100.00       435.05
  318.78        2980.25           2573         103.00       448.13
  318.81        2980.50           2577         119.00       517.88
  318.84        2980.75           2580         104.00       452.49
  318.87        2981.00           2584         102.00       443.77
  318.91        2981.25           2587         132.00       574.55
  318.94        2981.50           2591          99.00       430.70
  318.97        2981.75           2594          98.00       426.34
  319.00        2982.00           2598         101.00       439.41
  319.03        2982.25           2601          98.00       426.34
  319.06        2982.50           2605          91.00       395.82
  319.09        2982.75           2609          90.00       391.46
  319.12        2983.00           2612         107.00       465.57
  319.15        2983.25           2616          94.00       408.90
  319.18        2983.50           2619          88.00       382.74
  319.21        2983.75           2623          93.00       404.54
  319.24        2984.00           2626          94.00       408.90
HS scan finished at 05:19:28
end
************************************************************
  HS Scan of (1) Internal mercury lamp
************************************************************
Integration time is 0.2294 seconds per sample
dh190118Reading 51.44 .94 2.78pr1000
************************************************************
Dead Time -------------------------  3.4E-08 
Number of Cycles Used -------------  4 
Starting Wavelength (Angstroms) ---  2950 
Final Wavelength (Angstoms) -------  2984 
Wavelength Increment (Angstroms) --  .25 
Filter Wheel #1 Position ---------- (1) Ground quartz diffuser (ND=2.32)
Filter Wheel #2 Position ---------- (1) Neutral Density 0.494



************************************************************
HS scan start time = 17:37:17
Dark Count =  .6 


Time (GMT)  Wavelength (Ang)  Step Number  Raw Counts  Counts/Second

 1058.19        2950.00           2144          92.00       398.44
 1058.38        2950.25           2147          81.00       350.48
 1058.41        2950.50           2151          77.00       333.05
 1058.44        2950.75           2155          88.00       381.00
 1058.47        2951.00           2158          86.00       372.28
 1058.50        2951.25           2162          93.00       402.80
 1058.53        2951.50           2165          89.00       385.36
 1058.56        2951.75           2169          87.00       376.64
 1058.60        2952.00           2172          86.00       372.28
 1058.63        2952.25           2176          92.00       398.44
 1058.66        2952.50           2179          90.00       389.72
 1058.69        2952.75           2183          85.00       367.92
 1058.72        2953.00           2186          85.00       367.92
 1058.75        2953.25           2190          76.00       328.69
 1058.78        2953.50           2193          81.00       350.48
 1058.81        2953.75           2197          86.00       372.28
 1058.84        2954.00           2200         106.00       459.47
 1058.87        2954.25           2204          80.00       346.12
 1058.90        2954.50           2208          86.00       372.28
 1058.93        2954.75           2211         115.00       498.70
 1058.96        2955.00           2215         112.00       485.62
 1058.99        2955.25           2218          92.00       398.44
 1059.02        2955.50           2222          96.00       415.87
 1059.05        2955.75           2225          90.00       389.72
 1059.08        2956.00           2229          84.00       363.56
 1059.12        2956.25           2232          90.00       389.72
 1059.15        2956.50           2236         103.00       446.39
 1059.18        2956.75           2239         102.00       442.03
 1059.21        2957.00           2243          96.00       415.87
 1059.24        2957.25           2246          89.00       385.36
 1059.27        2957.50           2250          95.00       411.51
 1059.30        2957.75           2254          94.00       407.15
 1059.33        2958.00           2257         119.00       516.14
 1059.36        2958.25           2261         115.00       498.70
 1059.39        2958.50           2264         105.00       455.11
 1059.42        2958.75           2268         101.00       437.67
 1059.45        2959.00           2271         100.00       433.31
 1059.48        2959.25           2275         108.00       468.19
 1059.51        2959.50           2278         107.00       463.83
 1059.54        2959.75           2282         126.00       546.65
 1059.57        2960.00           2285         128.00       555.37
 1059.60        2960.25           2289         138.00       598.97
 1059.64        2960.50           2293         168.00       729.75
 1059.67        2960.75           2296         117.00       507.42
 1059.70        2961.00           2300         155.00       673.08
 1059.73        2961.25           2303         275.00      1196.21
 1059.76        2961.50           2307         972.00      4235.14
 1059.79        2961.75           2310        1856.00      8090.28
 1059.82        2962.00           2314        3299.00     14385.41
 1059.85        2962.25           2317        4426.00     19303.86
 1059.88        2962.50           2321        5812.00     25354.89
 1059.91        2962.75           2324        6782.00     29591.22
 1059.94        2963.00           2328        8218.00     35864.99
 1059.97        2963.25           2331        9342.00     40777.51
 1060.00        2963.50           2335       11003.00     48040.05
 1060.03        2963.75           2339       12443.00     54339.19
 1060.06        2964.00           2342       13387.00     58470.09
 1060.09        2964.25           2346       15128.00     66091.68
 1060.12        2964.50           2349       16259.00     71044.99
 1060.16        2964.75           2353       17644.00     77112.99
 1060.19        2965.00           2356       18699.00     81736.87
 1060.22        2965.25           2360       20064.00     87721.58
 1060.25        2965.50           2363       21607.00     94489.66
 1060.28        2965.75           2367       23098.00    101032.60
 1060.31        2966.00           2370       24078.00    105334.70
 1060.34        2966.25           2374       25202.00    110270.60
 1060.37        2966.50           2378       25544.00    111772.70
 1060.40        2966.75           2381       25742.00    112642.40
 1060.43        2967.00           2385       26045.00    113973.50
 1060.46        2967.25           2388       25957.00    113586.90
 1060.49        2967.50           2392       25776.00    112791.80
 1060.52        2967.75           2395       25675.00    112348.10
 1060.55        2968.00           2399       24538.00    107354.50
 1060.58        2968.25           2402       23582.00    103157.20
 1060.61        2968.50           2406       22179.00     96999.41
 1060.64        2968.75           2409       21396.00     93563.96
 1060.68        2969.00           2413       19991.00     87401.46
 1060.71        2969.25           2417       18347.00     80193.96
 1060.74        2969.50           2420       17152.00     74957.15
 1060.77        2969.75           2424       15748.00     68806.82
 1060.80        2970.00           2427       14463.00     63180.04
 1060.83        2970.25           2431       13258.00     57905.53
 1060.86        2970.50           2434       12112.00     52891.03
 1060.89        2970.75           2438       10589.00     46229.55
 1060.92        2971.00           2441        9565.00     41752.35
 1060.95        2971.25           2445        8107.00     35379.94
 1060.98        2971.50           2449        6528.00     28481.80
 1061.01        2971.75           2452        5505.00     24014.37
 1061.04        2972.00           2456        4003.00     17457.61
 1061.07        2972.25           2459        2981.00     12997.90
 1061.10        2972.50           2463        1594.00      6947.59
 1061.13        2972.75           2466         784.00      3415.39
 1061.16        2973.00           2470         235.00      1021.83
 1061.20        2973.25           2473         143.00       620.76
 1061.23        2973.50           2477         133.00       577.17
 1061.26        2973.75           2481         154.00       668.72
 1061.29        2974.00           2484         133.00       577.17
 1061.32        2974.25           2488         123.00       533.58
 1061.35        2974.50           2491         113.00       489.98
 1061.38        2974.75           2495         102.00       442.03
 1061.41        2975.00           2498         102.00       442.03
 1061.44        2975.25           2502         121.00       524.86
 1061.47        2975.50           2505         126.00       546.65
 1061.50        2975.75           2509         105.00       455.11
 1061.53        2976.00           2512         113.00       489.98
 1061.56        2976.25           2516         100.00       433.31
 1061.59        2976.50           2520          93.00       402.80
 1061.62        2976.75           2523         101.00       437.67
 1061.65        2977.00           2527          88.00       381.00
 1061.68        2977.25           2530         117.00       507.42
 1061.71        2977.50           2534          93.00       402.80
 1061.75        2977.75           2537          90.00       389.72
 1061.78        2978.00           2541          91.00       394.08
 1061.81        2978.25           2544          95.00       411.51
 1061.84        2978.50           2548          86.00       372.28
 1061.87        2978.75           2552          83.00       359.20
 1061.90        2979.00           2555          91.00       394.08
 1061.93        2979.25           2559          99.00       428.95
 1061.96        2979.50           2562          88.00       381.00
 1061.99        2979.75           2566          90.00       389.72
 1062.02        2980.00           2569          92.00       398.44
 1062.05        2980.25           2573          90.00       389.72
 1062.08        2980.50           2577          82.00       354.84
 1062.11        2980.75           2580          82.00       354.84
 1062.14        2981.00           2584          78.00       337.41
 1062.17        2981.25           2587          82.00       354.84
 1062.20        2981.50           2591          88.00       381.00
 1062.24        2981.75           2594          78.00       337.41
 1062.27        2982.00           2598          84.00       363.56
 1062.30        2982.25           2601          78.00       337.41
 1062.33        2982.50           2605          76.00       328.69
 1062.36        2982.75           2609          84.00       363.56
 1062.39        2983.00           2612          81.00       350.48
 1062.42        2983.25           2616          79.00       341.77
 1062.45        2983.50           2619          82.00       354.84
 1062.48        2983.75           2623          86.00       372.28
 1062.51        2984.00           2626          83.00       359.20
HS scan finished at 17:42:44
end
