************************************************************
  HS Scan of (1) Internal mercury lamp
************************************************************
Integration time is 0.2294 seconds per sample
dh160118Reading 51.44 .94 2.62pr1000
************************************************************
Dead Time -------------------------  3.4E-08 
Number of Cycles Used -------------  4 
Starting Wavelength (Angstroms) ---  2950 
Final Wavelength (Angstoms) -------  2984 
Wavelength Increment (Angstroms) --  .25 
Filter Wheel #1 Position ---------- (1) Ground quartz diffuser (ND=2.32)
Filter Wheel #2 Position ---------- (1) Neutral Density 0.494



************************************************************
HS scan start time = 05:12:57
Dark Count =  .2 


Time (GMT)  Wavelength (Ang)  Step Number  Raw Counts  Counts/Second

  313.85        2950.00           2144          77.00       334.79
  314.04        2950.25           2147          85.00       369.66
  314.07        2950.50           2151          81.00       352.23
  314.10        2950.75           2155          72.00       312.99
  314.14        2951.00           2158          84.00       365.31
  314.17        2951.25           2162          87.00       378.38
  314.20        2951.50           2165          79.00       343.51
  314.23        2951.75           2169          82.00       356.59
  314.26        2952.00           2172          75.00       326.07
  314.29        2952.25           2176          87.00       378.38
  314.32        2952.50           2179          87.00       378.38
  314.35        2952.75           2183          86.00       374.02
  314.38        2953.00           2186          82.00       356.59
  314.41        2953.25           2190          84.00       365.31
  314.44        2953.50           2193          76.00       330.43
  314.47        2953.75           2197          81.00       352.23
  314.50        2954.00           2200          91.00       395.82
  314.53        2954.25           2204          81.00       352.23
  314.56        2954.50           2208          87.00       378.38
  314.59        2954.75           2211          93.00       404.54
  314.63        2955.00           2215          85.00       369.66
  314.66        2955.25           2218          81.00       352.23
  314.69        2955.50           2222          82.00       356.59
  314.72        2955.75           2225         104.00       452.49
  314.75        2956.00           2229          90.00       391.46
  314.78        2956.25           2232          91.00       395.82
  314.81        2956.50           2236          89.00       387.10
  314.84        2956.75           2239          91.00       395.82
  314.87        2957.00           2243         103.00       448.13
  314.90        2957.25           2246          94.00       408.90
  314.93        2957.50           2250          92.00       400.18
  314.96        2957.75           2254          99.00       430.70
  314.99        2958.00           2257          96.00       417.62
  315.02        2958.25           2261         116.00       504.80
  315.05        2958.50           2264          94.00       408.90
  315.08        2958.75           2268         101.00       439.41
  315.11        2959.00           2271          94.00       408.90
  315.15        2959.25           2275         100.00       435.05
  315.18        2959.50           2278          93.00       404.54
  315.21        2959.75           2282         124.00       539.68
  315.24        2960.00           2285          98.00       426.34
  315.27        2960.25           2289         106.00       461.21
  315.30        2960.50           2293         111.00       483.01
  315.33        2960.75           2296         147.00       639.94
  315.36        2961.00           2300         161.00       700.98
  315.39        2961.25           2303         276.00      1202.32
  315.42        2961.50           2307         885.00      3857.52
  315.45        2961.75           2310        1636.00      7132.51
  315.48        2962.00           2314        2833.00     12353.92
  315.51        2962.25           2317        3836.00     16730.53
  315.54        2962.50           2321        5163.00     22522.91
  315.57        2962.75           2324        6041.00     26356.65
  315.60        2963.00           2328        7327.00     31973.71
  315.63        2963.25           2331        8133.00     35495.30
  315.67        2963.50           2335        9569.00     41771.58
  315.70        2963.75           2339       11056.00     48273.59
  315.73        2964.00           2342       11847.00     51733.46
  315.76        2964.25           2346       13281.00     58007.93
  315.79        2964.50           2349       14342.00     62652.07
  315.82        2964.75           2353       15951.00     69697.66
  315.85        2965.00           2356       16833.00     73561.27
  315.88        2965.25           2360       18075.00     79003.56
  315.91        2965.50           2363       18771.00     82054.25
  315.94        2965.75           2367       20141.00     88061.01
  315.97        2966.00           2370       20953.00     91622.38
  316.00        2966.25           2374       22323.00     97633.06
  316.03        2966.50           2378       22644.00     99041.78
  316.06        2966.75           2381       22880.00    100077.50
  316.09        2967.00           2385       22988.00    100551.60
  316.12        2967.25           2388       22911.00    100213.60
  316.15        2967.50           2392       23080.00    100955.40
  316.18        2967.75           2395       22957.00    100415.50
  316.22        2968.00           2399       21941.00     95956.85
  316.25        2968.25           2402       21066.00     92118.06
  316.28        2968.50           2406       19670.00     85995.62
  316.31        2968.75           2409       18832.00     82321.65
  316.34        2969.00           2413       17405.00     76067.46
  316.37        2969.25           2417       16395.00     71642.48
  316.40        2969.50           2420       15401.00     67288.91
  316.43        2969.75           2424       13943.00     60905.42
  316.46        2970.00           2427       12567.00     54883.49
  316.49        2970.25           2431       11279.00     49248.92
  316.52        2970.50           2434       10251.00     44753.32
  316.55        2970.75           2438        8826.00     38523.84
  316.58        2971.00           2441        7922.00     34573.31
  316.61        2971.25           2445        6557.00     28610.21
  316.64        2971.50           2449        5146.00     22448.69
  316.67        2971.75           2452        4135.00     18035.47
  316.70        2972.00           2456        2883.00     12572.07
  316.74        2972.25           2459        2046.00      8920.75
  316.77        2972.50           2463        1012.00      4411.30
  316.80        2972.75           2466         466.00      2030.65
  316.83        2973.00           2470         176.00       766.37
  316.86        2973.25           2473         138.00       600.71
  316.89        2973.50           2477         141.00       613.79
  316.92        2973.75           2481         129.00       561.48
  316.95        2974.00           2484         106.00       461.21
  316.98        2974.25           2488         106.00       461.21
  317.01        2974.50           2491         100.00       435.05
  317.04        2974.75           2495         103.00       448.13
  317.07        2975.00           2498         116.00       504.80
  317.10        2975.25           2502         101.00       439.41
  317.13        2975.50           2505         116.00       504.80
  317.16        2975.75           2509          99.00       430.70
  317.19        2976.00           2512          92.00       400.18
  317.22        2976.25           2516          92.00       400.18
  317.26        2976.50           2520          91.00       395.82
  317.29        2976.75           2523          87.00       378.38
  317.32        2977.00           2527          92.00       400.18
  317.35        2977.25           2530          89.00       387.10
  317.38        2977.50           2534          94.00       408.90
  317.41        2977.75           2537          88.00       382.74
  317.44        2978.00           2541          87.00       378.38
  317.47        2978.25           2544          81.00       352.23
  317.50        2978.50           2548          83.00       360.95
  317.53        2978.75           2552          84.00       365.31
  317.56        2979.00           2555          81.00       352.23
  317.59        2979.25           2559         105.00       456.85
  317.62        2979.50           2562          88.00       382.74
  317.65        2979.75           2566          74.00       321.71
  317.68        2980.00           2569          83.00       360.95
  317.71        2980.25           2573          86.00       374.02
  317.74        2980.50           2577          89.00       387.10
  317.78        2980.75           2580          84.00       365.31
  317.81        2981.00           2584          86.00       374.02
  317.84        2981.25           2587          78.00       339.15
  317.87        2981.50           2591          78.00       339.15
  317.90        2981.75           2594          78.00       339.15
  317.93        2982.00           2598          77.00       334.79
  317.96        2982.25           2601          81.00       352.23
  317.99        2982.50           2605          81.00       352.23
  318.02        2982.75           2609          77.00       334.79
  318.05        2983.00           2612          78.00       339.15
  318.08        2983.25           2616          75.00       326.07
  318.11        2983.50           2619          91.00       395.82
  318.14        2983.75           2623          82.00       356.59
  318.17        2984.00           2626          80.00       347.87
HS scan finished at 05:18:24
end
************************************************************
  HS Scan of (1) Internal mercury lamp
************************************************************
Integration time is 0.2294 seconds per sample
dh160118Reading 51.44 .94 2.8pr1000
************************************************************
Dead Time -------------------------  3.4E-08 
Number of Cycles Used -------------  4 
Starting Wavelength (Angstroms) ---  2950 
Final Wavelength (Angstoms) -------  2984 
Wavelength Increment (Angstroms) --  .25 
Filter Wheel #1 Position ---------- (1) Ground quartz diffuser (ND=2.32)
Filter Wheel #2 Position ---------- (1) Neutral Density 0.494



************************************************************
HS scan start time = 17:07:26
Dark Count =  .5 


Time (GMT)  Wavelength (Ang)  Step Number  Raw Counts  Counts/Second

 1028.33        2950.00           2144          70.00       302.97
 1028.53        2950.25           2147          67.00       289.89
 1028.56        2950.50           2151          62.00       268.09
 1028.59        2950.75           2155          65.00       281.17
 1028.62        2951.00           2158          67.00       289.89
 1028.65        2951.25           2162          68.00       294.25
 1028.68        2951.50           2165          62.00       268.09
 1028.71        2951.75           2169          65.00       281.17
 1028.74        2952.00           2172          68.00       294.25
 1028.77        2952.25           2176          64.00       276.81
 1028.80        2952.50           2179          75.00       324.76
 1028.83        2952.75           2183          69.00       298.61
 1028.86        2953.00           2186          67.00       289.89
 1028.89        2953.25           2190          70.00       302.97
 1028.92        2953.50           2193          68.00       294.25
 1028.95        2953.75           2197          69.00       298.61
 1028.98        2954.00           2200          70.00       302.97
 1029.01        2954.25           2204          72.00       311.69
 1029.05        2954.50           2208          65.00       281.17
 1029.08        2954.75           2211          74.00       320.40
 1029.11        2955.00           2215          73.00       316.05
 1029.14        2955.25           2218          71.00       307.33
 1029.17        2955.50           2222          65.00       281.17
 1029.20        2955.75           2225          74.00       320.40
 1029.23        2956.00           2229          72.00       311.69
 1029.26        2956.25           2232          72.00       311.69
 1029.29        2956.50           2236          76.00       329.12
 1029.32        2956.75           2239          70.00       302.97
 1029.35        2957.00           2243          70.00       302.97
 1029.38        2957.25           2246          79.00       342.20
 1029.41        2957.50           2250          79.00       342.20
 1029.44        2957.75           2254          82.00       355.28
 1029.47        2958.00           2257          84.00       364.00
 1029.50        2958.25           2261          79.00       342.20
 1029.53        2958.50           2264          78.00       337.84
 1029.57        2958.75           2268          80.00       346.56
 1029.60        2959.00           2271          81.00       350.92
 1029.63        2959.25           2275          76.00       329.12
 1029.66        2959.50           2278          72.00       311.69
 1029.69        2959.75           2282          88.00       381.43
 1029.72        2960.00           2285          90.00       390.15
 1029.75        2960.25           2289          93.00       403.23
 1029.78        2960.50           2293          88.00       381.43
 1029.81        2960.75           2296         111.00       481.70
 1029.84        2961.00           2300         109.00       472.98
 1029.87        2961.25           2303         230.00      1000.47
 1029.90        2961.50           2307         739.00      3219.62
 1029.93        2961.75           2310        1417.00      6176.10
 1029.96        2962.00           2314        2379.00     10372.01
 1029.99        2962.25           2317        3170.00     13822.97
 1030.02        2962.50           2321        4289.00     18706.31
 1030.05        2962.75           2324        5160.00     22508.50
 1030.09        2963.00           2328        6294.00     27460.24
 1030.12        2963.25           2331        7144.00     31172.96
 1030.15        2963.50           2335        8436.00     36818.08
 1030.18        2963.75           2339        9453.00     41263.17
 1030.21        2964.00           2342       10318.00     45044.96
 1030.24        2964.25           2346       11600.00     50651.67
 1030.27        2964.50           2349       12332.00     53853.97
 1030.30        2964.75           2353       13429.00     58654.35
 1030.33        2965.00           2356       14107.00     61622.00
 1030.36        2965.25           2360       15073.00     65851.29
 1030.39        2965.50           2363       15720.00     68684.63
 1030.42        2965.75           2367       17256.00     75413.25
 1030.45        2966.00           2370       18182.00     79471.21
 1030.48        2966.25           2374       18906.00     82644.71
 1030.51        2966.50           2378       19621.00     85779.46
 1030.54        2966.75           2381       19617.00     85761.92
 1030.57        2967.00           2385       19612.00     85740.00
 1030.60        2967.25           2388       19544.00     85441.84
 1030.64        2967.50           2392       19475.00     85139.31
 1030.67        2967.75           2395       19283.00     84297.49
 1030.70        2968.00           2399       18540.00     81040.35
 1030.73        2968.25           2402       17722.00     77455.24
 1030.76        2968.50           2406       16717.00     73051.75
 1030.79        2968.75           2409       15774.00     68921.13
 1030.82        2969.00           2413       14870.00     64962.42
 1030.85        2969.25           2417       13660.00     59665.39
 1030.88        2969.50           2420       12725.00     55573.52
 1030.91        2969.75           2424       11653.00     50883.51
 1030.94        2970.00           2427       10739.00     46885.93
 1030.97        2970.25           2431        9712.00     42395.42
 1031.00        2970.50           2434        8902.00     38854.70
 1031.03        2970.75           2438        7899.00     34471.50
 1031.06        2971.00           2441        6970.00     30412.86
 1031.09        2971.25           2445        5848.00     25512.53
 1031.12        2971.50           2449        4703.00     20513.43
 1031.16        2971.75           2452        3910.00     17052.17
 1031.19        2972.00           2456        2788.00     12156.29
 1031.22        2972.25           2459        1946.00      8483.27
 1031.25        2972.50           2463        1015.00      4423.07
 1031.28        2972.75           2466         461.00      2007.55
 1031.31        2973.00           2470         160.00       695.31
 1031.34        2973.25           2473         100.00       433.75
 1031.37        2973.50           2477         118.00       512.21
 1031.40        2973.75           2481          87.00       377.08
 1031.43        2974.00           2484          95.00       411.95
 1031.46        2974.25           2488          99.00       429.39
 1031.49        2974.50           2491          85.00       368.36
 1031.52        2974.75           2495          84.00       364.00
 1031.55        2975.00           2498          80.00       346.56
 1031.58        2975.25           2502          81.00       350.92
 1031.61        2975.50           2505          88.00       381.43
 1031.65        2975.75           2509          77.00       333.48
 1031.68        2976.00           2512          79.00       342.20
 1031.71        2976.25           2516          73.00       316.05
 1031.74        2976.50           2520          77.00       333.48
 1031.77        2976.75           2523          84.00       364.00
 1031.80        2977.00           2527          75.00       324.76
 1031.83        2977.25           2530          66.00       285.53
 1031.86        2977.50           2534          72.00       311.69
 1031.89        2977.75           2537          78.00       337.84
 1031.92        2978.00           2541          67.00       289.89
 1031.95        2978.25           2544          76.00       329.12
 1031.98        2978.50           2548          67.00       289.89
 1032.01        2978.75           2552          62.00       268.09
 1032.04        2979.00           2555          74.00       320.40
 1032.07        2979.25           2559          73.00       316.05
 1032.10        2979.50           2562          72.00       311.69
 1032.13        2979.75           2566          72.00       311.69
 1032.16        2980.00           2569          66.00       285.53
 1032.20        2980.25           2573          71.00       307.33
 1032.23        2980.50           2577          69.00       298.61
 1032.26        2980.75           2580          70.00       302.97
 1032.29        2981.00           2584          64.00       276.81
 1032.32        2981.25           2587          68.00       294.25
 1032.35        2981.50           2591          69.00       298.61
 1032.38        2981.75           2594          65.00       281.17
 1032.41        2982.00           2598          66.00       285.53
 1032.44        2982.25           2601          62.00       268.09
 1032.47        2982.50           2605          63.00       272.45
 1032.50        2982.75           2609          64.00       276.81
 1032.53        2983.00           2612          65.00       281.17
 1032.56        2983.25           2616          67.00       289.89
 1032.59        2983.50           2619          61.00       263.73
 1032.62        2983.75           2623          61.00       263.73
 1032.65        2984.00           2626          65.00       281.17
HS scan finished at 17:12:53
end
