************************************************************
  HS Scan of (1) Internal mercury lamp
************************************************************
Integration time is 0.2294 seconds per sample
dh150118Reading 51.44 .94 2.72pr1000
************************************************************
Dead Time -------------------------  3.4E-08 
Number of Cycles Used -------------  4 
Starting Wavelength (Angstroms) ---  2950 
Final Wavelength (Angstoms) -------  2984 
Wavelength Increment (Angstroms) --  .25 
Filter Wheel #1 Position ---------- (1) Ground quartz diffuser (ND=2.32)
Filter Wheel #2 Position ---------- (1) Neutral Density 0.494



************************************************************
HS scan start time = 05:13:30
Dark Count =  .5 


Time (GMT)  Wavelength (Ang)  Step Number  Raw Counts  Counts/Second

  314.40        2950.00           2144          82.00       355.28
  314.59        2950.25           2147          88.00       381.43
  314.63        2950.50           2151          73.00       316.05
  314.66        2950.75           2155          79.00       342.20
  314.69        2951.00           2158          80.00       346.56
  314.72        2951.25           2162          78.00       337.84
  314.75        2951.50           2165          81.00       350.92
  314.78        2951.75           2169          83.00       359.64
  314.81        2952.00           2172          78.00       337.84
  314.84        2952.25           2176          78.00       337.84
  314.87        2952.50           2179          86.00       372.72
  314.90        2952.75           2183          74.00       320.40
  314.93        2953.00           2186          81.00       350.92
  314.96        2953.25           2190          85.00       368.36
  314.99        2953.50           2193          85.00       368.36
  315.02        2953.75           2197          85.00       368.36
  315.05        2954.00           2200          81.00       350.92
  315.08        2954.25           2204          93.00       403.23
  315.11        2954.50           2208          81.00       350.92
  315.14        2954.75           2211          92.00       398.87
  315.18        2955.00           2215          77.00       333.48
  315.21        2955.25           2218          84.00       364.00
  315.24        2955.50           2222          91.00       394.51
  315.27        2955.75           2225          84.00       364.00
  315.30        2956.00           2229          88.00       381.43
  315.33        2956.25           2232          85.00       368.36
  315.36        2956.50           2236          86.00       372.72
  315.39        2956.75           2239          91.00       394.51
  315.42        2957.00           2243          88.00       381.43
  315.45        2957.25           2246          83.00       359.64
  315.48        2957.50           2250          84.00       364.00
  315.51        2957.75           2254          88.00       381.43
  315.54        2958.00           2257          88.00       381.43
  315.57        2958.25           2261         116.00       503.50
  315.60        2958.50           2264          98.00       425.03
  315.63        2958.75           2268         105.00       455.54
  315.67        2959.00           2271         113.00       490.42
  315.70        2959.25           2275          96.00       416.31
  315.73        2959.50           2278         124.00       538.37
  315.76        2959.75           2282         103.00       446.82
  315.79        2960.00           2285          98.00       425.03
  315.82        2960.25           2289         102.00       442.47
  315.85        2960.50           2293         115.00       499.14
  315.88        2960.75           2296         137.00       595.04
  315.91        2961.00           2300         156.00       677.87
  315.94        2961.25           2303         210.00       913.28
  315.97        2961.50           2307         721.00      3141.14
  316.00        2961.75           2310        1403.00      6115.05
  316.03        2962.00           2314        2600.00     11336.10
  316.06        2962.25           2317        3532.00     15402.57
  316.09        2962.50           2321        4814.00     20997.99
  316.12        2962.75           2324        5753.00     25097.69
  316.15        2963.00           2328        7069.00     30845.33
  316.19        2963.25           2331        8043.00     35100.72
  316.22        2963.50           2335        9220.00     40244.65
  316.25        2963.75           2339       10552.00     46068.18
  316.28        2964.00           2342       11505.00     50236.13
  316.31        2964.25           2346       13120.00     57302.03
  316.34        2964.50           2349       14020.00     61241.16
  316.37        2964.75           2353       15488.00     67668.59
  316.41        2965.00           2356       16537.00     72263.21
  316.44        2965.25           2360       17892.00     78200.24
  316.47        2965.50           2363       18664.00     81583.88
  316.50        2965.75           2367       20009.00     87480.83
  316.53        2966.00           2370       20989.00     91778.98
  316.56        2966.25           2374       22104.00     96670.75
  316.59        2966.50           2378       22700.00     99286.22
  316.62        2966.75           2381       22610.00     98891.22
  316.65        2967.00           2385       22836.00     99883.09
  316.68        2967.25           2388       23197.00    101467.60
  316.71        2967.50           2392       24208.00    105906.00
  316.74        2967.75           2395       23984.00    104922.50
  316.77        2968.00           2399       22864.00    100006.00
  316.80        2968.25           2402       21995.00     96192.47
  316.83        2968.50           2406       20831.00     91085.92
  316.86        2968.75           2409       19614.00     85748.77
  316.89        2969.00           2413       18152.00     79339.72
  316.93        2969.25           2417       16628.00     72661.85
  316.96        2969.50           2420       15336.00     67002.96
  316.99        2969.75           2424       13925.00     60825.32
  317.02        2970.00           2427       12915.00     56404.94
  317.05        2970.25           2431       11598.00     50642.92
  317.08        2970.50           2434       10677.00     46614.80
  317.11        2970.75           2438        9267.00     40450.10
  317.14        2971.00           2441        8099.00     35345.42
  317.17        2971.25           2445        6850.00     29888.68
  317.20        2971.50           2449        5583.00     24355.38
  317.23        2971.75           2452        4627.00     20181.67
  317.26        2972.00           2456        3343.00     14577.84
  317.29        2972.25           2459        2462.00     10734.08
  317.32        2972.50           2463        1248.00      5439.11
  317.35        2972.75           2466         599.00      2609.21
  317.38        2973.00           2470         182.00       791.22
  317.41        2973.25           2473         156.00       677.87
  317.45        2973.50           2477         115.00       499.14
  317.48        2973.75           2481         111.00       481.70
  317.51        2974.00           2484         124.00       538.37
  317.54        2974.25           2488         103.00       446.82
  317.57        2974.50           2491          97.00       420.67
  317.60        2974.75           2495          98.00       425.03
  317.63        2975.00           2498         105.00       455.54
  317.66        2975.25           2502          99.00       429.39
  317.69        2975.50           2505          95.00       411.95
  317.72        2975.75           2509          92.00       398.87
  317.75        2976.00           2512          97.00       420.67
  317.78        2976.25           2516          95.00       411.95
  317.81        2976.50           2520         112.00       486.06
  317.84        2976.75           2523         106.00       459.90
  317.87        2977.00           2527          89.00       385.79
  317.90        2977.25           2530          90.00       390.15
  317.93        2977.50           2534          90.00       390.15
  317.97        2977.75           2537          89.00       385.79
  318.01        2978.00           2541          93.00       403.23
  318.04        2978.25           2544          81.00       350.92
  318.07        2978.50           2548          95.00       411.95
  318.10        2978.75           2552          81.00       350.92
  318.13        2979.00           2555          78.00       337.84
  318.16        2979.25           2559          89.00       385.79
  318.19        2979.50           2562          89.00       385.79
  318.22        2979.75           2566          87.00       377.08
  318.25        2980.00           2569          84.00       364.00
  318.28        2980.25           2573          79.00       342.20
  318.31        2980.50           2577          84.00       364.00
  318.34        2980.75           2580          88.00       381.43
  318.37        2981.00           2584          85.00       368.36
  318.40        2981.25           2587          82.00       355.28
  318.43        2981.50           2591          68.00       294.25
  318.47        2981.75           2594          83.00       359.64
  318.50        2982.00           2598          77.00       333.48
  318.53        2982.25           2601          70.00       302.97
  318.56        2982.50           2605          76.00       329.12
  318.59        2982.75           2609          84.00       364.00
  318.62        2983.00           2612          75.00       324.76
  318.65        2983.25           2616          72.00       311.69
  318.68        2983.50           2619          75.00       324.76
  318.71        2983.75           2623          79.00       342.20
  318.74        2984.00           2626          79.00       342.20
HS scan finished at 05:18:58
end
************************************************************
  HS Scan of (1) Internal mercury lamp
************************************************************
Integration time is 0.2294 seconds per sample
dh150118Reading 51.44 .94 2.96pr1000
************************************************************
Dead Time -------------------------  3.4E-08 
Number of Cycles Used -------------  4 
Starting Wavelength (Angstroms) ---  2950 
Final Wavelength (Angstoms) -------  2984 
Wavelength Increment (Angstroms) --  .25 
Filter Wheel #1 Position ---------- (1) Ground quartz diffuser (ND=2.32)
Filter Wheel #2 Position ---------- (1) Neutral Density 0.494



************************************************************
HS scan start time = 17:07:26
Dark Count =  .6 


Time (GMT)  Wavelength (Ang)  Step Number  Raw Counts  Counts/Second

 1028.33        2950.00           2144          64.00       276.38
 1028.52        2950.25           2147          65.00       280.74
 1028.55        2950.50           2151          59.00       254.58
 1028.58        2950.75           2155          68.00       293.81
 1028.61        2951.00           2158          64.00       276.38
 1028.64        2951.25           2162          66.00       285.09
 1028.67        2951.50           2165          67.00       289.45
 1028.70        2951.75           2169          69.00       298.17
 1028.74        2952.00           2172          71.00       306.89
 1028.77        2952.25           2176          67.00       289.45
 1028.80        2952.50           2179          69.00       298.17
 1028.83        2952.75           2183          67.00       289.45
 1028.86        2953.00           2186          60.00       258.94
 1028.89        2953.25           2190          68.00       293.81
 1028.92        2953.50           2193          73.00       315.61
 1028.95        2953.75           2197          70.00       302.53
 1028.98        2954.00           2200          69.00       298.17
 1029.01        2954.25           2204          66.00       285.09
 1029.04        2954.50           2208          65.00       280.74
 1029.07        2954.75           2211          75.00       324.33
 1029.10        2955.00           2215          69.00       298.17
 1029.13        2955.25           2218          82.00       354.84
 1029.16        2955.50           2222          69.00       298.17
 1029.19        2955.75           2225          71.00       306.89
 1029.22        2956.00           2229          85.00       367.92
 1029.26        2956.25           2232          80.00       346.12
 1029.29        2956.50           2236          75.00       324.33
 1029.32        2956.75           2239          71.00       306.89
 1029.35        2957.00           2243          79.00       341.77
 1029.38        2957.25           2246          71.00       306.89
 1029.41        2957.50           2250          78.00       337.41
 1029.44        2957.75           2254          82.00       354.84
 1029.47        2958.00           2257          84.00       363.56
 1029.50        2958.25           2261          80.00       346.12
 1029.53        2958.50           2264          78.00       337.41
 1029.56        2958.75           2268          81.00       350.48
 1029.59        2959.00           2271          83.00       359.20
 1029.62        2959.25           2275          90.00       389.72
 1029.65        2959.50           2278          84.00       363.56
 1029.68        2959.75           2282          84.00       363.56
 1029.71        2960.00           2285          79.00       341.77
 1029.74        2960.25           2289          91.00       394.08
 1029.77        2960.50           2293          91.00       394.08
 1029.81        2960.75           2296          98.00       424.59
 1029.84        2961.00           2300         129.00       559.73
 1029.87        2961.25           2303         291.00      1265.97
 1029.90        2961.50           2307         903.00      3934.27
 1029.93        2961.75           2310        1586.00      6912.70
 1029.96        2962.00           2314        2677.00     11671.59
 1029.99        2962.25           2317        3389.00     14778.13
 1030.02        2962.50           2321        4471.00     19500.29
 1030.05        2962.75           2324        5312.00     23171.69
 1030.08        2963.00           2328        6574.00     28682.71
 1030.11        2963.25           2331        7461.00     32557.38
 1030.14        2963.50           2335        8829.00     38535.20
 1030.17        2963.75           2339        9994.00     43627.88
 1030.20        2964.00           2342       10885.00     47523.99
 1030.23        2964.25           2346       11999.00     52396.67
 1030.26        2964.50           2349       12847.00     56106.94
 1030.30        2964.75           2353       13924.00     60820.50
 1030.33        2965.00           2356       14723.00     64318.36
 1030.36        2965.25           2360       15932.00     69612.71
 1030.39        2965.50           2363       16678.00     72880.46
 1030.42        2965.75           2367       17942.00     78418.93
 1030.45        2966.00           2370       18723.00     81842.07
 1030.48        2966.25           2374       19584.00     85616.79
 1030.51        2966.50           2378       20259.00     88576.72
 1030.54        2966.75           2381       20283.00     88681.99
 1030.57        2967.00           2385       20331.00     88892.50
 1030.60        2967.25           2388       20697.00     90497.74
 1030.63        2967.50           2392       20640.00     90247.72
 1030.66        2967.75           2395       20517.00     89708.26
 1030.69        2968.00           2399       20004.00     87458.46
 1030.72        2968.25           2402       19294.00     84345.28
 1030.75        2968.50           2406       17976.00     78567.93
 1030.78        2968.75           2409       17052.00     74519.00
 1030.82        2969.00           2413       15828.00     69157.20
 1030.85        2969.25           2417       14710.00     64261.44
 1030.88        2969.50           2420       13805.00     60299.62
 1030.91        2969.75           2424       12714.00     55524.96
 1030.94        2970.00           2427       11649.00     50865.58
 1030.97        2970.25           2431       10360.00     45228.18
 1031.00        2970.50           2434        9507.00     41498.79
 1031.03        2970.75           2438        8147.00     35554.73
 1031.06        2971.00           2441        7280.00     31766.64
 1031.09        2971.25           2445        6103.00     26625.66
 1031.12        2971.50           2449        4933.00     21517.04
 1031.15        2971.75           2452        3933.00     17152.11
 1031.18        2972.00           2456        2799.00     12203.84
 1031.21        2972.25           2459        1915.00      8347.62
 1031.24        2972.50           2463         940.00      4095.60
 1031.27        2972.75           2466         428.00      1863.24
 1031.30        2973.00           2470         157.00       681.79
 1031.34        2973.25           2473         129.00       559.73
 1031.37        2973.50           2477          89.00       385.36
 1031.40        2973.75           2481          92.00       398.44
 1031.43        2974.00           2484          97.00       420.23
 1031.46        2974.25           2488          89.00       385.36
 1031.49        2974.50           2491          92.00       398.44
 1031.52        2974.75           2495          91.00       394.08
 1031.55        2975.00           2498          84.00       363.56
 1031.58        2975.25           2502          86.00       372.28
 1031.61        2975.50           2505          87.00       376.64
 1031.64        2975.75           2509          84.00       363.56
 1031.67        2976.00           2512          77.00       333.05
 1031.70        2976.25           2516          82.00       354.84
 1031.73        2976.50           2520          75.00       324.33
 1031.76        2976.75           2523          85.00       367.92
 1031.79        2977.00           2527          74.00       319.97
 1031.82        2977.25           2530          80.00       346.12
 1031.86        2977.50           2534          72.00       311.25
 1031.89        2977.75           2537          72.00       311.25
 1031.92        2978.00           2541          73.00       315.61
 1031.95        2978.25           2544          71.00       306.89
 1031.98        2978.50           2548          77.00       333.05
 1032.01        2978.75           2552          83.00       359.20
 1032.04        2979.00           2555          71.00       306.89
 1032.07        2979.25           2559          74.00       319.97
 1032.10        2979.50           2562          79.00       341.77
 1032.13        2979.75           2566          66.00       285.09
 1032.16        2980.00           2569          75.00       324.33
 1032.19        2980.25           2573          67.00       289.45
 1032.22        2980.50           2577          64.00       276.38
 1032.25        2980.75           2580          68.00       293.81
 1032.28        2981.00           2584          71.00       306.89
 1032.31        2981.25           2587          67.00       289.45
 1032.34        2981.50           2591          70.00       302.53
 1032.37        2981.75           2594          70.00       302.53
 1032.41        2982.00           2598          66.00       285.09
 1032.44        2982.25           2601          67.00       289.45
 1032.47        2982.50           2605          62.00       267.66
 1032.50        2982.75           2609          66.00       285.09
 1032.53        2983.00           2612          69.00       298.17
 1032.56        2983.25           2616          64.00       276.38
 1032.59        2983.50           2619          65.00       280.74
 1032.62        2983.75           2623          64.00       276.38
 1032.65        2984.00           2626          63.00       272.02
HS scan finished at 17:12:52
end
