************************************************************
  HS Scan of (1) Internal mercury lamp
************************************************************
Integration time is 0.2294 seconds per sample
dh140118Reading 51.44 .94 2.7pr1000
************************************************************
Dead Time -------------------------  3.4E-08 
Number of Cycles Used -------------  4 
Starting Wavelength (Angstroms) ---  2950 
Final Wavelength (Angstoms) -------  2984 
Wavelength Increment (Angstroms) --  .25 
Filter Wheel #1 Position ---------- (1) Ground quartz diffuser (ND=2.32)
Filter Wheel #2 Position ---------- (1) Neutral Density 0.494



************************************************************
HS scan start time = 05:14:00
Dark Count =  .3 


Time (GMT)  Wavelength (Ang)  Step Number  Raw Counts  Counts/Second

  314.90        2950.00           2144          80.00       347.43
  315.09        2950.25           2147          85.00       369.23
  315.12        2950.50           2151          88.00       382.31
  315.15        2950.75           2155          83.00       360.51
  315.18        2951.00           2158          79.00       343.07
  315.21        2951.25           2162          85.00       369.23
  315.24        2951.50           2165          86.00       373.59
  315.28        2951.75           2169          82.00       356.15
  315.31        2952.00           2172          86.00       373.59
  315.34        2952.25           2176          85.00       369.23
  315.37        2952.50           2179          87.00       377.95
  315.40        2952.75           2183          95.00       412.82
  315.43        2953.00           2186          84.00       364.87
  315.46        2953.25           2190          89.00       386.67
  315.49        2953.50           2193          85.00       369.23
  315.52        2953.75           2197          79.00       343.07
  315.55        2954.00           2200          85.00       369.23
  315.58        2954.25           2204          83.00       360.51
  315.62        2954.50           2208          81.00       351.79
  315.65        2954.75           2211          83.00       360.51
  315.68        2955.00           2215          85.00       369.23
  315.71        2955.25           2218          82.00       356.15
  315.74        2955.50           2222          99.00       430.26
  315.77        2955.75           2225         106.00       460.77
  315.80        2956.00           2229          86.00       373.59
  315.83        2956.25           2232          88.00       382.31
  315.86        2956.50           2236          90.00       391.03
  315.89        2956.75           2239          86.00       373.59
  315.92        2957.00           2243          93.00       404.10
  315.95        2957.25           2246          89.00       386.67
  315.99        2957.50           2250          86.00       373.59
  316.02        2957.75           2254          89.00       386.67
  316.05        2958.00           2257          99.00       430.26
  316.08        2958.25           2261          93.00       404.10
  316.11        2958.50           2264          88.00       382.31
  316.14        2958.75           2268          95.00       412.82
  316.17        2959.00           2271         141.00       613.35
  316.20        2959.25           2275         105.00       456.42
  316.23        2959.50           2278          96.00       417.18
  316.26        2959.75           2282          97.00       421.54
  316.29        2960.00           2285         111.00       482.57
  316.32        2960.25           2289         111.00       482.57
  316.35        2960.50           2293         106.00       460.77
  316.38        2960.75           2296         114.00       495.65
  316.41        2961.00           2300         178.00       774.65
  316.44        2961.25           2303         266.00      1158.28
  316.47        2961.50           2307         901.00      3926.85
  316.51        2961.75           2310        1649.00      7188.77
  316.54        2962.00           2314        2889.00     12597.81
  316.57        2962.25           2317        3925.00     17118.51
  316.60        2962.50           2321        5391.00     23517.93
  316.63        2962.75           2324        6269.00     27351.93
  316.66        2963.00           2328        7598.00     33157.24
  316.69        2963.25           2331        8539.00     37269.08
  316.72        2963.50           2335        9959.00     43476.17
  316.75        2963.75           2339       11450.00     49996.43
  316.78        2964.00           2342       12668.00     55324.98
  316.81        2964.25           2346       14021.00     61246.41
  316.84        2964.50           2349       14947.00     65300.45
  316.87        2964.75           2353       16261.00     71055.06
  316.90        2965.00           2356       17441.00     76224.75
  316.93        2965.25           2360       18559.00     81124.50
  316.96        2965.50           2363       19610.00     85732.10
  316.99        2965.75           2367       21044.00     92021.11
  317.02        2966.00           2370       21808.00     95372.84
  317.06        2966.25           2374       22813.00     99783.02
  317.09        2966.50           2378       23441.00    102539.50
  317.12        2966.75           2381       23489.00    102750.20
  317.15        2967.00           2385       23516.00    102868.80
  317.18        2967.25           2388       23523.00    102899.50
  317.21        2967.50           2392       23481.00    102715.10
  317.24        2967.75           2395       23190.00    101437.70
  317.27        2968.00           2399       22296.00     97514.13
  317.30        2968.25           2402       21469.00     93885.52
  317.33        2968.50           2406       20179.00     88227.21
  317.36        2968.75           2409       19419.00     84894.64
  317.39        2969.00           2413       18082.00     79033.81
  317.42        2969.25           2417       16707.00     73008.82
  317.45        2969.50           2420       15743.00     68786.24
  317.48        2969.75           2424       14431.00     63041.26
  317.51        2970.00           2427       13417.00     58602.71
  317.55        2970.25           2431       11955.00     52205.49
  317.58        2970.50           2434       11068.00     48325.64
  317.61        2970.75           2438        9705.00     42365.69
  317.64        2971.00           2441        8374.00     36548.01
  317.67        2971.25           2445        6979.00     30453.05
  317.70        2971.50           2449        5870.00     25609.47
  317.73        2971.75           2452        4790.00     20894.09
  317.76        2972.00           2456        3544.00     15455.81
  317.79        2972.25           2459        2609.00     11376.24
  317.82        2972.50           2463        1439.00      6272.92
  317.85        2972.75           2466         687.00      2993.77
  317.88        2973.00           2470         224.00       975.18
  317.91        2973.25           2473         134.00       582.84
  317.94        2973.50           2477         147.00       639.51
  317.97        2973.75           2481         136.00       591.56
  318.00        2974.00           2484         104.00       452.06
  318.03        2974.25           2488         133.00       578.48
  318.07        2974.50           2491         128.00       556.68
  318.10        2974.75           2495         126.00       547.96
  318.13        2975.00           2498         124.00       539.24
  318.16        2975.25           2502         102.00       443.34
  318.19        2975.50           2505         102.00       443.34
  318.22        2975.75           2509          94.00       408.46
  318.25        2976.00           2512          99.00       430.26
  318.28        2976.25           2516          99.00       430.26
  318.31        2976.50           2520          95.00       412.82
  318.34        2976.75           2523          88.00       382.31
  318.37        2977.00           2527          91.00       395.38
  318.40        2977.25           2530          85.00       369.23
  318.43        2977.50           2534          81.00       351.79
  318.46        2977.75           2537          86.00       373.59
  318.49        2978.00           2541          92.00       399.74
  318.52        2978.25           2544          92.00       399.74
  318.55        2978.50           2548          85.00       369.23
  318.58        2978.75           2552          83.00       360.51
  318.62        2979.00           2555          89.00       386.67
  318.65        2979.25           2559          84.00       364.87
  318.68        2979.50           2562          90.00       391.03
  318.71        2979.75           2566          77.00       334.35
  318.74        2980.00           2569          93.00       404.10
  318.77        2980.25           2573          77.00       334.35
  318.80        2980.50           2577          86.00       373.59
  318.83        2980.75           2580          72.00       312.56
  318.86        2981.00           2584          77.00       334.35
  318.89        2981.25           2587          79.00       343.07
  318.92        2981.50           2591          81.00       351.79
  318.95        2981.75           2594          88.00       382.31
  318.98        2982.00           2598          72.00       312.56
  319.01        2982.25           2601          74.00       321.28
  319.04        2982.50           2605          82.00       356.15
  319.07        2982.75           2609          86.00       373.59
  319.10        2983.00           2612          78.00       338.71
  319.14        2983.25           2616          73.00       316.92
  319.17        2983.50           2619          74.00       321.28
  319.20        2983.75           2623          82.00       356.15
  319.23        2984.00           2626          69.00       299.48
HS scan finished at 05:19:27
end
************************************************************
  HS Scan of (1) Internal mercury lamp
************************************************************
Integration time is 0.2294 seconds per sample
dh140118Reading 51.44 .94 2.82pr1000
************************************************************
Dead Time -------------------------  3.4E-08 
Number of Cycles Used -------------  4 
Starting Wavelength (Angstroms) ---  2950 
Final Wavelength (Angstoms) -------  2984 
Wavelength Increment (Angstroms) --  .25 
Filter Wheel #1 Position ---------- (1) Ground quartz diffuser (ND=2.32)
Filter Wheel #2 Position ---------- (1) Neutral Density 0.494



************************************************************
HS scan start time = 17:07:28
Dark Count =  .7 


Time (GMT)  Wavelength (Ang)  Step Number  Raw Counts  Counts/Second

 1028.36        2950.00           2144          78.00       336.97
 1028.56        2950.25           2147          78.00       336.97
 1028.59        2950.50           2151          72.00       310.81
 1028.62        2950.75           2155          81.00       350.05
 1028.65        2951.00           2158          78.00       336.97
 1028.68        2951.25           2162          77.00       332.61
 1028.71        2951.50           2165          83.00       358.77
 1028.74        2951.75           2169          81.00       350.05
 1028.77        2952.00           2172          80.00       345.69
 1028.80        2952.25           2176          81.00       350.05
 1028.83        2952.50           2179          78.00       336.97
 1028.86        2952.75           2183          87.00       376.20
 1028.89        2953.00           2186          77.00       332.61
 1028.93        2953.25           2190          86.00       371.84
 1028.96        2953.50           2193          79.00       341.33
 1028.99        2953.75           2197          89.00       384.92
 1029.02        2954.00           2200          83.00       358.77
 1029.05        2954.25           2204          76.00       328.25
 1029.08        2954.50           2208          87.00       376.20
 1029.11        2954.75           2211          89.00       384.92
 1029.14        2955.00           2215          90.00       389.28
 1029.17        2955.25           2218          87.00       376.20
 1029.20        2955.50           2222          82.00       354.41
 1029.23        2955.75           2225          84.00       363.13
 1029.26        2956.00           2229          84.00       363.13
 1029.29        2956.25           2232          80.00       345.69
 1029.32        2956.50           2236          91.00       393.64
 1029.35        2956.75           2239          88.00       380.56
 1029.38        2957.00           2243          98.00       424.16
 1029.41        2957.25           2246          80.00       345.69
 1029.44        2957.50           2250          85.00       367.49
 1029.48        2957.75           2254          84.00       363.13
 1029.51        2958.00           2257          98.00       424.16
 1029.54        2958.25           2261          89.00       384.92
 1029.57        2958.50           2264         102.00       441.59
 1029.60        2958.75           2268          93.00       402.36
 1029.63        2959.00           2271          95.00       411.08
 1029.66        2959.25           2275          94.00       406.72
 1029.69        2959.50           2278         116.00       502.62
 1029.72        2959.75           2282         101.00       437.23
 1029.75        2960.00           2285         103.00       445.95
 1029.78        2960.25           2289         103.00       445.95
 1029.81        2960.50           2293         120.00       520.06
 1029.84        2960.75           2296         112.00       485.19
 1029.87        2961.00           2300         142.00       615.97
 1029.90        2961.25           2303         305.00      1326.56
 1029.93        2961.50           2307         978.00      4260.86
 1029.97        2961.75           2310        1765.00      7692.94
 1030.00        2962.00           2314        2917.00     12718.23
 1030.03        2962.25           2317        3963.00     17282.60
 1030.06        2962.50           2321        5127.00     22363.56
 1030.09        2962.75           2324        6029.00     26302.06
 1030.12        2963.00           2328        7325.00     31962.79
 1030.15        2963.25           2331        8342.00     36406.42
 1030.18        2963.50           2335        9697.00     42328.96
 1030.21        2963.75           2339       11038.00     48192.68
 1030.24        2964.00           2342       11915.00     52028.75
 1030.27        2964.25           2346       13185.00     57585.61
 1030.30        2964.50           2349       14135.00     61743.70
 1030.33        2964.75           2353       15653.00     68390.31
 1030.36        2965.00           2356       16856.00     73659.84
 1030.39        2965.25           2360       18003.00     78685.82
 1030.42        2965.50           2363       18809.00     82218.63
 1030.45        2965.75           2367       20367.00     89049.94
 1030.48        2966.00           2370       21202.00     92712.46
 1030.52        2966.25           2374       22241.00     97271.04
 1030.55        2966.50           2378       22744.00     99478.46
 1030.58        2966.75           2381       22781.00     99640.84
 1030.61        2967.00           2385       22960.00    100426.50
 1030.64        2967.25           2388       22820.00     99812.00
 1030.67        2967.50           2392       22907.00    100193.80
 1030.70        2967.75           2395       22716.00     99355.56
 1030.73        2968.00           2399       22371.00     97841.51
 1030.76        2968.25           2402       21485.00     93953.98
 1030.79        2968.50           2406       20069.00     87743.07
 1030.82        2968.75           2409       19010.00     83099.77
 1030.85        2969.00           2413       17766.00     77647.18
 1030.88        2969.25           2417       16571.00     72411.28
 1030.91        2969.50           2420       15714.00     68657.47
 1030.94        2969.75           2424       14136.00     61748.07
 1030.97        2970.00           2427       13084.00     57143.61
 1031.00        2970.25           2431       11452.00     50003.43
 1031.04        2970.50           2434       10499.00     45835.55
 1031.07        2970.75           2438        9255.00     40396.77
 1031.10        2971.00           2441        8238.00     35951.94
 1031.13        2971.25           2445        6901.00     30110.58
 1031.16        2971.50           2449        5468.00     23852.38
 1031.19        2971.75           2452        4411.00     19237.95
 1031.22        2972.00           2456        3166.00     13804.65
 1031.25        2972.25           2459        2300.00     10026.52
 1031.28        2972.50           2463        1150.00      5010.88
 1031.31        2972.75           2466         550.00      2394.70
 1031.34        2973.00           2470         184.00       799.06
 1031.37        2973.25           2473         155.00       672.64
 1031.40        2973.50           2477         119.00       515.70
 1031.43        2973.75           2481         150.00       650.84
 1031.46        2974.00           2484         116.00       502.62
 1031.49        2974.25           2488         115.00       498.26
 1031.52        2974.50           2491         108.00       467.75
 1031.56        2974.75           2495         107.00       463.39
 1031.59        2975.00           2498         101.00       437.23
 1031.62        2975.25           2502          98.00       424.16
 1031.65        2975.50           2505          93.00       402.36
 1031.68        2975.75           2509          97.00       419.80
 1031.71        2976.00           2512          92.00       398.00
 1031.74        2976.25           2516          93.00       402.36
 1031.77        2976.50           2520          92.00       398.00
 1031.80        2976.75           2523          93.00       402.36
 1031.83        2977.00           2527          84.00       363.13
 1031.86        2977.25           2530          84.00       363.13
 1031.89        2977.50           2534          82.00       354.41
 1031.92        2977.75           2537          93.00       402.36
 1031.95        2978.00           2541          89.00       384.92
 1031.98        2978.25           2544          81.00       350.05
 1032.01        2978.50           2548          86.00       371.84
 1032.04        2978.75           2552         100.00       432.87
 1032.08        2979.00           2555          80.00       345.69
 1032.11        2979.25           2559          73.00       315.17
 1032.14        2979.50           2562          92.00       398.00
 1032.17        2979.75           2566         103.00       445.95
 1032.20        2980.00           2569          89.00       384.92
 1032.23        2980.25           2573          80.00       345.69
 1032.26        2980.50           2577          79.00       341.33
 1032.29        2980.75           2580          77.00       332.61
 1032.32        2981.00           2584          88.00       380.56
 1032.35        2981.25           2587          81.00       350.05
 1032.38        2981.50           2591          74.00       319.53
 1032.41        2981.75           2594          82.00       354.41
 1032.44        2982.00           2598          79.00       341.33
 1032.47        2982.25           2601          80.00       345.69
 1032.50        2982.50           2605          74.00       319.53
 1032.53        2982.75           2609          79.00       341.33
 1032.56        2983.00           2612          79.00       341.33
 1032.60        2983.25           2616          80.00       345.69
 1032.63        2983.50           2619          85.00       367.49
 1032.66        2983.75           2623          76.00       328.25
 1032.69        2984.00           2626          74.00       319.53
HS scan finished at 17:12:55
end
