************************************************************
  HS Scan of (1) Internal mercury lamp
************************************************************
Integration time is 0.2294 seconds per sample
dh100118Reading 51.44 .94 2.92pr1000
************************************************************
Dead Time -------------------------  3.4E-08 
Number of Cycles Used -------------  4 
Starting Wavelength (Angstroms) ---  2950 
Final Wavelength (Angstoms) -------  2984 
Wavelength Increment (Angstroms) --  .25 
Filter Wheel #1 Position ---------- (1) Ground quartz diffuser (ND=2.32)
Filter Wheel #2 Position ---------- (1) Neutral Density 0.494



************************************************************
HS scan start time = 05:15:34
Dark Count =  .6 


Time (GMT)  Wavelength (Ang)  Step Number  Raw Counts  Counts/Second

  316.47        2950.00           2144          82.00       354.84
  316.66        2950.25           2147          77.00       333.05
  316.69        2950.50           2151          83.00       359.20
  316.72        2950.75           2155          75.00       324.33
  316.75        2951.00           2158          86.00       372.28
  316.79        2951.25           2162          76.00       328.69
  316.82        2951.50           2165          83.00       359.20
  316.85        2951.75           2169          91.00       394.08
  316.88        2952.00           2172          81.00       350.48
  316.91        2952.25           2176          77.00       333.05
  316.94        2952.50           2179          77.00       333.05
  316.97        2952.75           2183          84.00       363.56
  317.00        2953.00           2186          85.00       367.92
  317.03        2953.25           2190          83.00       359.20
  317.06        2953.50           2193          84.00       363.56
  317.09        2953.75           2197          80.00       346.12
  317.12        2954.00           2200          70.00       302.53
  317.15        2954.25           2204          84.00       363.56
  317.18        2954.50           2208          81.00       350.48
  317.21        2954.75           2211          90.00       389.72
  317.24        2955.00           2215          89.00       385.36
  317.27        2955.25           2218          78.00       337.41
  317.30        2955.50           2222          83.00       359.20
  317.34        2955.75           2225          82.00       354.84
  317.37        2956.00           2229          90.00       389.72
  317.40        2956.25           2232          88.00       381.00
  317.43        2956.50           2236          91.00       394.08
  317.46        2956.75           2239          82.00       354.84
  317.49        2957.00           2243          87.00       376.64
  317.52        2957.25           2246          84.00       363.56
  317.55        2957.50           2250          90.00       389.72
  317.58        2957.75           2254          88.00       381.00
  317.61        2958.00           2257          97.00       420.23
  317.64        2958.25           2261          90.00       389.72
  317.67        2958.50           2264          91.00       394.08
  317.70        2958.75           2268          98.00       424.59
  317.73        2959.00           2271          93.00       402.80
  317.76        2959.25           2275         115.00       498.70
  317.79        2959.50           2278          95.00       411.51
  317.82        2959.75           2282         103.00       446.39
  317.86        2960.00           2285         100.00       433.31
  317.89        2960.25           2289         101.00       437.67
  317.92        2960.50           2293         107.00       463.83
  317.95        2960.75           2296         139.00       603.33
  317.98        2961.00           2300         148.00       642.56
  318.01        2961.25           2303         327.00      1422.91
  318.04        2961.50           2307         999.00      4352.87
  318.07        2961.75           2310        1801.00      7850.40
  318.10        2962.00           2314        3065.00     13364.40
  318.13        2962.25           2317        4108.00     17915.88
  318.16        2962.50           2321        5598.00     24420.44
  318.19        2962.75           2324        6493.00     28328.93
  318.22        2963.00           2328        7714.00     33662.75
  318.25        2963.25           2331        8901.00     38849.90
  318.28        2963.50           2335       10326.00     45079.51
  318.31        2963.75           2339       11812.00     51578.61
  318.34        2964.00           2342       12737.00     55625.60
  318.38        2964.25           2346       14159.00     61849.20
  318.41        2964.50           2349       15158.00     66223.05
  318.44        2964.75           2353       16507.00     72131.35
  318.47        2965.00           2356       17658.00     77174.34
  318.50        2965.25           2360       18856.00     82425.10
  318.53        2965.50           2363       19815.00     86629.68
  318.56        2965.75           2367       21050.00     92046.12
  318.59        2966.00           2370       22014.00     96275.41
  318.62        2966.25           2374       23049.00    100817.50
  318.65        2966.50           2378       24035.00    105145.90
  318.68        2966.75           2381       23949.00    104768.40
  318.71        2967.00           2385       24099.00    105426.90
  318.74        2967.25           2388       24129.00    105558.70
  318.77        2967.50           2392       24261.00    106138.20
  318.80        2967.75           2395       23790.00    104070.30
  318.83        2968.00           2399       23268.00    101778.80
  318.86        2968.25           2402       22272.00     97407.52
  318.90        2968.50           2406       21019.00     91910.13
  318.93        2968.75           2409       19979.00     87348.84
  318.96        2969.00           2413       18437.00     80588.43
  318.99        2969.25           2417       17070.00     74597.86
  319.02        2969.50           2420       16156.00     70593.82
  319.05        2969.75           2424       14811.00     64703.66
  319.08        2970.00           2427       13793.00     60247.09
  319.11        2970.25           2431       12322.00     53809.78
  319.14        2970.50           2434       11196.00     48884.15
  319.17        2970.75           2438        9822.00     42875.89
  319.20        2971.00           2441        8802.00     38417.19
  319.23        2971.25           2445        7372.00     32168.56
  319.26        2971.50           2449        5895.00     25717.33
  319.29        2971.75           2452        4815.00     21001.91
  319.32        2972.00           2456        3484.00     15192.68
  319.35        2972.25           2459        2456.00     10707.47
  319.38        2972.50           2463        1295.00      5643.63
  319.42        2972.75           2466         582.00      2534.66
  319.45        2973.00           2470         174.00       755.90
  319.48        2973.25           2473         170.00       738.47
  319.51        2973.50           2477         119.00       516.14
  319.54        2973.75           2481         107.00       463.83
  319.57        2974.00           2484         104.00       450.75
  319.60        2974.25           2488         108.00       468.19
  319.63        2974.50           2491         100.00       433.31
  319.66        2974.75           2495         102.00       442.03
  319.69        2975.00           2498         146.00       633.84
  319.72        2975.25           2502          94.00       407.15
  319.75        2975.50           2505         120.00       520.50
  319.78        2975.75           2509          93.00       402.80
  319.81        2976.00           2512          97.00       420.23
  319.84        2976.25           2516          86.00       372.28
  319.87        2976.50           2520          93.00       402.80
  319.90        2976.75           2523          81.00       350.48
  319.94        2977.00           2527          93.00       402.80
  319.97        2977.25           2530          95.00       411.51
  320.00        2977.50           2534          91.00       394.08
  320.03        2977.75           2537          85.00       367.92
  320.06        2978.00           2541          81.00       350.48
  320.09        2978.25           2544          91.00       394.08
  320.12        2978.50           2548          82.00       354.84
  320.15        2978.75           2552          78.00       337.41
  320.18        2979.00           2555          79.00       341.77
  320.21        2979.25           2559          86.00       372.28
  320.24        2979.50           2562          79.00       341.77
  320.27        2979.75           2566          81.00       350.48
  320.30        2980.00           2569          83.00       359.20
  320.33        2980.25           2573          81.00       350.48
  320.36        2980.50           2577          79.00       341.77
  320.39        2980.75           2580          80.00       346.12
  320.42        2981.00           2584          85.00       367.92
  320.45        2981.25           2587          78.00       337.41
  320.49        2981.50           2591          81.00       350.48
  320.52        2981.75           2594          83.00       359.20
  320.55        2982.00           2598          82.00       354.84
  320.58        2982.25           2601          74.00       319.97
  320.61        2982.50           2605          75.00       324.33
  320.64        2982.75           2609          72.00       311.25
  320.67        2983.00           2612          77.00       333.05
  320.71        2983.25           2616          68.00       293.81
  320.74        2983.50           2619          68.00       293.81
  320.77        2983.75           2623          80.00       346.12
  320.80        2984.00           2626          83.00       359.20
HS scan finished at 05:21:02
end
************************************************************
  HS Scan of (1) Internal mercury lamp
************************************************************
Integration time is 0.2294 seconds per sample
dh100118Reading 51.44 .94 2.98pr1000
************************************************************
Dead Time -------------------------  3.4E-08 
Number of Cycles Used -------------  4 
Starting Wavelength (Angstroms) ---  2950 
Final Wavelength (Angstoms) -------  2984 
Wavelength Increment (Angstroms) --  .25 
Filter Wheel #1 Position ---------- (1) Ground quartz diffuser (ND=2.32)
Filter Wheel #2 Position ---------- (1) Neutral Density 0.494



************************************************************
HS scan start time = 17:07:27
Dark Count =  .8 


Time (GMT)  Wavelength (Ang)  Step Number  Raw Counts  Counts/Second

 1028.35        2950.00           2144          47.00       201.40
 1028.54        2950.25           2147          54.00       231.91
 1028.58        2950.50           2151          53.00       227.55
 1028.61        2950.75           2155          58.00       249.35
 1028.64        2951.00           2158          49.00       210.11
 1028.67        2951.25           2162          56.00       240.63
 1028.70        2951.50           2165          52.00       223.19
 1028.73        2951.75           2169          55.00       236.27
 1028.76        2952.00           2172          49.00       210.11
 1028.79        2952.25           2176          53.00       227.55
 1028.82        2952.50           2179          51.00       218.83
 1028.85        2952.75           2183          53.00       227.55
 1028.88        2953.00           2186          54.00       231.91
 1028.91        2953.25           2190          60.00       258.07
 1028.94        2953.50           2193          49.00       210.11
 1028.97        2953.75           2197          56.00       240.63
 1029.00        2954.00           2200          52.00       223.19
 1029.03        2954.25           2204          61.00       262.43
 1029.06        2954.50           2208          57.00       244.99
 1029.09        2954.75           2211          56.00       240.63
 1029.13        2955.00           2215          60.00       258.07
 1029.16        2955.25           2218          60.00       258.07
 1029.19        2955.50           2222          60.00       258.07
 1029.22        2955.75           2225          61.00       262.43
 1029.25        2956.00           2229          54.00       231.91
 1029.28        2956.25           2232          60.00       258.07
 1029.31        2956.50           2236          55.00       236.27
 1029.34        2956.75           2239          52.00       223.19
 1029.37        2957.00           2243          58.00       249.35
 1029.40        2957.25           2246          68.00       292.94
 1029.43        2957.50           2250          59.00       253.71
 1029.46        2957.75           2254          60.00       258.07
 1029.49        2958.00           2257          62.00       266.79
 1029.52        2958.25           2261          61.00       262.43
 1029.55        2958.50           2264          60.00       258.07
 1029.58        2958.75           2268          64.00       275.50
 1029.61        2959.00           2271          68.00       292.94
 1029.65        2959.25           2275          57.00       244.99
 1029.68        2959.50           2278          63.00       271.14
 1029.71        2959.75           2282          69.00       297.30
 1029.74        2960.00           2285          65.00       279.86
 1029.77        2960.25           2289          68.00       292.94
 1029.80        2960.50           2293          67.00       288.58
 1029.83        2960.75           2296          68.00       292.94
 1029.86        2961.00           2300          83.00       358.33
 1029.89        2961.25           2303         153.00       663.48
 1029.92        2961.50           2307         647.00      2817.18
 1029.95        2961.75           2310        1203.00      5241.56
 1029.98        2962.00           2314        1945.00      8477.60
 1030.01        2962.25           2317        2524.00     11003.24
 1030.04        2962.50           2321        3488.00     15209.26
 1030.07        2962.75           2324        4115.00     17945.56
 1030.10        2963.00           2328        4998.00     21799.94
 1030.13        2963.25           2331        5647.00     24633.53
 1030.17        2963.50           2335        6527.00     28476.56
 1030.20        2963.75           2339        7476.00     32622.04
 1030.23        2964.00           2342        8178.00     35689.31
 1030.26        2964.25           2346        9099.00     39714.45
 1030.29        2964.50           2349        9718.00     42420.34
 1030.32        2964.75           2353       10677.00     46613.49
 1030.35        2965.00           2356       11344.00     49530.60
 1030.38        2965.25           2360       12224.00     53380.15
 1030.41        2965.50           2363       12837.00     56062.30
 1030.44        2965.75           2367       13837.00     60438.81
 1030.47        2966.00           2370       14355.00     62706.35
 1030.50        2966.25           2374       15051.00     65753.65
 1030.53        2966.50           2378       15370.00     67150.53
 1030.56        2966.75           2381       15608.00     68192.80
 1030.59        2967.00           2385       15669.00     68459.96
 1030.62        2967.25           2388       15582.00     68078.94
 1030.65        2967.50           2392       15613.00     68214.70
 1030.69        2967.75           2395       15378.00     67185.56
 1030.72        2968.00           2399       14551.00     63564.43
 1030.75        2968.25           2402       13833.00     60421.30
 1030.78        2968.50           2406       13064.00     57055.65
 1030.81        2968.75           2409       12634.00     55174.03
 1030.84        2969.00           2413       11845.00     51722.10
 1030.87        2969.25           2417       10826.00     47265.08
 1030.90        2969.50           2420       10218.00     44606.40
 1030.93        2969.75           2424        9327.00     40711.06
 1030.96        2970.00           2427        8595.00     37511.63
 1030.99        2970.25           2431        7668.00     33460.89
 1031.02        2970.50           2434        6925.00     30214.98
 1031.05        2970.75           2438        5990.00     26131.32
 1031.08        2971.00           2441        5409.00     23594.34
 1031.11        2971.25           2445        4603.00     20075.60
 1031.14        2971.50           2449        3776.00     16466.06
 1031.17        2971.75           2452        3077.00     13415.88
 1031.21        2972.00           2456        2299.00     10021.72
 1031.24        2972.25           2459        1617.00      7047.02
 1031.27        2972.50           2463         821.00      3575.85
 1031.30        2972.75           2466         378.00      1644.38
 1031.33        2973.00           2470         167.00       724.52
 1031.36        2973.25           2473          90.00       388.85
 1031.39        2973.50           2477          73.00       314.74
 1031.42        2973.75           2481          73.00       314.74
 1031.45        2974.00           2484          80.00       345.25
 1031.48        2974.25           2488          74.00       319.10
 1031.51        2974.50           2491          68.00       292.94
 1031.54        2974.75           2495          74.00       319.10
 1031.57        2975.00           2498          66.00       284.22
 1031.60        2975.25           2502          70.00       301.66
 1031.63        2975.50           2505          63.00       271.14
 1031.66        2975.75           2509          65.00       279.86
 1031.69        2976.00           2512          62.00       266.79
 1031.73        2976.25           2516          63.00       271.14
 1031.76        2976.50           2520          60.00       258.07
 1031.79        2976.75           2523          69.00       297.30
 1031.82        2977.00           2527          61.00       262.43
 1031.85        2977.25           2530          60.00       258.07
 1031.88        2977.50           2534          55.00       236.27
 1031.91        2977.75           2537          57.00       244.99
 1031.94        2978.00           2541          57.00       244.99
 1031.97        2978.25           2544          57.00       244.99
 1032.00        2978.50           2548          61.00       262.43
 1032.03        2978.75           2552          52.00       223.19
 1032.06        2979.00           2555          59.00       253.71
 1032.09        2979.25           2559          65.00       279.86
 1032.12        2979.50           2562          56.00       240.63
 1032.15        2979.75           2566          49.00       210.11
 1032.18        2980.00           2569          54.00       231.91
 1032.21        2980.25           2573          53.00       227.55
 1032.24        2980.50           2577          56.00       240.63
 1032.28        2980.75           2580          58.00       249.35
 1032.31        2981.00           2584          57.00       244.99
 1032.34        2981.25           2587          57.00       244.99
 1032.37        2981.50           2591          54.00       231.91
 1032.40        2981.75           2594          54.00       231.91
 1032.43        2982.00           2598          50.00       214.47
 1032.46        2982.25           2601          50.00       214.47
 1032.49        2982.50           2605          54.00       231.91
 1032.52        2982.75           2609          51.00       218.83
 1032.55        2983.00           2612          45.00       192.68
 1032.58        2983.25           2616          52.00       223.19
 1032.61        2983.50           2619          56.00       240.63
 1032.64        2983.75           2623          49.00       210.11
 1032.67        2984.00           2626          52.00       223.19
HS scan finished at 17:12:54
end
