************************************************************
  HS Scan of 
************************************************************
Integration time is 0.2294 seconds per sample
dh110117Reading 51.44 .94 2.82pr1000
************************************************************
Dead Time -------------------------  3.4E-08 
Number of Cycles Used -------------  4 
Starting Wavelength (Angstroms) ---  2950 
Final Wavelength (Angstoms) -------  2984 
Wavelength Increment (Angstroms) --  .25 
Filter Wheel #1 Position ---------- (1) Ground quartz diffuser (ND=2.32)
Filter Wheel #2 Position ---------- (1) Neutral Density 0.494



************************************************************
HS scan start time = 05:15:12
Dark Count =  .6 


Time (GMT)  Wavelength (Ang)  Step Number  Raw Counts  Counts/Second

  316.09        2950.00           2144         764.00      3328.19
  316.29        2950.25           2147         769.00      3349.99
  316.32        2950.50           2151         789.00      3437.19
  316.35        2950.75           2155         782.00      3406.67
  316.38        2951.00           2158         781.00      3402.31
  316.41        2951.25           2162         804.00      3502.60
  316.44        2951.50           2165         787.00      3428.47
  316.47        2951.75           2169         798.00      3476.44
  316.50        2952.00           2172         777.00      3384.87
  316.53        2952.25           2176         774.00      3371.79
  316.56        2952.50           2179         788.00      3432.83
  316.59        2952.75           2183         804.00      3502.60
  316.62        2953.00           2186         800.00      3485.16
  316.65        2953.25           2190         805.00      3506.96
  316.68        2953.50           2193         808.00      3520.04
  316.72        2953.75           2197         798.00      3476.44
  316.75        2954.00           2200         823.00      3585.44
  316.78        2954.25           2204         806.00      3511.32
  316.81        2954.50           2208         834.00      3633.40
  316.84        2954.75           2211         840.00      3659.57
  316.87        2955.00           2215         829.00      3611.60
  316.90        2955.25           2218         852.00      3711.89
  316.93        2955.50           2222         845.00      3681.37
  316.96        2955.75           2225         821.00      3576.72
  316.99        2956.00           2229         826.00      3598.52
  317.02        2956.25           2232         820.00      3572.36
  317.05        2956.50           2236         846.00      3685.73
  317.08        2956.75           2239         877.00      3820.90
  317.11        2957.00           2243         893.00      3890.66
  317.14        2957.25           2246         876.00      3816.54
  317.17        2957.50           2250         887.00      3864.50
  317.20        2957.75           2254         887.00      3864.50
  317.23        2958.00           2257         912.00      3973.51
  317.27        2958.25           2261         874.00      3807.82
  317.30        2958.50           2264         907.00      3951.71
  317.33        2958.75           2268         909.00      3960.43
  317.36        2959.00           2271         941.00      4099.96
  317.39        2959.25           2275         916.00      3990.95
  317.42        2959.50           2278         957.00      4169.73
  317.45        2959.75           2282         969.00      4222.05
  317.48        2960.00           2285         981.00      4274.38
  317.51        2960.25           2289        1008.00      4392.11
  317.54        2960.50           2293        1012.00      4409.55
  317.57        2960.75           2296        1022.00      4453.16
  317.60        2961.00           2300        1077.00      4692.99
  317.63        2961.25           2303        1291.00      5626.19
  317.66        2961.50           2307        3825.00     16680.77
  317.69        2961.75           2310        8512.00     37149.77
  317.72        2962.00           2314       17351.00     75829.08
  317.75        2962.25           2317       25978.00    113679.20
  317.79        2962.50           2321       37471.00    164255.70
  317.82        2962.75           2324       46216.00    202856.40
  317.85        2963.00           2328       58308.00    256399.00
  317.88        2963.25           2331       67077.00    295350.40
  317.91        2963.50           2335       78038.00    344184.70
  317.94        2963.75           2339       90301.00    399014.00
  317.97        2964.00           2342      100093.00    442943.40
  318.00        2964.25           2346      112767.00    499999.20
  318.03        2964.50           2349      121403.00    539005.10
  318.06        2964.75           2353      132062.00    587292.60
  318.09        2965.00           2356      140131.00    623953.60
  318.12        2965.25           2360      151438.00    675482.20
  318.15        2965.50           2363      159432.00    712023.30
  318.18        2965.75           2367      171779.00    768643.50
  318.21        2966.00           2370      179625.00    804738.40
  318.24        2966.25           2374      189529.00    850429.60
  318.27        2966.50           2378      196268.00    881601.90
  318.31        2966.75           2381      197978.00    889522.40
  318.34        2967.00           2385      198726.00    892988.40
  318.37        2967.25           2388      198668.00    892719.70
  318.40        2967.50           2392      198733.00    893021.00
  318.43        2967.75           2395      197999.00    889619.80
  318.46        2968.00           2399      195341.00    877309.90
  318.49        2968.25           2402      189034.00    848142.60
  318.52        2968.50           2406      179942.00    806198.60
  318.55        2968.75           2409      172509.00    771998.10
  318.58        2969.00           2413      162825.00    727560.70
  318.61        2969.25           2417      150881.00    672939.60
  318.64        2969.50           2420      142293.00    633792.20
  318.67        2969.75           2424      130644.00    580859.40
  318.70        2970.00           2427      122459.00    543781.80
  318.73        2970.25           2431      110635.00    490385.80
  318.76        2970.50           2434      101764.00    450453.20
  318.79        2970.75           2438       90365.00    399300.70
  318.83        2971.00           2441       81266.00    358597.60
  318.86        2971.25           2445       68613.00    302183.90
  318.89        2971.50           2449       56451.00    248163.60
  318.92        2971.75           2452       48098.00    211176.90
  318.95        2972.00           2456       36585.00    160350.50
  318.98        2972.25           2459       27793.00    121654.70
  319.01        2972.50           2463       16542.00     72284.68
  319.04        2972.75           2466        8985.00     39217.04
  319.07        2973.00           2470        2763.00     12046.78
  319.10        2973.25           2473        1392.00      6066.64
  319.13        2973.50           2477        1102.00      4802.01
  319.16        2973.75           2481        1079.00      4701.71
  319.19        2974.00           2484        1039.00      4527.29
  319.22        2974.25           2488        1020.00      4444.44
  319.25        2974.50           2491        1020.00      4444.44
  319.28        2974.75           2495         956.00      4165.37
  319.31        2975.00           2498         969.00      4222.05
  319.35        2975.25           2502         958.00      4174.09
  319.38        2975.50           2505         969.00      4222.05
  319.41        2975.75           2509         942.00      4104.32
  319.44        2976.00           2512         916.00      3990.95
  319.47        2976.25           2516         925.00      4030.20
  319.50        2976.50           2520         922.00      4017.11
  319.53        2976.75           2523         924.00      4025.83
  319.56        2977.00           2527         898.00      3912.46
  319.59        2977.25           2530         876.00      3816.54
  319.62        2977.50           2534         878.00      3825.26
  319.65        2977.75           2537         877.00      3820.90
  319.68        2978.00           2541         840.00      3659.57
  319.71        2978.25           2544         925.00      4030.20
  319.74        2978.50           2548         858.00      3738.05
  319.77        2978.75           2552         856.00      3729.33
  319.80        2979.00           2555         852.00      3711.89
  319.83        2979.25           2559         842.00      3668.29
  319.87        2979.50           2562         842.00      3668.29
  319.90        2979.75           2566         786.00      3424.11
  319.93        2980.00           2569         805.00      3506.96
  319.96        2980.25           2573         833.00      3629.04
  319.99        2980.50           2577         813.00      3541.84
  320.02        2980.75           2580         799.00      3480.80
  320.05        2981.00           2584         781.00      3402.31
  320.08        2981.25           2587         794.00      3458.99
  320.11        2981.50           2591         796.00      3467.71
  320.14        2981.75           2594         784.00      3415.39
  320.17        2982.00           2598         807.00      3515.68
  320.20        2982.25           2601         774.00      3371.79
  320.23        2982.50           2605         807.00      3515.68
  320.26        2982.75           2609         761.00      3315.11
  320.29        2983.00           2612         790.00      3441.55
  320.32        2983.25           2616         791.00      3445.91
  320.35        2983.50           2619         748.00      3258.43
  320.38        2983.75           2623         754.00      3284.59
  320.42        2984.00           2626         755.00      3288.95
HS scan finished at 05:20:38
end
************************************************************
  HS Scan of 
************************************************************
Integration time is 0.2294 seconds per sample
dh110117Reading 51.44 .94 2.94pr1000
************************************************************
Dead Time -------------------------  3.4E-08 
Number of Cycles Used -------------  4 
Starting Wavelength (Angstroms) ---  2950 
Final Wavelength (Angstoms) -------  2984 
Wavelength Increment (Angstroms) --  .25 
Filter Wheel #1 Position ---------- (1) Ground quartz diffuser (ND=2.32)
Filter Wheel #2 Position ---------- (1) Neutral Density 0.494



************************************************************
HS scan start time = 17:07:23
Dark Count =  .8 


Time (GMT)  Wavelength (Ang)  Step Number  Raw Counts  Counts/Second

 1028.28        2950.00           2144         765.00      3331.68
 1028.47        2950.25           2147         790.00      3440.68
 1028.50        2950.50           2151         775.00      3375.28
 1028.53        2950.75           2155         811.00      3532.25
 1028.56        2951.00           2158         797.00      3471.20
 1028.60        2951.25           2162         782.00      3405.80
 1028.63        2951.50           2165         783.00      3410.16
 1028.66        2951.75           2169         805.00      3506.09
 1028.69        2952.00           2172         777.00      3384.00
 1028.72        2952.25           2176         772.00      3362.20
 1028.75        2952.50           2179         789.00      3436.32
 1028.78        2952.75           2183         789.00      3436.32
 1028.81        2953.00           2186         804.00      3501.72
 1028.84        2953.25           2190         797.00      3471.20
 1028.87        2953.50           2193         796.00      3466.84
 1028.90        2953.75           2197         798.00      3475.56
 1028.93        2954.00           2200         859.00      3741.54
 1028.96        2954.25           2204         806.00      3510.45
 1028.99        2954.50           2208         813.00      3540.97
 1029.02        2954.75           2211         812.00      3536.61
 1029.05        2955.00           2215         821.00      3575.85
 1029.08        2955.25           2218         812.00      3536.61
 1029.12        2955.50           2222         836.00      3641.25
 1029.15        2955.75           2225         826.00      3597.65
 1029.18        2956.00           2229         816.00      3554.05
 1029.21        2956.25           2232         838.00      3649.97
 1029.24        2956.50           2236         846.00      3684.86
 1029.27        2956.75           2239         839.00      3654.33
 1029.30        2957.00           2243         838.00      3649.97
 1029.33        2957.25           2246         902.00      3929.03
 1029.36        2957.50           2250         861.00      3750.26
 1029.39        2957.75           2254         883.00      3846.19
 1029.42        2958.00           2257         863.00      3758.98
 1029.45        2958.25           2261         893.00      3889.79
 1029.48        2958.50           2264         910.00      3963.92
 1029.51        2958.75           2268         906.00      3946.48
 1029.54        2959.00           2271         894.00      3894.15
 1029.57        2959.25           2275         904.00      3937.76
 1029.60        2959.50           2278         916.00      3990.08
 1029.64        2959.75           2282         939.00      4090.37
 1029.67        2960.00           2285         959.00      4177.58
 1029.70        2960.25           2289         982.00      4277.87
 1029.73        2960.50           2293        1006.00      4382.52
 1029.76        2960.75           2296         967.00      4212.46
 1029.79        2961.00           2300        1058.00      4609.27
 1029.83        2961.25           2303        1222.00      5324.42
 1029.86        2961.50           2307        3998.00     17434.92
 1029.89        2961.75           2310        9374.00     40916.52
 1029.92        2962.00           2314       18143.00     79298.96
 1029.95        2962.25           2317       25131.00    109957.80
 1029.98        2962.50           2321       35174.00    154132.60
 1030.01        2962.75           2324       42578.00    186784.90
 1030.04        2963.00           2328       53702.00    235979.90
 1030.07        2963.25           2331       61898.00    272332.10
 1030.10        2963.50           2335       72961.00    321544.10
 1030.13        2963.75           2339       83643.00    369219.00
 1030.16        2964.00           2342       91460.00    404205.80
 1030.19        2964.25           2346      101943.00    451257.00
 1030.22        2964.50           2349      109876.00    486964.00
 1030.25        2964.75           2353      121617.00    539972.00
 1030.28        2965.00           2356      129585.00    576056.00
 1030.31        2965.25           2360      139533.00    621232.50
 1030.35        2965.50           2363      146969.00    655093.20
 1030.38        2965.75           2367      156243.00    697434.20
 1030.41        2966.00           2370      163667.00    731418.10
 1030.44        2966.25           2374      172613.00    772475.00
 1030.47        2966.50           2378      178779.00    800841.10
 1030.50        2966.75           2381      180154.00    807174.30
 1030.53        2967.00           2385      180819.00    810238.30
 1030.56        2967.25           2388      180779.00    810054.00
 1030.59        2967.50           2392      181032.00    811219.80
 1030.62        2967.75           2395      180345.00    808054.20
 1030.65        2968.00           2399      177138.00    793286.50
 1030.68        2968.25           2402      171600.00    767820.30
 1030.71        2968.50           2406      162922.00    728004.30
 1030.74        2968.75           2409      155261.00    692945.00
 1030.77        2969.00           2413      145315.00    647554.70
 1030.80        2969.25           2417      135949.00    604940.50
 1030.83        2969.50           2420      127871.00    568286.40
 1030.87        2969.75           2424      117404.00    520929.10
 1030.90        2970.00           2427      108275.00    479750.70
 1030.93        2970.25           2431       97564.00    431584.10
 1030.96        2970.50           2434       89410.00    395022.40
 1030.99        2970.75           2438       78947.00    348241.10
 1031.02        2971.00           2441       71644.00    315677.00
 1031.05        2971.25           2445       60852.00    267687.70
 1031.08        2971.50           2449       50409.00    221399.70
 1031.11        2971.75           2452       42972.00    188524.50
 1031.14        2972.00           2456       33118.00    145078.30
 1031.17        2972.25           2459       25560.00    111842.10
 1031.20        2972.50           2463       14825.00     64764.08
 1031.23        2972.75           2466        7447.00     32495.34
 1031.26        2973.00           2470        2553.00     11129.76
 1031.29        2973.25           2473        1483.00      6462.62
 1031.32        2973.50           2477        1073.00      4674.68
 1031.35        2973.75           2481        1046.00      4556.94
 1031.39        2974.00           2484        1019.00      4439.21
 1031.42        2974.25           2488         986.00      4295.31
 1031.46        2974.50           2491         988.00      4304.03
 1031.49        2974.75           2495         969.00      4221.18
 1031.52        2975.00           2498         958.00      4173.22
 1031.55        2975.25           2502         935.00      4072.93
 1031.58        2975.50           2505         933.00      4064.21
 1031.61        2975.75           2509         906.00      3946.48
 1031.64        2976.00           2512         893.00      3889.79
 1031.67        2976.25           2516         868.00      3780.78
 1031.70        2976.50           2520         910.00      3963.92
 1031.73        2976.75           2523         855.00      3724.10
 1031.77        2977.00           2527         833.00      3628.17
 1031.80        2977.25           2530         842.00      3667.41
 1031.83        2977.50           2534         860.00      3745.90
 1031.86        2977.75           2537         868.00      3780.78
 1031.89        2978.00           2541         815.00      3549.69
 1031.92        2978.25           2544         842.00      3667.41
 1031.95        2978.50           2548         830.00      3615.09
 1031.98        2978.75           2552         806.00      3510.45
 1032.01        2979.00           2555         806.00      3510.45
 1032.04        2979.25           2559         797.00      3471.20
 1032.07        2979.50           2562         782.00      3405.80
 1032.10        2979.75           2566         813.00      3540.97
 1032.13        2980.00           2569         800.00      3484.28
 1032.16        2980.25           2573         796.00      3466.84
 1032.19        2980.50           2577         784.00      3414.52
 1032.22        2980.75           2580         786.00      3423.24
 1032.25        2981.00           2584         785.00      3418.88
 1032.29        2981.25           2587         769.00      3349.12
 1032.32        2981.50           2591         781.00      3401.44
 1032.35        2981.75           2594         798.00      3475.56
 1032.38        2982.00           2598         751.00      3270.63
 1032.41        2982.25           2601         757.00      3296.80
 1032.44        2982.50           2605         743.00      3235.75
 1032.47        2982.75           2609         738.00      3213.95
 1032.50        2983.00           2612         717.00      3122.39
 1032.53        2983.25           2616         764.00      3327.32
 1032.56        2983.50           2619         725.00      3157.27
 1032.59        2983.75           2623         768.00      3344.76
 1032.62        2984.00           2626         732.00      3187.79
HS scan finished at 17:12:51
end
