************************************************************
  HS Scan of (1) Internal mercury lamp
************************************************************
Integration time is 0.2294 seconds per sample
dh140119Reading 51.44 .94 2.72pr1000
************************************************************
Dead Time -------------------------  3.4E-08 
Number of Cycles Used -------------  4 
Starting Wavelength (Angstroms) ---  2950 
Final Wavelength (Angstoms) -------  2984 
Wavelength Increment (Angstroms) --  .25 
Filter Wheel #1 Position ---------- (1) Ground quartz diffuser (ND=2.32)
Filter Wheel #2 Position ---------- (1) Neutral Density 0.494



************************************************************
HS scan start time = 05:14:08
Dark Count =  .6 


Time (GMT)  Wavelength (Ang)  Step Number  Raw Counts  Counts/Second

  315.04        2950.00           2144        1563.00      6812.39
  315.23        2950.25           2147        1548.00      6746.97
  315.26        2950.50           2151        1541.00      6716.44
  315.29        2950.75           2155        1566.00      6825.47
  315.32        2951.00           2158        1541.00      6716.44
  315.35        2951.25           2162        1559.00      6794.94
  315.38        2951.50           2165        1551.00      6760.05
  315.41        2951.75           2169        1558.00      6790.58
  315.44        2952.00           2172        1532.00      6677.19
  315.47        2952.25           2176        1560.00      6799.30
  315.51        2952.50           2179        1599.00      6969.39
  315.54        2952.75           2183        1565.00      6821.11
  315.57        2953.00           2186        1564.00      6816.75
  315.60        2953.25           2190        1572.00      6851.64
  315.63        2953.50           2193        1590.00      6930.14
  315.66        2953.75           2197        1581.00      6890.89
  315.69        2954.00           2200        1595.00      6951.95
  315.72        2954.25           2204        1622.00      7069.70
  315.75        2954.50           2208        1627.00      7091.51
  315.78        2954.75           2211        1638.00      7139.48
  315.81        2955.00           2215        1598.00      6965.03
  315.84        2955.25           2218        1623.00      7074.06
  315.87        2955.50           2222        1657.00      7222.35
  315.90        2955.75           2225        1684.00      7340.11
  315.93        2956.00           2229        1668.00      7270.32
  315.96        2956.25           2232        1687.00      7353.19
  315.99        2956.50           2236        1669.00      7274.69
  316.02        2956.75           2239        1679.00      7318.30
  316.06        2957.00           2243        1714.00      7470.95
  316.09        2957.25           2246        1692.00      7375.00
  316.12        2957.50           2250        1709.00      7449.14
  316.15        2957.75           2254        1684.00      7340.11
  316.18        2958.00           2257        1771.00      7719.55
  316.21        2958.25           2261        1867.00      8138.26
  316.24        2958.50           2264        1778.00      7750.08
  316.27        2958.75           2268        1770.00      7715.19
  316.30        2959.00           2271        1862.00      8116.45
  316.33        2959.25           2275        1813.00      7902.73
  316.36        2959.50           2278        1814.00      7907.10
  316.39        2959.75           2282        1878.00      8186.24
  316.42        2960.00           2285        1896.00      8264.75
  316.45        2960.25           2289        1926.00      8395.60
  316.48        2960.50           2293        1984.00      8648.58
  316.51        2960.75           2296        2036.00      8875.39
  316.54        2961.00           2300        2110.00      9198.17
  316.58        2961.25           2303        2467.00     10755.46
  316.61        2961.50           2307        6041.00     26354.91
  316.64        2961.75           2310       14256.00     62273.83
  316.67        2962.00           2314       32027.00    140276.90
  316.70        2962.25           2317       47317.00    207723.40
  316.73        2962.50           2321       70291.00    309652.80
  316.76        2962.75           2324       87390.00    385980.00
  316.79        2963.00           2328      108694.00    481639.00
  316.82        2963.25           2331      124101.00    551212.40
  316.85        2963.50           2335      147932.00    659485.10
  316.88        2963.75           2339      172522.00    772057.80
  316.91        2964.00           2342      190352.00    854233.00
  316.94        2964.25           2346      214166.00    964719.30
  316.97        2964.50           2349      231303.00   1044753.00
  317.00        2964.75           2353      253383.00   1148530.00
  317.03        2965.00           2356      269332.00   1223958.00
  317.06        2965.25           2360      289732.00   1321017.00
  317.10        2965.50           2363      305617.00   1397051.00
  317.13        2965.75           2367      327814.00   1503977.00
  317.16        2966.00           2370      343017.00   1577675.00
  317.19        2966.25           2374      361626.00   1668404.00
  317.22        2966.50           2378      375049.00   1734208.00
  317.25        2966.75           2381      379172.00   1754482.00
  317.28        2967.00           2385      380471.00   1760875.00
  317.31        2967.25           2388      381381.00   1765356.00
  317.34        2967.50           2392      380539.00   1761210.00
  317.37        2967.75           2395      380632.00   1761668.00
  317.40        2968.00           2399      375204.00   1734970.00
  317.43        2968.25           2402      366163.00   1690612.00
  317.46        2968.50           2406      348418.00   1603948.00
  317.49        2968.75           2409      335022.00   1538871.00
  317.52        2969.00           2413      314315.00   1438855.00
  317.55        2969.25           2417      293558.00   1339293.00
  317.58        2969.50           2420      278348.00   1266774.00
  317.62        2969.75           2424      257104.00   1166092.00
  317.65        2970.00           2427      240150.00   1086245.00
  317.68        2970.25           2431      217984.00    982511.90
  317.71        2970.50           2434      202730.00    911556.10
  317.74        2970.75           2438      177535.00    795114.80
  317.77        2971.00           2441      158033.00    705621.80
  317.80        2971.25           2445      134712.00    599322.50
  317.83        2971.50           2449      111867.00    495940.20
  317.86        2971.75           2452       95238.00    421146.10
  317.89        2972.00           2456       74345.00    327713.20
  317.92        2972.25           2459       57676.00    253595.70
  317.95        2972.50           2463       35733.00    156596.10
  317.98        2972.75           2466       20643.00     90260.88
  318.01        2973.00           2470        7002.00     30552.21
  318.04        2973.25           2473        3358.00     14642.86
  318.07        2973.50           2477        2140.00      9329.03
  318.10        2973.75           2481        2038.00      8884.11
  318.14        2974.00           2484        1962.00      8552.62
  318.17        2974.25           2488        1933.00      8426.13
  318.20        2974.50           2491        1927.00      8399.96
  318.23        2974.75           2495        1900.00      8282.19
  318.26        2975.00           2498        1862.00      8116.45
  318.29        2975.25           2502        1817.00      7920.18
  318.32        2975.50           2505        1802.00      7854.76
  318.35        2975.75           2509        1819.00      7928.90
  318.38        2976.00           2512        1758.00      7662.85
  318.41        2976.25           2516        1748.00      7619.24
  318.44        2976.50           2520        1695.00      7388.08
  318.47        2976.75           2523        1760.00      7671.57
  318.50        2977.00           2527        1707.00      7440.42
  318.53        2977.25           2530        1689.00      7361.91
  318.56        2977.50           2534        1648.00      7183.10
  318.59        2977.75           2537        1639.00      7143.85
  318.62        2978.00           2541        1665.00      7257.24
  318.66        2978.25           2544        1618.00      7052.26
  318.69        2978.50           2548        1616.00      7043.54
  318.72        2978.75           2552        1619.00      7056.62
  318.75        2979.00           2555        1597.00      6960.67
  318.78        2979.25           2559        1556.00      6781.86
  318.81        2979.50           2562        1551.00      6760.05
  318.84        2979.75           2566        1558.00      6790.58
  318.87        2980.00           2569        1519.00      6620.50
  318.90        2980.25           2573        1567.00      6829.83
  318.93        2980.50           2577        1544.00      6729.53
  318.96        2980.75           2580        1533.00      6681.55
  318.99        2981.00           2584        1480.00      6450.41
  319.02        2981.25           2587        1499.00      6533.27
  319.05        2981.50           2591        1535.00      6690.28
  319.08        2981.75           2594        1487.00      6480.94
  319.11        2982.00           2598        1511.00      6585.61
  319.14        2982.25           2601        1451.00      6323.94
  319.18        2982.50           2605        1480.00      6450.41
  319.21        2982.75           2609        1460.00      6363.19
  319.24        2983.00           2612        1465.00      6385.00
  319.27        2983.25           2616        1497.00      6524.55
  319.30        2983.50           2619        1432.00      6241.08
  319.33        2983.75           2623        1469.00      6402.44
  319.36        2984.00           2626        1430.00      6232.36
HS scan finished at 05:19:35
end
************************************************************
  HS Scan of (1) Internal mercury lamp
************************************************************
Integration time is 0.2294 seconds per sample
dh140119Reading 51.44 .94 3.01pr1000
************************************************************
Dead Time -------------------------  3.4E-08 
Number of Cycles Used -------------  4 
Starting Wavelength (Angstroms) ---  2950 
Final Wavelength (Angstoms) -------  2984 
Wavelength Increment (Angstroms) --  .25 
Filter Wheel #1 Position ---------- (1) Ground quartz diffuser (ND=2.32)
Filter Wheel #2 Position ---------- (1) Neutral Density 0.494



************************************************************
HS scan start time = 17:07:30
Dark Count =  .9 


Time (GMT)  Wavelength (Ang)  Step Number  Raw Counts  Counts/Second

 1028.39        2950.00           2144        1011.00      4403.89
 1028.59        2950.25           2147        1006.00      4382.08
 1028.62        2950.50           2151        1007.00      4386.44
 1028.65        2950.75           2155         997.00      4342.84
 1028.68        2951.00           2158        1015.00      4421.33
 1028.71        2951.25           2162        1022.00      4451.85
 1028.74        2951.50           2165        1031.00      4491.10
 1028.77        2951.75           2169        1018.00      4434.41
 1028.80        2952.00           2172        1060.00      4617.55
 1028.83        2952.25           2176        1030.00      4486.74
 1028.86        2952.50           2179        1025.00      4464.93
 1028.89        2952.75           2183        1034.00      4504.18
 1028.92        2953.00           2186        1057.00      4604.47
 1028.95        2953.25           2190        1041.00      4534.70
 1028.98        2953.50           2193        1048.00      4565.22
 1029.01        2953.75           2197        1045.00      4552.14
 1029.04        2954.00           2200        1063.00      4630.63
 1029.07        2954.25           2204        1070.00      4661.16
 1029.11        2954.50           2208        1060.00      4617.55
 1029.14        2954.75           2211        1062.00      4626.27
 1029.17        2955.00           2215        1076.00      4687.32
 1029.20        2955.25           2218        1073.00      4674.24
 1029.23        2955.50           2222        1077.00      4691.68
 1029.26        2955.75           2225        1109.00      4831.22
 1029.29        2956.00           2229        1088.00      4739.65
 1029.32        2956.25           2232        1080.00      4704.76
 1029.35        2956.50           2236        1081.00      4709.12
 1029.38        2956.75           2239        1088.00      4739.65
 1029.41        2957.00           2243        1108.00      4826.86
 1029.44        2957.25           2246        1131.00      4927.16
 1029.47        2957.50           2250        1147.00      4996.93
 1029.50        2957.75           2254        1198.00      5219.32
 1029.53        2958.00           2257        1166.00      5079.78
 1029.56        2958.25           2261        1182.00      5149.55
 1029.59        2958.50           2264        1179.00      5136.47
 1029.63        2958.75           2268        1196.00      5210.60
 1029.66        2959.00           2271        1220.00      5315.26
 1029.69        2959.25           2275        1201.00      5232.40
 1029.72        2959.50           2278        1244.00      5419.92
 1029.76        2959.75           2282        1265.00      5511.49
 1029.79        2960.00           2285        1265.00      5511.49
 1029.82        2960.25           2289        1281.00      5581.27
 1029.85        2960.50           2293        1258.00      5480.97
 1029.89        2960.75           2296        1327.00      5781.87
 1029.92        2961.00           2300        1374.00      5986.83
 1029.95        2961.25           2303        1587.00      6915.75
 1029.98        2961.50           2307        3742.00     16317.25
 1030.01        2961.75           2310        9332.00     40732.48
 1030.04        2962.00           2314       20892.00     91351.72
 1030.07        2962.25           2317       31511.00    138004.80
 1030.10        2962.50           2321       46928.00    206002.40
 1030.13        2962.75           2324       59720.00    262662.70
 1030.16        2963.00           2328       75452.00    332647.40
 1030.19        2963.25           2331       88287.00    389993.70
 1030.22        2963.50           2335      104970.00    464870.90
 1030.25        2963.75           2339      120243.00    533758.30
 1030.28        2964.00           2342      133557.00    594076.60
 1030.31        2964.25           2346      151883.00    677512.50
 1030.34        2964.50           2349      165803.00    741210.10
 1030.37        2964.75           2353      183083.00    820673.80
 1030.40        2965.00           2356      194927.00    875392.10
 1030.44        2965.25           2360      209765.00    944235.60
 1030.47        2965.50           2363      221083.00    996968.40
 1030.50        2965.75           2367      236892.00   1070949.00
 1030.53        2966.00           2370      247890.00   1122641.00
 1030.56        2966.25           2374      261633.00   1187496.00
 1030.59        2966.50           2378      273930.00   1245776.00
 1030.62        2966.75           2381      278186.00   1266002.00
 1030.65        2967.00           2385      279934.00   1274317.00
 1030.68        2967.25           2388      279871.00   1274017.00
 1030.71        2967.50           2392      280312.00   1276116.00
 1030.75        2967.75           2395      279995.00   1274607.00
 1030.78        2968.00           2399      276646.00   1258680.00
 1030.81        2968.25           2402      269461.00   1224568.00
 1030.84        2968.50           2406      255921.00   1160505.00
 1030.87        2968.75           2409      244925.00   1108687.00
 1030.90        2969.00           2413      230841.00   1042588.00
 1030.93        2969.25           2417      215854.00    972581.60
 1030.96        2969.50           2420      203408.00    914701.00
 1030.99        2969.75           2424      187238.00    839845.90
 1031.02        2970.00           2427      174156.00    779567.80
 1031.05        2970.25           2431      157537.00    703351.50
 1031.08        2970.50           2434      145768.00    649618.50
 1031.12        2970.75           2438      128947.00    573163.00
 1031.15        2971.00           2441      117036.00    519266.40
 1031.18        2971.25           2445      101119.00    447552.70
 1031.21        2971.50           2449       85165.00    376024.00
 1031.24        2971.75           2452       73386.00    323437.50
 1031.27        2972.00           2456       55850.00    245497.90
 1031.30        2972.25           2459       42954.00    188444.60
 1031.33        2972.50           2463       26764.00    117131.20
 1031.36        2972.75           2466       16515.00     72165.08
 1031.39        2973.00           2470        6358.00     27738.01
 1031.42        2973.25           2473        2884.00     12573.38
 1031.45        2973.50           2477        1587.00      6915.75
 1031.48        2973.75           2481        1381.00      6017.36
 1031.51        2974.00           2484        1344.00      5856.00
 1031.54        2974.25           2488        1332.00      5803.67
 1031.57        2974.50           2491        1344.00      5856.00
 1031.60        2974.75           2495        1278.00      5568.19
 1031.64        2975.00           2498        1232.00      5367.59
 1031.67        2975.25           2502        1235.00      5380.67
 1031.70        2975.50           2505        1206.00      5254.21
 1031.73        2975.75           2509        1217.00      5302.18
 1031.76        2976.00           2512        1178.00      5132.11
 1031.79        2976.25           2516        1200.00      5228.04
 1031.82        2976.50           2520        1191.00      5188.80
 1031.85        2976.75           2523        1152.00      5018.73
 1031.88        2977.00           2527        1135.00      4944.60
 1031.91        2977.25           2530        1143.00      4979.48
 1031.94        2977.50           2534        1125.00      4900.99
 1031.97        2977.75           2537        1115.00      4857.39
 1032.00        2978.00           2541        1076.00      4687.32
 1032.03        2978.25           2544        1074.00      4678.60
 1032.06        2978.50           2548        1075.00      4682.96
 1032.11        2978.75           2552        1080.00      4704.76
 1032.14        2979.00           2555        1127.00      4909.71
 1032.17        2979.25           2559        1080.00      4704.76
 1032.20        2979.50           2562        1075.00      4682.96
 1032.23        2979.75           2566        1019.00      4438.77
 1032.26        2980.00           2569        1040.00      4530.34
 1032.29        2980.25           2573        1028.00      4478.01
 1032.32        2980.50           2577        1065.00      4639.35
 1032.35        2980.75           2580        1020.00      4443.13
 1032.38        2981.00           2584        1017.00      4430.05
 1032.41        2981.25           2587        1003.00      4369.00
 1032.45        2981.50           2591        1000.00      4355.92
 1032.48        2981.75           2594         981.00      4273.07
 1032.51        2982.00           2598         979.00      4264.35
 1032.54        2982.25           2601        1005.00      4377.72
 1032.57        2982.50           2605        1001.00      4360.28
 1032.60        2982.75           2609        1001.00      4360.28
 1032.63        2983.00           2612         950.00      4137.90
 1032.66        2983.25           2616         943.00      4107.37
 1032.69        2983.50           2619         952.00      4146.62
 1032.72        2983.75           2623         973.00      4238.19
 1032.75        2984.00           2626         955.00      4159.70
HS scan finished at 17:12:59
end
