************************************************************
  HS Scan of (1) Internal mercury lamp
************************************************************
Integration time is 0.2294 seconds per sample
dh180119Reading 51.44 .94 2.33pr1000
************************************************************
Dead Time -------------------------  3.4E-08 
Number of Cycles Used -------------  4 
Starting Wavelength (Angstroms) ---  2950 
Final Wavelength (Angstoms) -------  2984 
Wavelength Increment (Angstroms) --  .25 
Filter Wheel #1 Position ---------- (1) Ground quartz diffuser (ND=2.32)
Filter Wheel #2 Position ---------- (1) Neutral Density 0.494



************************************************************
HS scan start time = 05:14:55
Dark Count =  .1 


Time (GMT)  Wavelength (Ang)  Step Number  Raw Counts  Counts/Second

  315.81        2950.00           2144        1603.00      6989.02
  316.00        2950.25           2147        1604.00      6993.38
  316.03        2950.50           2151        1582.00      6897.43
  316.07        2950.75           2155        1636.00      7132.94
  316.10        2951.00           2158        1598.00      6967.21
  316.13        2951.25           2162        1625.00      7084.97
  316.16        2951.50           2165        1615.00      7041.36
  316.19        2951.75           2169        1620.00      7063.16
  316.22        2952.00           2172        1651.00      7198.36
  316.25        2952.25           2176        1654.00      7211.45
  316.28        2952.50           2179        1634.00      7124.22
  316.31        2952.75           2183        1626.00      7089.33
  316.34        2953.00           2186        1618.00      7054.44
  316.37        2953.25           2190        1613.00      7032.63
  316.40        2953.50           2193        1647.00      7180.92
  316.43        2953.75           2197        1620.00      7063.16
  316.46        2954.00           2200        1664.00      7255.06
  316.49        2954.25           2204        1638.00      7141.66
  316.52        2954.50           2208        1678.00      7316.12
  316.55        2954.75           2211        1677.00      7311.76
  316.59        2955.00           2215        1681.00      7329.20
  316.62        2955.25           2218        1670.00      7281.23
  316.65        2955.50           2222        1716.00      7481.85
  316.68        2955.75           2225        1716.00      7481.85
  316.71        2956.00           2229        1723.00      7512.38
  316.74        2956.25           2232        1710.00      7455.68
  316.77        2956.50           2236        1687.00      7355.37
  316.80        2956.75           2239        1728.00      7534.19
  316.83        2957.00           2243        1692.00      7377.18
  316.86        2957.25           2246        1732.00      7551.63
  316.89        2957.50           2250        1763.00      7686.84
  316.92        2957.75           2254        1757.00      7660.67
  316.95        2958.00           2257        1758.00      7665.03
  316.98        2958.25           2261        1793.00      7817.68
  317.01        2958.50           2264        1793.00      7817.68
  317.04        2958.75           2268        1853.00      8079.38
  317.07        2959.00           2271        1844.00      8040.12
  317.11        2959.25           2275        1873.00      8166.61
  317.14        2959.50           2278        1838.00      8013.95
  317.17        2959.75           2282        1931.00      8419.59
  317.20        2960.00           2285        1897.00      8271.29
  317.23        2960.25           2289        1958.00      8537.35
  317.26        2960.50           2293        2004.00      8737.99
  317.29        2960.75           2296        1986.00      8659.48
  317.32        2961.00           2300        2067.00      9012.79
  317.35        2961.25           2303        2516.00     10971.40
  317.38        2961.50           2307        6726.00     29348.80
  317.41        2961.75           2310       15333.00     66991.56
  317.44        2962.00           2314       30721.00    134532.40
  317.47        2962.25           2317       44460.00    195099.40
  317.50        2962.50           2321       64557.00    284148.30
  317.53        2962.75           2324       79407.00    350297.80
  317.56        2963.00           2328       99495.00    440259.10
  317.59        2963.25           2331      113167.00    501805.80
  317.63        2963.50           2335      133457.00    593626.30
  317.66        2963.75           2339      154849.00    691065.20
  317.69        2964.00           2342      171033.00    765218.60
  317.72        2964.25           2346      192557.00    864430.10
  317.75        2964.50           2349      206398.00    928588.80
  317.78        2964.75           2353      224786.00   1014267.00
  317.81        2965.00           2356      240860.00   1089582.00
  317.84        2965.25           2360      260204.00   1180743.00
  317.87        2965.50           2363      274540.00   1248677.00
  317.90        2965.75           2367      293518.00   1339104.00
  317.93        2966.00           2370      307216.00   1404729.00
  317.96        2966.25           2374      322969.00   1480572.00
  317.99        2966.50           2378      334393.00   1535825.00
  318.02        2966.75           2381      337978.00   1553208.00
  318.05        2967.00           2385      338890.00   1557634.00
  318.08        2967.25           2388      339417.00   1560191.00
  318.11        2967.50           2392      338857.00   1557473.00
  318.15        2967.75           2395      338924.00   1557799.00
  318.18        2968.00           2399      332290.00   1525637.00
  318.21        2968.25           2402      322932.00   1480393.00
  318.24        2968.50           2406      308043.00   1408701.00
  318.27        2968.75           2409      295214.00   1347213.00
  318.30        2969.00           2413      277163.00   1261141.00
  318.33        2969.25           2417      257458.00   1167767.00
  318.36        2969.50           2420      242729.00   1098365.00
  318.39        2969.75           2424      224314.00   1012061.00
  318.42        2970.00           2427      209843.00    944602.10
  318.45        2970.25           2431      188159.00    844102.90
  318.48        2970.50           2434      174309.00    780275.10
  318.51        2970.75           2438      156114.00    696847.70
  318.54        2971.00           2441      139447.00    620844.60
  318.57        2971.25           2445      117597.00    521804.00
  318.60        2971.50           2449       96832.00    428301.30
  318.63        2971.75           2452       81765.00    360829.10
  318.67        2972.00           2456       62148.00    273445.50
  318.70        2972.25           2459       47469.00    208397.70
  318.73        2972.50           2463       28724.00    125749.70
  318.76        2972.75           2466       15594.00     68134.55
  318.79        2973.00           2470        4873.00     21257.29
  318.82        2973.25           2473        2657.00     11586.52
  318.85        2973.50           2477        2089.00      9108.75
  318.88        2973.75           2481        2006.00      8746.72
  318.91        2974.00           2484        1931.00      8419.59
  318.94        2974.25           2488        1894.00      8258.20
  318.97        2974.50           2491        1890.00      8240.76
  319.00        2974.75           2495        1847.00      8053.21
  319.03        2975.00           2498        1828.00      7970.34
  319.06        2975.25           2502        1842.00      8031.40
  319.09        2975.50           2505        1784.00      7778.43
  319.12        2975.75           2509        1770.00      7717.37
  319.15        2976.00           2512        1783.00      7774.07
  319.19        2976.25           2516        1738.00      7577.80
  319.22        2976.50           2520        1709.00      7451.32
  319.25        2976.75           2523        1699.00      7407.71
  319.28        2977.00           2527        1652.00      7202.72
  319.31        2977.25           2530        1703.00      7425.15
  319.34        2977.50           2534        1682.00      7333.56
  319.37        2977.75           2537        1660.00      7237.61
  319.40        2978.00           2541        1685.00      7346.65
  319.43        2978.25           2544        1628.00      7098.05
  319.46        2978.50           2548        1620.00      7063.16
  319.49        2978.75           2552        1599.00      6971.57
  319.52        2979.00           2555        1579.00      6884.35
  319.55        2979.25           2559        1552.00      6766.60
  319.58        2979.50           2562        1615.00      7041.36
  319.61        2979.75           2566        1573.00      6858.18
  319.64        2980.00           2569        1545.00      6736.07
  319.67        2980.25           2573        1525.00      6648.84
  319.71        2980.50           2577        1570.00      6845.10
  319.74        2980.75           2580        1568.00      6836.38
  319.77        2981.00           2584        1530.00      6670.65
  319.81        2981.25           2587        1524.00      6644.48
  319.84        2981.50           2591        1503.00      6552.90
  319.87        2981.75           2594        1513.00      6596.51
  319.90        2982.00           2598        1507.00      6570.34
  319.93        2982.25           2601        1489.00      6491.84
  319.96        2982.50           2605        1539.00      6709.90
  320.00        2982.75           2609        1485.00      6474.40
  320.03        2983.00           2612        1507.00      6570.34
  320.06        2983.25           2616        1506.00      6565.98
  320.09        2983.50           2619        1487.00      6483.12
  320.12        2983.75           2623        1481.00      6456.95
  320.15        2984.00           2626        1495.00      6518.01
HS scan finished at 05:20:22
end
************************************************************
  HS Scan of (1) Internal mercury lamp
************************************************************
Integration time is 0.2294 seconds per sample
dh180119Reading 51.44 .94 2.74pr1000
************************************************************
Dead Time -------------------------  3.4E-08 
Number of Cycles Used -------------  4 
Starting Wavelength (Angstroms) ---  2950 
Final Wavelength (Angstoms) -------  2984 
Wavelength Increment (Angstroms) --  .25 
Filter Wheel #1 Position ---------- (1) Ground quartz diffuser (ND=2.32)
Filter Wheel #2 Position ---------- (1) Neutral Density 0.494



************************************************************
HS scan start time = 17:37:21
Dark Count =  .6 


Time (GMT)  Wavelength (Ang)  Step Number  Raw Counts  Counts/Second

 1058.24        2950.00           2144        1447.00      6306.50
 1058.43        2950.25           2147        1446.00      6302.14
 1058.47        2950.50           2151        1451.00      6323.94
 1058.50        2950.75           2155        1459.00      6358.83
 1058.53        2951.00           2158        1491.00      6498.39
 1058.56        2951.25           2162        1443.00      6289.05
 1058.59        2951.50           2165        1480.00      6450.41
 1058.62        2951.75           2169        1493.00      6507.11
 1058.65        2952.00           2172        1475.00      6428.61
 1058.68        2952.25           2176        1474.00      6424.25
 1058.71        2952.50           2179        1515.00      6603.05
 1058.74        2952.75           2183        1500.00      6537.64
 1058.77        2953.00           2186        1474.00      6424.25
 1058.80        2953.25           2190        1466.00      6389.36
 1058.83        2953.50           2193        1476.00      6432.97
 1058.86        2953.75           2197        1461.00      6367.55
 1058.89        2954.00           2200        1527.00      6655.39
 1058.92        2954.25           2204        1498.00      6528.91
 1058.95        2954.50           2208        1512.00      6589.97
 1058.98        2954.75           2211        1499.00      6533.27
 1059.02        2955.00           2215        1514.00      6598.69
 1059.05        2955.25           2218        1547.00      6742.61
 1059.08        2955.50           2222        1507.00      6568.16
 1059.11        2955.75           2225        1538.00      6703.36
 1059.14        2956.00           2229        1569.00      6838.56
 1059.17        2956.25           2232        1549.00      6751.33
 1059.20        2956.50           2236        1548.00      6746.97
 1059.23        2956.75           2239        1560.00      6799.30
 1059.26        2957.00           2243        1590.00      6930.14
 1059.29        2957.25           2246        1628.00      7095.87
 1059.32        2957.50           2250        1628.00      7095.87
 1059.35        2957.75           2254        1609.00      7013.01
 1059.38        2958.00           2257        1610.00      7017.37
 1059.41        2958.25           2261        1656.00      7217.99
 1059.44        2958.50           2264        1676.00      7305.22
 1059.47        2958.75           2268        1689.00      7361.91
 1059.50        2959.00           2271        1671.00      7283.41
 1059.54        2959.25           2275        1731.00      7545.09
 1059.57        2959.50           2278        1751.00      7632.32
 1059.60        2959.75           2282        1766.00      7697.74
 1059.63        2960.00           2285        1802.00      7854.76
 1059.66        2960.25           2289        1786.00      7784.97
 1059.69        2960.50           2293        1824.00      7950.71
 1059.72        2960.75           2296        1875.00      8173.15
 1059.75        2961.00           2300        1940.00      8456.66
 1059.78        2961.25           2303        2203.00      9603.83
 1059.81        2961.50           2307        4647.00     20268.54
 1059.84        2961.75           2310       10708.00     46749.93
 1059.87        2962.00           2314       24108.00    105466.40
 1059.90        2962.25           2317       37775.00    165595.80
 1059.93        2962.50           2321       58885.00    258958.80
 1059.96        2962.75           2324       74529.00    328533.40
 1059.99        2963.00           2328       94728.00    418858.30
 1060.02        2963.25           2331      109494.00    485243.50
 1060.06        2963.50           2335      129255.00    574560.60
 1060.09        2963.75           2339      151077.00    673834.30
 1060.12        2964.00           2342      168834.00    755118.50
 1060.15        2964.25           2346      191499.00    859535.20
 1060.18        2964.50           2349      207592.00    934134.50
 1060.21        2964.75           2353      227837.00   1028530.00
 1060.24        2965.00           2356      241272.00   1091515.00
 1060.27        2965.25           2360      259633.00   1178041.00
 1060.30        2965.50           2363      274991.00   1250817.00
 1060.33        2965.75           2367      296473.00   1353233.00
 1060.36        2966.00           2370      311378.00   1424725.00
 1060.39        2966.25           2374      328903.00   1509243.00
 1060.42        2966.50           2378      342850.00   1576863.00
 1060.45        2966.75           2381      347891.00   1601382.00
 1060.48        2967.00           2385      350276.00   1612998.00
 1060.51        2967.25           2388      349787.00   1610616.00
 1060.54        2967.50           2392      350281.00   1613022.00
 1060.58        2967.75           2395      350642.00   1614781.00
 1060.61        2968.00           2399      348203.00   1602902.00
 1060.64        2968.25           2402      340748.00   1566651.00
 1060.67        2968.50           2406      326191.00   1496131.00
 1060.70        2968.75           2409      314256.00   1438571.00
 1060.73        2969.00           2413      295057.00   1346460.00
 1060.76        2969.25           2417      274481.00   1248394.00
 1060.79        2969.50           2420      258838.00   1174284.00
 1060.82        2969.75           2424      238596.00   1078948.00
 1060.86        2970.00           2427      223593.00   1008691.00
 1060.90        2970.25           2431      202868.00    912196.50
 1060.93        2970.50           2434      187415.00    840664.80
 1060.96        2970.75           2438      167076.00    747050.60
 1060.99        2971.00           2441      151114.00    674003.10
 1061.02        2971.25           2445      128629.00    571722.90
 1061.05        2971.50           2449      107273.00    475238.90
 1061.08        2971.75           2452       92709.00    409804.70
 1061.11        2972.00           2456       73456.00    323750.80
 1061.14        2972.25           2459       58716.00    258209.00
 1061.17        2972.50           2463       37969.00    166451.10
 1061.20        2972.75           2466       22084.00     96582.56
 1061.23        2973.00           2470        7259.00     31674.90
 1061.26        2973.25           2473        3311.00     14437.78
 1061.29        2973.50           2477        2029.00      8844.86
 1061.33        2973.75           2481        1922.00      8378.15
 1061.36        2974.00           2484        1893.00      8251.66
 1061.39        2974.25           2488        1799.00      7841.67
 1061.42        2974.50           2491        1801.00      7850.40
 1061.45        2974.75           2495        1799.00      7841.67
 1061.48        2975.00           2498        1737.00      7571.26
 1061.51        2975.25           2502        1726.00      7523.28
 1061.54        2975.50           2505        1710.00      7453.50
 1061.57        2975.75           2509        1694.00      7383.72
 1061.60        2976.00           2512        1711.00      7457.86
 1061.63        2976.25           2516        1638.00      7139.48
 1061.66        2976.50           2520        1599.00      6969.39
 1061.69        2976.75           2523        1620.00      7060.98
 1061.72        2977.00           2527        1594.00      6947.59
 1061.75        2977.25           2530        1619.00      7056.62
 1061.78        2977.50           2534        1588.00      6921.42
 1061.81        2977.75           2537        1557.00      6786.22
 1061.84        2978.00           2541        1537.00      6699.00
 1061.88        2978.25           2544        1577.00      6873.45
 1061.91        2978.50           2548        1499.00      6533.27
 1061.94        2978.75           2552        1533.00      6681.55
 1061.97        2979.00           2555        1539.00      6707.72
 1062.00        2979.25           2559        1535.00      6690.28
 1062.03        2979.50           2562        1470.00      6406.80
 1062.06        2979.75           2566        1450.00      6319.58
 1062.09        2980.00           2569        1497.00      6524.55
 1062.12        2980.25           2573        1474.00      6424.25
 1062.15        2980.50           2577        1440.00      6275.97
 1062.18        2980.75           2580        1453.00      6332.66
 1062.21        2981.00           2584        1439.00      6271.61
 1062.24        2981.25           2587        1431.00      6236.72
 1062.27        2981.50           2591        1416.00      6171.30
 1062.30        2981.75           2594        1403.00      6114.61
 1062.33        2982.00           2598        1394.00      6075.36
 1062.36        2982.25           2601        1368.00      5961.98
 1062.40        2982.50           2605        1423.00      6201.83
 1062.43        2982.75           2609        1412.00      6153.86
 1062.46        2983.00           2612        1416.00      6171.30
 1062.49        2983.25           2616        1433.00      6245.44
 1062.52        2983.50           2619        1353.00      5896.56
 1062.55        2983.75           2623        1345.00      5861.67
 1062.58        2984.00           2626        1381.00      6018.67
HS scan finished at 17:42:48
end
