************************************************************
  HS Scan of (1) Internal mercury lamp
************************************************************
Integration time is 0.2294 seconds per sample
dh120118Reading 51.44 .94 2.82pr1000
************************************************************
Dead Time -------------------------  3.4E-08 
Number of Cycles Used -------------  4 
Starting Wavelength (Angstroms) ---  2950 
Final Wavelength (Angstoms) -------  2984 
Wavelength Increment (Angstroms) --  .25 
Filter Wheel #1 Position ---------- (1) Ground quartz diffuser (ND=2.32)
Filter Wheel #2 Position ---------- (1) Neutral Density 0.494



************************************************************
HS scan start time = 05:14:53
Dark Count =  .5 


Time (GMT)  Wavelength (Ang)  Step Number  Raw Counts  Counts/Second

  315.79        2950.00           2144          79.00       342.20
  315.98        2950.25           2147          78.00       337.84
  316.01        2950.50           2151          84.00       364.00
  316.04        2950.75           2155          78.00       337.84
  316.08        2951.00           2158          81.00       350.92
  316.11        2951.25           2162          83.00       359.64
  316.14        2951.50           2165          68.00       294.25
  316.17        2951.75           2169          75.00       324.76
  316.20        2952.00           2172          67.00       289.89
  316.23        2952.25           2176          79.00       342.20
  316.26        2952.50           2179          74.00       320.40
  316.29        2952.75           2183          78.00       337.84
  316.32        2953.00           2186          77.00       333.48
  316.35        2953.25           2190          82.00       355.28
  316.38        2953.50           2193          76.00       329.12
  316.41        2953.75           2197          80.00       346.56
  316.44        2954.00           2200          77.00       333.48
  316.47        2954.25           2204          74.00       320.40
  316.50        2954.50           2208          78.00       337.84
  316.53        2954.75           2211          83.00       359.64
  316.56        2955.00           2215         105.00       455.54
  316.60        2955.25           2218          81.00       350.92
  316.63        2955.50           2222          85.00       368.36
  316.66        2955.75           2225          81.00       350.92
  316.69        2956.00           2229         104.00       451.18
  316.72        2956.25           2232          88.00       381.43
  316.75        2956.50           2236          82.00       355.28
  316.78        2956.75           2239          85.00       368.36
  316.81        2957.00           2243          95.00       411.95
  316.84        2957.25           2246          92.00       398.87
  316.87        2957.50           2250          77.00       333.48
  316.90        2957.75           2254          92.00       398.87
  316.93        2958.00           2257         101.00       438.11
  316.96        2958.25           2261          98.00       425.03
  316.99        2958.50           2264          91.00       394.51
  317.02        2958.75           2268         103.00       446.82
  317.05        2959.00           2271         137.00       595.04
  317.08        2959.25           2275          90.00       390.15
  317.12        2959.50           2278          89.00       385.79
  317.15        2959.75           2282          94.00       407.59
  317.18        2960.00           2285          91.00       394.51
  317.21        2960.25           2289         104.00       451.18
  317.24        2960.50           2293         110.00       477.34
  317.27        2960.75           2296         123.00       534.01
  317.31        2961.00           2300         135.00       586.32
  317.34        2961.25           2303         189.00       821.73
  317.37        2961.50           2307         761.00      3315.54
  317.41        2961.75           2310        1416.00      6171.74
  317.44        2962.00           2314        2505.00     10921.67
  317.47        2962.25           2317        3564.00     15542.21
  317.50        2962.50           2321        4767.00     20792.81
  317.53        2962.75           2324        5573.00     24311.72
  317.56        2963.00           2328        7034.00     30692.43
  317.59        2963.25           2331        8137.00     35511.46
  317.62        2963.50           2335        9553.00     41700.32
  317.65        2963.75           2339       10952.00     47817.44
  317.68        2964.00           2342       11949.00     52178.37
  317.71        2964.25           2346       13208.00     57687.14
  317.74        2964.50           2349       14383.00     62830.24
  317.77        2964.75           2353       15847.00     69240.85
  317.80        2965.00           2356       16926.00     73967.40
  317.83        2965.25           2360       18121.00     79203.85
  317.86        2965.50           2363       19113.00     83552.19
  317.89        2965.75           2367       20263.00     88594.71
  317.93        2966.00           2370       21185.00     92638.75
  317.96        2966.25           2374       22466.00     98259.28
  317.99        2966.50           2378       23176.00    101375.40
  318.02        2966.75           2381       23687.00    103618.60
  318.05        2967.00           2385       23753.00    103908.30
  318.08        2967.25           2388       23919.00    104637.10
  318.11        2967.50           2392       23740.00    103851.20
  318.14        2967.75           2395       23679.00    103583.40
  318.17        2968.00           2399       23380.00    102270.90
  318.20        2968.25           2402       22594.00     98821.01
  318.23        2968.50           2406       21203.00     92717.72
  318.26        2968.75           2409       20416.00     89265.72
  318.29        2969.00           2413       18887.00     82561.43
  318.32        2969.25           2417       17341.00     75785.71
  318.35        2969.50           2420       16311.00     71273.21
  318.38        2969.75           2424       15060.00     65794.36
  318.41        2970.00           2427       13919.00     60799.05
  318.45        2970.25           2431       12279.00     53622.09
  318.48        2970.50           2434       11289.00     49291.35
  318.51        2970.75           2438        9799.00     42775.77
  318.54        2971.00           2441        8956.00     39090.72
  318.57        2971.25           2445        7454.00     32527.24
  318.60        2971.50           2449        6100.00     26613.00
  318.63        2971.75           2452        5167.00     22539.06
  318.66        2972.00           2456        3824.00     16676.85
  318.69        2972.25           2459        2784.00     12138.84
  318.72        2972.50           2463        1537.00      6699.43
  318.75        2972.75           2466         788.00      3433.27
  318.78        2973.00           2470         268.00      1166.13
  318.81        2973.25           2473         156.00       677.87
  318.84        2973.50           2477         153.00       664.79
  318.87        2973.75           2481         127.00       551.45
  318.90        2974.00           2484         109.00       472.98
  318.93        2974.25           2488         101.00       438.11
  318.97        2974.50           2491         100.00       433.75
  319.01        2974.75           2495         104.00       451.18
  319.04        2975.00           2498         116.00       503.50
  319.07        2975.25           2502          95.00       411.95
  319.10        2975.50           2505          94.00       407.59
  319.13        2975.75           2509          99.00       429.39
  319.16        2976.00           2512          95.00       411.95
  319.19        2976.25           2516          95.00       411.95
  319.23        2976.50           2520         112.00       486.06
  319.26        2976.75           2523          90.00       390.15
  319.29        2977.00           2527          93.00       403.23
  319.32        2977.25           2530          92.00       398.87
  319.35        2977.50           2534         103.00       446.82
  319.38        2977.75           2537          88.00       381.43
  319.41        2978.00           2541          82.00       355.28
  319.44        2978.25           2544          83.00       359.64
  319.47        2978.50           2548          82.00       355.28
  319.50        2978.75           2552          89.00       385.79
  319.53        2979.00           2555          87.00       377.08
  319.56        2979.25           2559          83.00       359.64
  319.59        2979.50           2562          83.00       359.64
  319.62        2979.75           2566          80.00       346.56
  319.65        2980.00           2569          79.00       342.20
  319.68        2980.25           2573          71.00       307.33
  319.71        2980.50           2577          70.00       302.97
  319.75        2980.75           2580          83.00       359.64
  319.78        2981.00           2584          79.00       342.20
  319.81        2981.25           2587          79.00       342.20
  319.84        2981.50           2591          76.00       329.12
  319.87        2981.75           2594          83.00       359.64
  319.90        2982.00           2598          75.00       324.76
  319.93        2982.25           2601          79.00       342.20
  319.96        2982.50           2605          75.00       324.76
  319.99        2982.75           2609          82.00       355.28
  320.02        2983.00           2612          79.00       342.20
  320.05        2983.25           2616          74.00       320.40
  320.08        2983.50           2619          67.00       289.89
  320.11        2983.75           2623          68.00       294.25
  320.14        2984.00           2626          82.00       355.28
HS scan finished at 05:20:22
end
************************************************************
  HS Scan of (1) Internal mercury lamp
************************************************************
Integration time is 0.2294 seconds per sample
dh120118Reading 51.44 .94 2.88pr1000
************************************************************
Dead Time -------------------------  3.4E-08 
Number of Cycles Used -------------  4 
Starting Wavelength (Angstroms) ---  2950 
Final Wavelength (Angstoms) -------  2984 
Wavelength Increment (Angstroms) --  .25 
Filter Wheel #1 Position ---------- (1) Ground quartz diffuser (ND=2.32)
Filter Wheel #2 Position ---------- (1) Neutral Density 0.494



************************************************************
HS scan start time = 17:07:29
Dark Count =  1 


Time (GMT)  Wavelength (Ang)  Step Number  Raw Counts  Counts/Second

 1028.38        2950.00           2144          80.00       344.38
 1028.57        2950.25           2147          79.00       340.02
 1028.60        2950.50           2151          81.00       348.74
 1028.63        2950.75           2155          91.00       392.33
 1028.66        2951.00           2158          81.00       348.74
 1028.69        2951.25           2162          82.00       353.10
 1028.72        2951.50           2165          78.00       335.66
 1028.75        2951.75           2169          79.00       340.02
 1028.78        2952.00           2172          75.00       322.58
 1028.81        2952.25           2176          79.00       340.02
 1028.84        2952.50           2179          78.00       335.66
 1028.87        2952.75           2183          76.00       326.94
 1028.90        2953.00           2186          76.00       326.94
 1028.94        2953.25           2190          72.00       309.51
 1028.97        2953.50           2193          83.00       357.46
 1029.00        2953.75           2197          82.00       353.10
 1029.03        2954.00           2200          79.00       340.02
 1029.06        2954.25           2204          93.00       401.05
 1029.09        2954.50           2208          77.00       331.30
 1029.12        2954.75           2211          84.00       361.82
 1029.15        2955.00           2215          91.00       392.33
 1029.18        2955.25           2218          93.00       401.05
 1029.21        2955.50           2222          83.00       357.46
 1029.24        2955.75           2225          95.00       409.77
 1029.27        2956.00           2229          90.00       387.97
 1029.30        2956.25           2232          87.00       374.90
 1029.33        2956.50           2236          89.00       383.61
 1029.36        2956.75           2239          90.00       387.97
 1029.39        2957.00           2243          89.00       383.61
 1029.42        2957.25           2246          94.00       405.41
 1029.46        2957.50           2250          93.00       401.05
 1029.49        2957.75           2254         100.00       431.57
 1029.52        2958.00           2257          93.00       401.05
 1029.55        2958.25           2261         120.00       518.75
 1029.58        2958.50           2264          87.00       374.90
 1029.61        2958.75           2268          94.00       405.41
 1029.64        2959.00           2271         101.00       435.93
 1029.67        2959.25           2275          95.00       409.77
 1029.70        2959.50           2278         127.00       549.27
 1029.73        2959.75           2282          99.00       427.21
 1029.76        2960.00           2285         102.00       440.29
 1029.79        2960.25           2289          98.00       422.85
 1029.82        2960.50           2293         106.00       457.72
 1029.85        2960.75           2296         114.00       492.60
 1029.88        2961.00           2300         114.00       492.60
 1029.91        2961.25           2303         203.00       880.58
 1029.94        2961.50           2307         683.00      2973.27
 1029.98        2961.75           2310        1464.00      6378.89
 1030.01        2962.00           2314        2672.00     11648.03
 1030.04        2962.25           2317        3612.00     15749.50
 1030.07        2962.50           2321        4881.00     21288.29
 1030.10        2962.75           2324        5743.00     25051.85
 1030.13        2963.00           2328        7244.00     31607.62
 1030.16        2963.25           2331        8282.00     36142.91
 1030.19        2963.50           2335        9633.00     42047.87
 1030.22        2963.75           2339       11218.00     48978.62
 1030.25        2964.00           2342       12125.00     52946.15
 1030.28        2964.25           2346       13608.00     59435.60
 1030.31        2964.50           2349       14793.00     64623.10
 1030.34        2964.75           2353       16224.00     70889.93
 1030.37        2965.00           2356       17289.00     75555.66
 1030.40        2965.25           2360       18505.00     80884.74
 1030.43        2965.50           2363       19430.00     84939.81
 1030.46        2965.75           2367       20542.00     89816.15
 1030.50        2966.00           2370       21961.00     96041.09
 1030.53        2966.25           2374       23191.00    101439.10
 1030.56        2966.50           2378       23988.00    104937.80
 1030.59        2966.75           2381       24176.00    105763.20
 1030.62        2967.00           2385       24171.00    105741.30
 1030.65        2967.25           2388       24191.00    105829.10
 1030.68        2967.50           2392       24196.00    105851.10
 1030.71        2967.75           2395       24075.00    105319.80
 1030.74        2968.00           2399       23719.00    103756.80
 1030.77        2968.25           2402       22702.00     99292.80
 1030.80        2968.50           2406       21395.00     93557.81
 1030.83        2968.75           2409       20255.00     88557.44
 1030.86        2969.00           2413       19022.00     83151.05
 1030.89        2969.25           2417       17632.00     77058.66
 1030.92        2969.50           2420       16430.00     71792.29
 1030.95        2969.75           2424       14824.00     64758.82
 1030.98        2970.00           2427       13777.00     60175.30
 1031.02        2970.25           2431       12576.00     54919.37
 1031.05        2970.50           2434       11364.00     49617.20
 1031.08        2970.75           2438        9840.00     42952.83
 1031.11        2971.00           2441        8799.00     38402.33
 1031.14        2971.25           2445        7421.00     32380.88
 1031.17        2971.50           2449        6000.00     26174.11
 1031.20        2971.75           2452        4970.00     21676.83
 1031.23        2972.00           2456        3623.00     15797.50
 1031.26        2972.25           2459        2617.00     11408.09
 1031.30        2972.50           2463        1443.00      6287.31
 1031.33        2972.75           2466         785.00      3418.01
 1031.36        2973.00           2470         276.00      1198.83
 1031.39        2973.25           2473         150.00       649.53
 1031.42        2973.50           2477         147.00       636.46
 1031.45        2973.75           2481         154.00       666.97
 1031.48        2974.00           2484         138.00       597.22
 1031.51        2974.25           2488         121.00       523.11
 1031.54        2974.50           2491         120.00       518.75
 1031.57        2974.75           2495         143.00       619.02
 1031.61        2975.00           2498          96.00       414.13
 1031.64        2975.25           2502          99.00       427.21
 1031.67        2975.50           2505          95.00       409.77
 1031.70        2975.75           2509         105.00       453.36
 1031.73        2976.00           2512          92.00       396.69
 1031.76        2976.25           2516          99.00       427.21
 1031.79        2976.50           2520          95.00       409.77
 1031.82        2976.75           2523          99.00       427.21
 1031.85        2977.00           2527          85.00       366.18
 1031.88        2977.25           2530         115.00       496.96
 1031.91        2977.50           2534          96.00       414.13
 1031.94        2977.75           2537         104.00       449.00
 1031.97        2978.00           2541          83.00       357.46
 1032.00        2978.25           2544          86.00       370.54
 1032.03        2978.50           2548          86.00       370.54
 1032.06        2978.75           2552          95.00       409.77
 1032.09        2979.00           2555          81.00       348.74
 1032.13        2979.25           2559          86.00       370.54
 1032.16        2979.50           2562          91.00       392.33
 1032.19        2979.75           2566          80.00       344.38
 1032.22        2980.00           2569          89.00       383.61
 1032.25        2980.25           2573          82.00       353.10
 1032.28        2980.50           2577          83.00       357.46
 1032.31        2980.75           2580          79.00       340.02
 1032.34        2981.00           2584          86.00       370.54
 1032.37        2981.25           2587          76.00       326.94
 1032.40        2981.50           2591          81.00       348.74
 1032.43        2981.75           2594          77.00       331.30
 1032.46        2982.00           2598          84.00       361.82
 1032.49        2982.25           2601          84.00       361.82
 1032.52        2982.50           2605          78.00       335.66
 1032.55        2982.75           2609          79.00       340.02
 1032.58        2983.00           2612          83.00       357.46
 1032.61        2983.25           2616          79.00       340.02
 1032.65        2983.50           2619          81.00       348.74
 1032.68        2983.75           2623          80.00       344.38
 1032.71        2984.00           2626          73.00       313.87
HS scan finished at 17:12:56
end
