************************************************************
  HS Scan of 
************************************************************
Integration time is 0.2294 seconds per sample
dh150117Reading 51.44 .94 2.62pr1000
************************************************************
Dead Time -------------------------  3.4E-08 
Number of Cycles Used -------------  4 
Starting Wavelength (Angstroms) ---  2950 
Final Wavelength (Angstoms) -------  2984 
Wavelength Increment (Angstroms) --  .25 
Filter Wheel #1 Position ---------- (1) Ground quartz diffuser (ND=2.32)
Filter Wheel #2 Position ---------- (1) Neutral Density 0.494



************************************************************
HS scan start time = 05:13:26
Dark Count =  .2 


Time (GMT)  Wavelength (Ang)  Step Number  Raw Counts  Counts/Second

  314.34        2950.00           2144         825.00      3595.91
  314.53        2950.25           2147         830.00      3617.71
  314.56        2950.50           2151         838.00      3652.59
  314.59        2950.75           2155         812.00      3539.22
  314.62        2951.00           2158         825.00      3595.91
  314.65        2951.25           2162         842.00      3670.03
  314.68        2951.50           2165         826.00      3600.27
  314.71        2951.75           2169         854.00      3722.35
  314.74        2952.00           2172         812.00      3539.22
  314.77        2952.25           2176         845.00      3683.11
  314.80        2952.50           2179         879.00      3831.36
  314.84        2952.75           2183         829.00      3613.35
  314.87        2953.00           2186         897.00      3909.85
  314.90        2953.25           2190         843.00      3674.39
  314.93        2953.50           2193         873.00      3805.20
  314.96        2953.75           2197         881.00      3840.08
  314.99        2954.00           2200         873.00      3805.20
  315.02        2954.25           2204         847.00      3691.83
  315.05        2954.50           2208         881.00      3840.08
  315.08        2954.75           2211         883.00      3848.80
  315.11        2955.00           2215         877.00      3822.64
  315.14        2955.25           2218         875.00      3813.92
  315.17        2955.50           2222         907.00      3953.45
  315.20        2955.75           2225         901.00      3927.29
  315.23        2956.00           2229         891.00      3883.69
  315.26        2956.25           2232         875.00      3813.92
  315.29        2956.50           2236         889.00      3874.97
  315.32        2956.75           2239         905.00      3944.73
  315.36        2957.00           2243         901.00      3927.29
  315.39        2957.25           2246         922.00      4018.86
  315.42        2957.50           2250         923.00      4023.22
  315.45        2957.75           2254         935.00      4075.54
  315.48        2958.00           2257         969.00      4223.80
  315.51        2958.25           2261         942.00      4106.07
  315.54        2958.50           2264         954.00      4158.39
  315.57        2958.75           2268         960.00      4184.55
  315.60        2959.00           2271         967.00      4215.08
  315.63        2959.25           2275         995.00      4337.17
  315.66        2959.50           2278        1008.00      4393.86
  315.69        2959.75           2282        1018.00      4437.46
  315.72        2960.00           2285        1026.00      4472.35
  315.75        2960.25           2289        1057.00      4607.52
  315.78        2960.50           2293        1054.00      4594.44
  315.81        2960.75           2296        1070.00      4664.21
  315.84        2961.00           2300        1087.00      4738.34
  315.88        2961.25           2303        1190.00      5187.49
  315.91        2961.50           2307        2325.00     10137.76
  315.94        2961.75           2310        6061.00     26443.99
  315.97        2962.00           2314       15028.00     65655.56
  316.00        2962.25           2317       22475.00     98300.09
  316.03        2962.50           2321       32693.00    143210.00
  316.06        2962.75           2324       40855.00    179182.50
  316.09        2963.00           2328       51478.00    226133.90
  316.12        2963.25           2331       59079.00    259821.30
  316.15        2963.50           2335       70746.00    311680.40
  316.18        2963.75           2339       80883.00    356888.50
  316.21        2964.00           2342       88917.00    392817.50
  316.24        2964.25           2346      100171.00    443295.70
  316.27        2964.50           2349      108965.00    482861.70
  316.30        2964.75           2353      120811.00    536329.60
  316.33        2965.00           2356      129637.00    576294.50
  316.36        2965.25           2360      139767.00    622299.60
  316.40        2965.50           2363      146882.00    654699.30
  316.43        2965.75           2367      158336.00    707009.80
  316.46        2966.00           2370      166188.00    742979.00
  316.49        2966.25           2374      176891.00    792152.50
  316.52        2966.50           2378      184920.00    829150.30
  316.55        2966.75           2381      187763.00    842273.60
  316.58        2967.00           2385      189023.00    848093.50
  316.61        2967.25           2388      189122.00    848550.90
  316.64        2967.50           2392      189612.00    850814.90
  316.67        2967.75           2395      188375.00    845100.20
  316.70        2968.00           2399      186279.00    835422.00
  316.73        2968.25           2402      180761.00    809973.80
  316.76        2968.50           2406      171837.00    768911.80
  316.79        2968.75           2409      164598.00    735688.20
  316.82        2969.00           2413      154994.00    691727.40
  316.85        2969.25           2417      145228.00    647161.00
  316.88        2969.50           2420      136613.00    607960.10
  316.92        2969.75           2424      124920.00    554921.90
  316.95        2970.00           2427      116474.00    516731.50
  316.98        2970.25           2431      105224.00    466017.10
  317.01        2970.50           2434       97212.00    430006.50
  317.04        2970.75           2438       85690.00    378375.30
  317.07        2971.00           2441       77215.00    340514.10
  317.10        2971.25           2445       65049.00    286334.60
  317.13        2971.50           2449       53879.00    236766.70
  317.16        2971.75           2452       45654.00    200374.40
  317.19        2972.00           2456       35377.00    155029.50
  317.22        2972.25           2459       27398.00    119920.40
  317.25        2972.50           2463       17911.00     78284.82
  317.28        2972.75           2466       10179.00     44438.49
  317.31        2973.00           2470        3045.00     13278.88
  317.34        2973.25           2473        1491.00      6500.13
  317.37        2973.50           2477        1146.00      4995.62
  317.40        2973.75           2481        1094.00      4768.86
  317.44        2974.00           2484        1063.00      4633.69
  317.47        2974.25           2488        1039.00      4529.03
  317.50        2974.50           2491        1029.00      4485.43
  317.53        2974.75           2495        1049.00      4572.64
  317.56        2975.00           2498         983.00      4284.84
  317.59        2975.25           2502         965.00      4206.36
  317.62        2975.50           2505         944.00      4114.79
  317.65        2975.75           2509         977.00      4258.68
  317.68        2976.00           2512         966.00      4210.72
  317.71        2976.25           2516         940.00      4097.35
  317.74        2976.50           2520         953.00      4154.03
  317.77        2976.75           2523         934.00      4071.18
  317.80        2977.00           2527         917.00      3997.06
  317.83        2977.25           2530         921.00      4014.50
  317.86        2977.50           2534         872.00      3800.84
  317.89        2977.75           2537         914.00      3983.97
  317.92        2978.00           2541         892.00      3888.05
  317.95        2978.25           2544         866.00      3774.68
  317.99        2978.50           2548         911.00      3970.89
  318.02        2978.75           2552         863.00      3761.60
  318.05        2979.00           2555         853.00      3717.99
  318.08        2979.25           2559         875.00      3813.92
  318.11        2979.50           2562         842.00      3670.03
  318.14        2979.75           2566         858.00      3739.80
  318.17        2980.00           2569         842.00      3670.03
  318.20        2980.25           2573         875.00      3813.92
  318.23        2980.50           2577         847.00      3691.83
  318.26        2980.75           2580         837.00      3648.23
  318.29        2981.00           2584         832.00      3626.43
  318.32        2981.25           2587         845.00      3683.11
  318.35        2981.50           2591         836.00      3643.87
  318.38        2981.75           2594         818.00      3565.38
  318.41        2982.00           2598         838.00      3652.59
  318.44        2982.25           2601         829.00      3613.35
  318.47        2982.50           2605         825.00      3595.91
  318.51        2982.75           2609         835.00      3639.51
  318.54        2983.00           2612         844.00      3678.75
  318.57        2983.25           2616         815.00      3552.30
  318.60        2983.50           2619         805.00      3508.70
  318.63        2983.75           2623         806.00      3513.06
  318.66        2984.00           2626         797.00      3473.82
HS scan finished at 05:18:53
end
************************************************************
  HS Scan of 
************************************************************
Integration time is 0.2294 seconds per sample
dh150117Reading 51.44 .94 2.86pr1000
************************************************************
Dead Time -------------------------  3.4E-08 
Number of Cycles Used -------------  4 
Starting Wavelength (Angstroms) ---  2950 
Final Wavelength (Angstoms) -------  2984 
Wavelength Increment (Angstroms) --  .25 
Filter Wheel #1 Position ---------- (1) Ground quartz diffuser (ND=2.32)
Filter Wheel #2 Position ---------- (1) Neutral Density 0.494



************************************************************
HS scan start time = 17:07:17
Dark Count =  .6 


Time (GMT)  Wavelength (Ang)  Step Number  Raw Counts  Counts/Second

 1028.18        2950.00           2144         760.00      3310.75
 1028.38        2950.25           2147         781.00      3402.31
 1028.41        2950.50           2151         776.00      3380.51
 1028.44        2950.75           2155         754.00      3284.59
 1028.47        2951.00           2158         765.00      3332.55
 1028.50        2951.25           2162         793.00      3454.63
 1028.53        2951.50           2165         775.00      3376.15
 1028.56        2951.75           2169         778.00      3389.23
 1028.59        2952.00           2172         769.00      3349.99
 1028.62        2952.25           2176         782.00      3406.67
 1028.65        2952.50           2179         772.00      3363.07
 1028.68        2952.75           2183         800.00      3485.16
 1028.71        2953.00           2186         788.00      3432.83
 1028.74        2953.25           2190         790.00      3441.55
 1028.78        2953.50           2193         792.00      3450.27
 1028.81        2953.75           2197         815.00      3550.56
 1028.84        2954.00           2200         784.00      3415.39
 1028.87        2954.25           2204         801.00      3489.52
 1028.90        2954.50           2208         807.00      3515.68
 1028.93        2954.75           2211         788.00      3432.83
 1028.96        2955.00           2215         804.00      3502.60
 1028.99        2955.25           2218         842.00      3668.29
 1029.02        2955.50           2222         798.00      3476.44
 1029.05        2955.75           2225         813.00      3541.84
 1029.08        2956.00           2229         814.00      3546.20
 1029.11        2956.25           2232         834.00      3633.40
 1029.14        2956.50           2236         836.00      3642.13
 1029.17        2956.75           2239         832.00      3624.68
 1029.20        2957.00           2243         844.00      3677.01
 1029.23        2957.25           2246         846.00      3685.73
 1029.27        2957.50           2250         862.00      3755.49
 1029.30        2957.75           2254         881.00      3838.34
 1029.33        2958.00           2257         891.00      3881.94
 1029.36        2958.25           2261         868.00      3781.65
 1029.39        2958.50           2264         873.00      3803.46
 1029.42        2958.75           2268         916.00      3990.95
 1029.45        2959.00           2271         865.00      3768.57
 1029.48        2959.25           2275         909.00      3960.43
 1029.51        2959.50           2278         928.00      4043.28
 1029.54        2959.75           2282         903.00      3934.27
 1029.57        2960.00           2285         964.00      4200.25
 1029.60        2960.25           2289         965.00      4204.61
 1029.63        2960.50           2293         962.00      4191.53
 1029.66        2960.75           2296         967.00      4213.33
 1029.69        2961.00           2300        1023.00      4457.52
 1029.72        2961.25           2303        1051.00      4579.61
 1029.75        2961.50           2307        2072.00      9032.42
 1029.78        2961.75           2310        5556.00     24237.05
 1029.82        2962.00           2314       13032.00     56916.49
 1029.85        2962.25           2317       19280.00     84283.91
 1029.88        2962.50           2321       29296.00    128262.60
 1029.91        2962.75           2324       37050.00    162399.90
 1029.94        2963.00           2328       48501.00    212959.20
 1029.97        2963.25           2331       56410.00    247981.80
 1030.00        2963.50           2335       67442.00    296973.90
 1030.03        2963.75           2339       77495.00    341761.70
 1030.06        2964.00           2342       85961.00    379585.80
 1030.09        2964.25           2346       96969.00    428914.00
 1030.12        2964.50           2349      105592.00    467671.40
 1030.15        2964.75           2353      115611.00    512833.10
 1030.18        2965.00           2356      123951.00    550533.50
 1030.21        2965.25           2360      134923.00    600280.80
 1030.24        2965.50           2363      142336.00    633988.00
 1030.27        2965.75           2367      152694.00    681217.40
 1030.30        2966.00           2370      159509.00    712375.80
 1030.34        2966.25           2374      168416.00    753199.80
 1030.37        2966.50           2378      175540.00    785934.50
 1030.40        2966.75           2381      177860.00    796610.80
 1030.43        2967.00           2385      178707.00    800510.60
 1030.46        2967.25           2388      178664.00    800312.60
 1030.49        2967.50           2392      178650.00    800248.10
 1030.52        2967.75           2395      178450.00    799327.10
 1030.55        2968.00           2399      175663.00    786500.30
 1030.58        2968.25           2402      170834.00    764302.20
 1030.61        2968.50           2406      161338.00    720749.30
 1030.64        2968.75           2409      154110.00    687686.00
 1030.67        2969.00           2413      144392.00    643350.50
 1030.70        2969.25           2417      134176.00    596888.50
 1030.73        2969.50           2420      127084.00    564721.20
 1030.76        2969.75           2424      117515.00    521431.40
 1030.79        2970.00           2427      110704.00    490696.80
 1030.82        2970.25           2431       99737.00    441344.00
 1030.86        2970.50           2434       91104.00    402611.50
 1030.89        2970.75           2438       78765.00    347429.50
 1030.92        2971.00           2441       70909.00    312404.50
 1030.95        2971.25           2445       60193.00    264763.30
 1030.98        2971.50           2449       50082.00    219953.50
 1031.01        2971.75           2452       42239.00    185289.20
 1031.04        2972.00           2456       32001.00    140162.40
 1031.07        2972.25           2459       24444.00    106941.80
 1031.10        2972.50           2463       14931.00     65229.08
 1031.13        2972.75           2466        8004.00     34929.86
 1031.16        2973.00           2470        2738.00     11937.71
 1031.19        2973.25           2473        1479.00      6446.05
 1031.22        2973.50           2477        1075.00      4684.27
 1031.25        2973.75           2481        1025.00      4466.24
 1031.28        2974.00           2484        1022.00      4453.16
 1031.31        2974.25           2488         972.00      4235.14
 1031.34        2974.50           2491         939.00      4091.24
 1031.38        2974.75           2495         934.00      4069.44
 1031.41        2975.00           2498         926.00      4034.56
 1031.44        2975.25           2502         927.00      4038.92
 1031.47        2975.50           2505         912.00      3973.51
 1031.50        2975.75           2509         908.00      3956.07
 1031.53        2976.00           2512         885.00      3855.78
 1031.56        2976.25           2516         917.00      3995.31
 1031.59        2976.50           2520         871.00      3794.74
 1031.62        2976.75           2523         873.00      3803.46
 1031.65        2977.00           2527         860.00      3746.77
 1031.68        2977.25           2530         866.00      3772.93
 1031.71        2977.50           2534         839.00      3655.21
 1031.74        2977.75           2537         826.00      3598.52
 1031.77        2978.00           2541         858.00      3738.05
 1031.80        2978.25           2544         819.00      3568.00
 1031.83        2978.50           2548         813.00      3541.84
 1031.86        2978.75           2552         801.00      3489.52
 1031.90        2979.00           2555         833.00      3629.04
 1031.93        2979.25           2559         785.00      3419.75
 1031.96        2979.50           2562         784.00      3415.39
 1031.99        2979.75           2566         810.00      3528.76
 1032.02        2980.00           2569         769.00      3349.99
 1032.05        2980.25           2573         817.00      3559.28
 1032.08        2980.50           2577         786.00      3424.11
 1032.11        2980.75           2580         803.00      3498.24
 1032.14        2981.00           2584         782.00      3406.67
 1032.17        2981.25           2587         771.00      3358.71
 1032.20        2981.50           2591         742.00      3232.26
 1032.23        2981.75           2594         748.00      3258.43
 1032.26        2982.00           2598         739.00      3219.18
 1032.29        2982.25           2601         781.00      3402.31
 1032.32        2982.50           2605         747.00      3254.07
 1032.35        2982.75           2609         770.00      3354.35
 1032.38        2983.00           2612         747.00      3254.07
 1032.42        2983.25           2616         743.00      3236.63
 1032.45        2983.50           2619         742.00      3232.26
 1032.48        2983.75           2623         750.00      3267.15
 1032.51        2984.00           2626         727.00      3166.86
HS scan finished at 17:12:44
end
