************************************************************
  HS Scan of (1) Internal mercury lamp
************************************************************
Integration time is 0.2294 seconds per sample
dh110119Reading 51.44 .94 2.84pr1000
************************************************************
Dead Time -------------------------  3.4E-08 
Number of Cycles Used -------------  4 
Starting Wavelength (Angstroms) ---  2950 
Final Wavelength (Angstoms) -------  2984 
Wavelength Increment (Angstroms) --  .25 
Filter Wheel #1 Position ---------- (1) Ground quartz diffuser (ND=2.32)
Filter Wheel #2 Position ---------- (1) Neutral Density 0.494



************************************************************
HS scan start time = 05:15:22
Dark Count =  .5 


Time (GMT)  Wavelength (Ang)  Step Number  Raw Counts  Counts/Second

  316.27        2950.00           2144        1586.00      6913.13
  316.47        2950.25           2147        1566.00      6825.91
  316.50        2950.50           2151        1569.00      6838.99
  316.53        2950.75           2155        1583.00      6900.05
  316.56        2951.00           2158        1562.00      6808.46
  316.59        2951.25           2162        1580.00      6886.97
  316.62        2951.50           2165        1590.00      6930.58
  316.65        2951.75           2169        1638.00      7139.92
  316.68        2952.00           2172        1587.00      6917.49
  316.72        2952.25           2176        1579.00      6882.60
  316.75        2952.50           2179        1593.00      6943.66
  316.78        2952.75           2183        1597.00      6961.11
  316.81        2953.00           2186        1615.00      7039.61
  316.84        2953.25           2190        1612.00      7026.53
  316.87        2953.50           2193        1618.00      7052.69
  316.90        2953.75           2197        1653.00      7205.34
  316.93        2954.00           2200        1677.00      7310.01
  316.96        2954.25           2204        1668.00      7270.76
  316.99        2954.50           2208        1646.00      7174.81
  317.02        2954.75           2211        1694.00      7384.16
  317.05        2955.00           2215        1689.00      7362.35
  317.08        2955.25           2218        1664.00      7253.31
  317.11        2955.50           2222        1682.00      7331.82
  317.14        2955.75           2225        1694.00      7384.16
  317.17        2956.00           2229        1656.00      7218.42
  317.20        2956.25           2232        1704.00      7427.77
  317.24        2956.50           2236        1680.00      7323.10
  317.27        2956.75           2239        1670.00      7279.48
  317.30        2957.00           2243        1713.00      7467.02
  317.33        2957.25           2246        1699.00      7405.96
  317.36        2957.50           2250        1719.00      7493.19
  317.39        2957.75           2254        1697.00      7397.24
  317.42        2958.00           2257        1704.00      7427.77
  317.45        2958.25           2261        1789.00      7798.49
  317.48        2958.50           2264        1793.00      7815.94
  317.51        2958.75           2268        1776.00      7741.79
  317.54        2959.00           2271        1770.00      7715.63
  317.57        2959.25           2275        1824.00      7951.15
  317.60        2959.50           2278        1829.00      7972.95
  317.63        2959.75           2282        1866.00      8134.33
  317.66        2960.00           2285        1879.00      8191.03
  317.69        2960.25           2289        1898.00      8273.91
  317.72        2960.50           2293        1983.00      8644.65
  317.76        2960.75           2296        2006.00      8744.97
  317.79        2961.00           2300        2114.00      9216.05
  317.82        2961.25           2303        2629.00     11462.62
  317.85        2961.50           2307        7965.00     34759.89
  317.88        2961.75           2310       18452.00     80654.61
  317.91        2962.00           2314       36405.00    159557.70
  317.94        2962.25           2317       50350.00    221139.90
  317.97        2962.50           2321       71820.00    316462.20
  318.00        2962.75           2324       87928.00    388388.40
  318.03        2963.00           2328      109557.00    485527.80
  318.06        2963.25           2331      125244.00    556387.50
  318.09        2963.50           2335      149562.00    666920.60
  318.12        2963.75           2339      174580.00    781519.50
  318.15        2964.00           2342      193196.00    867384.00
  318.18        2964.25           2346      215341.00    970193.10
  318.21        2964.50           2349      231656.00   1046407.00
  318.24        2964.75           2353      252762.00   1145601.00
  318.28        2965.00           2356      269468.00   1224604.00
  318.31        2965.25           2360      292536.00   1334409.00
  318.34        2965.50           2363      308937.00   1412993.00
  318.37        2965.75           2367      329481.00   1512039.00
  318.40        2966.00           2370      344754.00   1586120.00
  318.43        2966.25           2374      362916.00   1674715.00
  318.46        2966.50           2378      377457.00   1746046.00
  318.49        2966.75           2381      383451.00   1775553.00
  318.52        2967.00           2385      386904.00   1792580.00
  318.55        2967.25           2388      386555.00   1790858.00
  318.58        2967.50           2392      387049.00   1793295.00
  318.61        2967.75           2395      386399.00   1790089.00
  318.64        2968.00           2399      381207.00   1764499.00
  318.67        2968.25           2402      374280.00   1730431.00
  318.70        2968.50           2406      355945.00   1640645.00
  318.73        2968.75           2409      340734.00   1566584.00
  318.76        2969.00           2413      316567.00   1449699.00
  318.80        2969.25           2417      292591.00   1334672.00
  318.83        2969.50           2420      276342.00   1257237.00
  318.86        2969.75           2424      253406.00   1148639.00
  318.89        2970.00           2427      237030.00   1071599.00
  318.92        2970.25           2431      212844.00    958564.00
  318.95        2970.50           2434      195037.00    875903.20
  318.98        2970.75           2438      172302.00    771047.10
  319.01        2971.00           2441      155408.00    693618.30
  319.04        2971.25           2445      131789.00    586054.20
  319.07        2971.50           2449      110152.00    488209.20
  319.10        2971.75           2452       92208.00    407559.40
  319.13        2972.00           2456       69400.00    305686.80
  319.16        2972.25           2459       52446.00    230418.40
  319.19        2972.50           2463       29917.00    130994.10
  319.22        2972.75           2466       15528.00     67843.76
  319.25        2973.00           2470        5386.00     23495.22
  319.28        2973.25           2473        2942.00     12828.18
  319.31        2973.50           2477        2152.00      9381.81
  319.35        2973.75           2481        2045.00      8915.08
  319.38        2974.00           2484        1965.00      8566.14
  319.41        2974.25           2488        1949.00      8496.35
  319.44        2974.50           2491        1931.00      8417.84
  319.47        2974.75           2495        1933.00      8426.56
  319.50        2975.00           2498        1830.00      7977.32
  319.53        2975.25           2502        1817.00      7920.62
  319.56        2975.50           2505        1778.00      7750.52
  319.59        2975.75           2509        1781.00      7763.60
  319.62        2976.00           2512        1761.00      7676.37
  319.65        2976.25           2516        1724.00      7515.00
  319.68        2976.50           2520        1701.00      7414.69
  319.71        2976.75           2523        1699.00      7405.96
  319.74        2977.00           2527        1656.00      7218.42
  319.77        2977.25           2530        1698.00      7401.60
  319.80        2977.50           2534        1616.00      7043.97
  319.83        2977.75           2537        1647.00      7179.17
  319.87        2978.00           2541        1647.00      7179.17
  319.90        2978.25           2544        1589.00      6926.22
  319.93        2978.50           2548        1571.00      6847.71
  319.96        2978.75           2552        1579.00      6882.60
  319.99        2979.00           2555        1606.00      7000.36
  320.02        2979.25           2559        1562.00      6808.46
  320.05        2979.50           2562        1597.00      6961.11
  320.08        2979.75           2566        1535.00      6690.71
  320.11        2980.00           2569        1531.00      6673.27
  320.14        2980.25           2573        1518.00      6616.57
  320.17        2980.50           2577        1516.00      6607.85
  320.21        2980.75           2580        1506.00      6564.24
  320.24        2981.00           2584        1519.00      6620.93
  320.27        2981.25           2587        1527.00      6655.82
  320.30        2981.50           2591        1446.00      6302.57
  320.33        2981.75           2594        1525.00      6647.10
  320.36        2982.00           2598        1442.00      6285.13
  320.39        2982.25           2601        1467.00      6394.15
  320.42        2982.50           2605        1438.00      6267.68
  320.45        2982.75           2609        1463.00      6376.71
  320.48        2983.00           2612        1451.00      6324.38
  320.51        2983.25           2616        1428.00      6224.07
  320.55        2983.50           2619        1415.00      6167.38
  320.58        2983.75           2623        1459.00      6359.27
  320.61        2984.00           2626        1444.00      6293.85
HS scan finished at 05:20:50
end
************************************************************
  HS Scan of (1) Internal mercury lamp
************************************************************
Integration time is 0.2294 seconds per sample
dh110119Reading 51.44 .94 3pr1000
************************************************************
Dead Time -------------------------  3.4E-08 
Number of Cycles Used -------------  4 
Starting Wavelength (Angstroms) ---  2950 
Final Wavelength (Angstoms) -------  2984 
Wavelength Increment (Angstroms) --  .25 
Filter Wheel #1 Position ---------- (1) Ground quartz diffuser (ND=2.32)
Filter Wheel #2 Position ---------- (1) Neutral Density 0.494



************************************************************
HS scan start time = 17:08:43
Dark Count =  .7 


Time (GMT)  Wavelength (Ang)  Step Number  Raw Counts  Counts/Second

 1029.61        2950.00           2144        1150.00      5010.88
 1029.81        2950.25           2147        1102.00      4801.57
 1029.84        2950.50           2151        1132.00      4932.39
 1029.87        2950.75           2155        1135.00      4945.47
 1029.90        2951.00           2158        1112.00      4845.18
 1029.93        2951.25           2162        1126.00      4906.22
 1029.96        2951.50           2165        1128.00      4914.95
 1029.99        2951.75           2169        1127.00      4910.59
 1030.02        2952.00           2172        1166.00      5080.65
 1030.05        2952.25           2176        1130.00      4923.67
 1030.08        2952.50           2179        1152.00      5019.60
 1030.11        2952.75           2183        1183.00      5154.78
 1030.14        2953.00           2186        1180.00      5141.70
 1030.17        2953.25           2190        1178.00      5132.98
 1030.20        2953.50           2193        1177.00      5128.62
 1030.23        2953.75           2197        1171.00      5102.45
 1030.26        2954.00           2200        1159.00      5050.13
 1030.30        2954.25           2204        1194.00      5202.75
 1030.33        2954.50           2208        1195.00      5207.11
 1030.36        2954.75           2211        1241.00      5407.71
 1030.39        2955.00           2215        1226.00      5342.30
 1030.42        2955.25           2218        1233.00      5372.82
 1030.45        2955.50           2222        1243.00      5416.43
 1030.48        2955.75           2225        1207.00      5259.44
 1030.51        2956.00           2229        1218.00      5307.41
 1030.54        2956.25           2232        1227.00      5346.66
 1030.57        2956.50           2236        1265.00      5512.37
 1030.60        2956.75           2239        1280.00      5577.78
 1030.63        2957.00           2243        1272.00      5542.89
 1030.66        2957.25           2246        1294.00      5638.83
 1030.69        2957.50           2250        1301.00      5669.36
 1030.72        2957.75           2254        1296.00      5647.55
 1030.75        2958.00           2257        1313.00      5721.69
 1030.78        2958.25           2261        1386.00      6040.04
 1030.82        2958.50           2264        1353.00      5896.13
 1030.85        2958.75           2268        1315.00      5730.41
 1030.88        2959.00           2271        1333.00      5808.91
 1030.91        2959.25           2275        1383.00      6026.95
 1030.94        2959.50           2278        1395.00      6079.29
 1030.97        2959.75           2282        1424.00      6205.76
 1031.00        2960.00           2285        1415.00      6166.51
 1031.03        2960.25           2289        1451.00      6323.50
 1031.06        2960.50           2293        1464.00      6380.20
 1031.09        2960.75           2296        1446.00      6301.70
 1031.12        2961.00           2300        1588.00      6920.98
 1031.15        2961.25           2303        1757.00      7658.05
 1031.18        2961.50           2307        3730.00     16265.75
 1031.21        2961.75           2310        8663.00     37809.26
 1031.24        2962.00           2314       20537.00     89795.54
 1031.27        2962.25           2317       33114.00    145061.10
 1031.30        2962.50           2321       50732.00    222829.60
 1031.34        2962.75           2324       65501.00    288341.80
 1031.37        2963.00           2328       84608.00    373533.90
 1031.40        2963.25           2331       97906.00    433120.00
 1031.43        2963.50           2335      114797.00    509158.20
 1031.46        2963.75           2339      134084.00    596470.30
 1031.49        2964.00           2342      149205.00    665291.00
 1031.52        2964.25           2346      169304.00    757275.60
 1031.55        2964.50           2349      182658.00    818715.00
 1031.58        2964.75           2353      199962.00    898717.10
 1031.61        2965.00           2356      212577.00    957320.20
 1031.64        2965.25           2360      230644.00   1041667.00
 1031.67        2965.50           2363      242959.00   1099443.00
 1031.70        2965.75           2367      258833.00   1174260.00
 1031.73        2966.00           2370      270310.00   1228596.00
 1031.76        2966.25           2374      287032.00   1308133.00
 1031.79        2966.50           2378      300183.00   1370995.00
 1031.82        2966.75           2381      304582.00   1392084.00
 1031.86        2967.00           2385      307257.00   1404923.00
 1031.89        2967.25           2388      307621.00   1406671.00
 1031.92        2967.50           2392      307991.00   1408448.00
 1031.95        2967.75           2395      307494.00   1406061.00
 1031.98        2968.00           2399      305207.00   1395083.00
 1032.01        2968.25           2402      298859.00   1364654.00
 1032.04        2968.50           2406      285608.00   1301342.00
 1032.07        2968.75           2409      274765.00   1249743.00
 1032.10        2969.00           2413      257603.00   1168449.00
 1032.13        2969.25           2417      239511.00   1083243.00
 1032.16        2969.50           2420      226025.00   1020056.00
 1032.19        2969.75           2424      209475.00    942887.90
 1032.22        2970.00           2427      196444.00    882416.40
 1032.25        2970.25           2431      179081.00    802232.40
 1032.28        2970.50           2434      164665.00    735993.10
 1032.31        2970.75           2438      146787.00    654264.00
 1032.34        2971.00           2441      132390.00    588780.50
 1032.38        2971.25           2445      113389.00    502804.60
 1032.41        2971.50           2449       93279.00    412359.60
 1032.44        2971.75           2452       79287.00    349759.30
 1032.47        2972.00           2456       60628.00    266693.70
 1032.50        2972.25           2459       47374.00    207975.00
 1032.53        2972.50           2463       30935.00    135471.30
 1032.56        2972.75           2466       18863.00     82455.35
 1032.59        2973.00           2470        6064.00     26454.91
 1032.62        2973.25           2473        2706.00     11797.67
 1032.65        2973.50           2477        1713.00      7466.15
 1032.68        2973.75           2481        1547.00      6742.17
 1032.71        2974.00           2484        1535.00      6689.84
 1032.74        2974.25           2488        1450.00      6319.14
 1032.77        2974.50           2491        1462.00      6371.48
 1032.80        2974.75           2495        1409.00      6140.34
 1032.83        2975.00           2498        1420.00      6188.31
 1032.86        2975.25           2502        1380.00      6013.87
 1032.90        2975.50           2505        1366.00      5952.82
 1032.93        2975.75           2509        1345.00      5861.24
 1032.96        2976.00           2512        1350.00      5883.04
 1032.99        2976.25           2516        1323.00      5765.30
 1033.02        2976.50           2520        1318.00      5743.49
 1033.05        2976.75           2523        1307.00      5695.52
 1033.08        2977.00           2527        1266.00      5516.73
 1033.11        2977.25           2530        1278.00      5569.06
 1033.14        2977.50           2534        1263.00      5503.65
 1033.17        2977.75           2537        1253.00      5460.04
 1033.20        2978.00           2541        1215.00      5294.33
 1033.23        2978.25           2544        1246.00      5429.51
 1033.26        2978.50           2548        1206.00      5255.08
 1033.29        2978.75           2552        1218.00      5307.41
 1033.32        2979.00           2555        1202.00      5237.64
 1033.35        2979.25           2559        1171.00      5102.45
 1033.38        2979.50           2562        1205.00      5250.72
 1033.41        2979.75           2566        1131.00      4928.03
 1033.45        2980.00           2569        1183.00      5154.78
 1033.48        2980.25           2573        1144.00      4984.72
 1033.51        2980.50           2577        1124.00      4897.50
 1033.54        2980.75           2580        1156.00      5037.04
 1033.57        2981.00           2584        1193.00      5198.39
 1033.60        2981.25           2587        1145.00      4989.08
 1033.63        2981.50           2591        1104.00      4810.29
 1033.66        2981.75           2594        1115.00      4858.26
 1033.69        2982.00           2598        1101.00      4797.21
 1033.72        2982.25           2601        1085.00      4727.44
 1033.75        2982.50           2605        1117.00      4866.98
 1033.78        2982.75           2609        1126.00      4906.22
 1033.81        2983.00           2612        1090.00      4749.24
 1033.84        2983.25           2616        1060.00      4618.42
 1033.87        2983.50           2619        1079.00      4701.28
 1033.90        2983.75           2623        1080.00      4705.64
 1033.93        2984.00           2626        1052.00      4583.54
HS scan finished at 17:14:09
end
