************************************************************
  HS Scan of 
************************************************************
Integration time is 0.2294 seconds per sample
dh210117Reading 51.44 .94 2.19pr1000
************************************************************
Dead Time -------------------------  3.4E-08 
Number of Cycles Used -------------  4 
Starting Wavelength (Angstroms) ---  2950 
Final Wavelength (Angstoms) -------  2984 
Wavelength Increment (Angstroms) --  .25 
Filter Wheel #1 Position ---------- (1) Ground quartz diffuser (ND=2.32)
Filter Wheel #2 Position ---------- (1) Neutral Density 0.494



************************************************************
HS scan start time = 05:12:24
Dark Count =  .2 


Time (GMT)  Wavelength (Ang)  Step Number  Raw Counts  Counts/Second

  313.29        2950.00           2144         870.00      3792.12
  313.49        2950.25           2147         846.00      3687.47
  313.52        2950.50           2151         864.00      3765.96
  313.55        2950.75           2155         832.00      3626.43
  313.58        2951.00           2158         847.00      3691.83
  313.61        2951.25           2162         853.00      3717.99
  313.64        2951.50           2165         900.00      3922.93
  313.67        2951.75           2169         894.00      3896.77
  313.70        2952.00           2172         869.00      3787.76
  313.73        2952.25           2176         872.00      3800.84
  313.76        2952.50           2179         875.00      3813.92
  313.79        2952.75           2183         892.00      3888.05
  313.82        2953.00           2186         877.00      3822.64
  313.85        2953.25           2190         881.00      3840.08
  313.88        2953.50           2193         885.00      3857.52
  313.91        2953.75           2197         903.00      3936.01
  313.94        2954.00           2200         905.00      3944.73
  313.97        2954.25           2204         915.00      3988.34
  314.01        2954.50           2208         897.00      3909.85
  314.04        2954.75           2211         918.00      4001.42
  314.07        2955.00           2215         891.00      3883.69
  314.10        2955.25           2218         928.00      4045.02
  314.13        2955.50           2222         891.00      3883.69
  314.16        2955.75           2225         892.00      3888.05
  314.19        2956.00           2229         921.00      4014.50
  314.22        2956.25           2232         930.00      4053.74
  314.25        2956.50           2236         930.00      4053.74
  314.28        2956.75           2239         922.00      4018.86
  314.31        2957.00           2243         930.00      4053.74
  314.34        2957.25           2246         952.00      4149.67
  314.37        2957.50           2250         969.00      4223.80
  314.40        2957.75           2254         952.00      4149.67
  314.43        2958.00           2257         937.00      4084.26
  314.46        2958.25           2261         951.00      4145.31
  314.50        2958.50           2264         965.00      4206.36
  314.53        2958.75           2268         969.00      4223.80
  314.56        2959.00           2271         983.00      4284.84
  314.59        2959.25           2275         990.00      4315.37
  314.62        2959.50           2278         991.00      4319.73
  314.65        2959.75           2282        1040.00      4533.39
  314.68        2960.00           2285        1019.00      4441.82
  314.71        2960.25           2289        1010.00      4402.58
  314.74        2960.50           2293        1044.00      4550.84
  314.77        2960.75           2296        1056.00      4603.16
  314.80        2961.00           2300        1109.00      4834.27
  314.83        2961.25           2303        1283.00      5593.04
  314.86        2961.50           2307        3520.00     15351.52
  314.89        2961.75           2310        7898.00     34468.45
  314.92        2962.00           2314       15516.00     67792.53
  314.95        2962.25           2317       22578.00     98752.12
  314.98        2962.50           2321       31683.00    138764.80
  315.02        2962.75           2324       39008.00    171034.40
  315.05        2963.00           2328       49534.00    217530.60
  315.08        2963.25           2331       56856.00    249961.00
  315.11        2963.50           2335       66296.00    291878.80
  315.14        2963.75           2339       76100.00    335540.30
  315.17        2964.00           2342       83510.00    368627.10
  315.20        2964.25           2346       93980.00    415505.20
  315.23        2964.50           2349      101044.00    447218.70
  315.26        2964.75           2353      110609.00    490270.30
  315.29        2965.00           2356      117639.00    521993.30
  315.32        2965.25           2360      126019.00    559898.60
  315.35        2965.50           2363      132978.00    591451.50
  315.38        2965.75           2367      141800.00    631549.90
  315.41        2966.00           2370      148750.00    663217.60
  315.44        2966.25           2374      157077.00    701250.80
  315.47        2966.50           2378      163282.00    729656.50
  315.50        2966.75           2381      164733.00    736307.10
  315.54        2967.00           2385      165446.00    739576.20
  315.57        2967.25           2388      165363.00    739195.60
  315.60        2967.50           2392      165372.00    739237.00
  315.63        2967.75           2395      165080.00    737898.00
  315.66        2968.00           2399      163079.00    728726.30
  315.69        2968.25           2402      158064.00    705765.40
  315.72        2968.50           2406      149619.00    667182.00
  315.75        2968.75           2409      143192.00    637887.10
  315.78        2969.00           2413      134041.00    596277.20
  315.81        2969.25           2417      124914.00    554894.70
  315.84        2969.50           2420      117548.00    521582.30
  315.87        2969.75           2424      108305.00    479888.50
  315.90        2970.00           2427      101120.00    447560.20
  315.93        2970.25           2431       91305.00    403513.90
  315.96        2970.50           2434       84612.00    373554.00
  315.99        2970.75           2438       74050.00    326400.00
  316.02        2971.00           2441       66703.00    293688.70
  316.05        2971.25           2445       56718.00    249349.20
  316.09        2971.50           2449       45729.00    200705.90
  316.12        2971.75           2452       38259.00    167731.50
  316.15        2972.00           2456       28454.00    124562.20
  316.18        2972.25           2459       21706.00     94925.77
  316.21        2972.50           2463       13000.00     56778.21
  316.24        2972.75           2466        7067.00     30837.90
  316.27        2973.00           2470        2353.00     10259.90
  316.30        2973.25           2473        1352.00      5893.95
  316.33        2973.50           2477        1104.00      4812.47
  316.36        2973.75           2481        1100.00      4795.03
  316.39        2974.00           2484        1047.00      4563.92
  316.42        2974.25           2488        1008.00      4393.86
  316.45        2974.50           2491        1012.00      4411.30
  316.48        2974.75           2495        1009.00      4398.22
  316.51        2975.00           2498         963.00      4197.64
  316.54        2975.25           2502         980.00      4271.76
  316.57        2975.50           2505         964.00      4202.00
  316.61        2975.75           2509         960.00      4184.55
  316.64        2976.00           2512         959.00      4180.19
  316.67        2976.25           2516         946.00      4123.51
  316.70        2976.50           2520         927.00      4040.66
  316.73        2976.75           2523         922.00      4018.86
  316.76        2977.00           2527         924.00      4027.58
  316.79        2977.25           2530         922.00      4018.86
  316.82        2977.50           2534         909.00      3962.17
  316.85        2977.75           2537         911.00      3970.89
  316.89        2978.00           2541         929.00      4049.38
  316.92        2978.25           2544         884.00      3853.16
  316.95        2978.50           2548         896.00      3905.49
  316.98        2978.75           2552         860.00      3748.52
  317.01        2979.00           2555         851.00      3709.27
  317.04        2979.25           2559         869.00      3787.76
  317.07        2979.50           2562         874.00      3809.56
  317.11        2979.75           2566         858.00      3739.80
  317.14        2980.00           2569         879.00      3831.36
  317.17        2980.25           2573         908.00      3957.81
  317.20        2980.50           2577         843.00      3674.39
  317.23        2980.75           2580         834.00      3635.15
  317.26        2981.00           2584         830.00      3617.71
  317.29        2981.25           2587         819.00      3569.74
  317.32        2981.50           2591         830.00      3617.71
  317.35        2981.75           2594         839.00      3656.95
  317.38        2982.00           2598         832.00      3626.43
  317.41        2982.25           2601         825.00      3595.91
  317.44        2982.50           2605         799.00      3482.54
  317.47        2982.75           2609         832.00      3626.43
  317.50        2983.00           2612         817.00      3561.02
  317.53        2983.25           2616         789.00      3438.94
  317.56        2983.50           2619         832.00      3626.43
  317.59        2983.75           2623         792.00      3452.02
  317.63        2984.00           2626         800.00      3486.90
HS scan finished at 05:17:51
end
************************************************************
  HS Scan of 
************************************************************
Integration time is 0.2294 seconds per sample
dh210117Reading 51.44 .94 2.47pr1000
************************************************************
Dead Time -------------------------  3.4E-08 
Number of Cycles Used -------------  4 
Starting Wavelength (Angstroms) ---  2950 
Final Wavelength (Angstoms) -------  2984 
Wavelength Increment (Angstroms) --  .25 
Filter Wheel #1 Position ---------- (1) Ground quartz diffuser (ND=2.32)
Filter Wheel #2 Position ---------- (1) Neutral Density 0.494



************************************************************
HS scan start time = 17:37:20
Dark Count =  .3 


Time (GMT)  Wavelength (Ang)  Step Number  Raw Counts  Counts/Second

 1058.23        2950.00           2144         749.00      3264.09
 1058.42        2950.25           2147         696.00      3033.01
 1058.45        2950.50           2151         657.00      2862.96
 1058.49        2950.75           2155         676.00      2945.81
 1058.52        2951.00           2158         726.00      3163.81
 1058.55        2951.25           2162         696.00      3033.01
 1058.58        2951.50           2165         703.00      3063.53
 1058.61        2951.75           2169         698.00      3041.73
 1058.64        2952.00           2172         702.00      3059.17
 1058.67        2952.25           2176         686.00      2989.41
 1058.70        2952.50           2179         701.00      3054.81
 1058.73        2952.75           2183         715.00      3115.85
 1058.76        2953.00           2186         683.00      2976.33
 1058.79        2953.25           2190         711.00      3098.41
 1058.82        2953.50           2193         683.00      2976.33
 1058.85        2953.75           2197         697.00      3037.37
 1058.88        2954.00           2200         696.00      3033.01
 1058.91        2954.25           2204         695.00      3028.65
 1058.94        2954.50           2208         691.00      3011.21
 1058.97        2954.75           2211         697.00      3037.37
 1059.01        2955.00           2215         704.00      3067.89
 1059.04        2955.25           2218         684.00      2980.69
 1059.07        2955.50           2222         717.00      3124.57
 1059.10        2955.75           2225         702.00      3059.17
 1059.13        2956.00           2229         694.00      3024.29
 1059.16        2956.25           2232         703.00      3063.53
 1059.19        2956.50           2236         717.00      3124.57
 1059.22        2956.75           2239         726.00      3163.81
 1059.25        2957.00           2243         750.00      3268.45
 1059.28        2957.25           2246         720.00      3137.65
 1059.31        2957.50           2250         751.00      3272.81
 1059.34        2957.75           2254         769.00      3351.30
 1059.37        2958.00           2257         718.00      3128.93
 1059.40        2958.25           2261         737.00      3211.77
 1059.43        2958.50           2264         751.00      3272.81
 1059.46        2958.75           2268         755.00      3290.25
 1059.49        2959.00           2271         743.00      3237.93
 1059.53        2959.25           2275         778.00      3390.54
 1059.56        2959.50           2278         752.00      3277.17
 1059.59        2959.75           2282         766.00      3338.22
 1059.62        2960.00           2285         792.00      3451.58
 1059.65        2960.25           2289         772.00      3364.38
 1059.68        2960.50           2293         794.00      3460.30
 1059.71        2960.75           2296         816.00      3556.23
 1059.74        2961.00           2300         853.00      3717.56
 1059.77        2961.25           2303         946.00      4123.07
 1059.80        2961.50           2307        2442.00     10647.71
 1059.83        2961.75           2310        5422.00     23653.28
 1059.86        2962.00           2314       10938.00     47757.08
 1059.89        2962.25           2317       15809.00     69075.29
 1059.92        2962.50           2321       22868.00    100024.40
 1059.95        2962.75           2324       27677.00    121146.20
 1059.98        2963.00           2328       33612.00    147255.50
 1060.01        2963.25           2331       38493.00    168762.90
 1060.04        2963.50           2335       45534.00    199843.70
 1060.08        2963.75           2339       53329.00    234329.90
 1060.11        2964.00           2342       58629.00    257824.30
 1060.14        2964.25           2346       65431.00    288032.40
 1060.17        2964.50           2349       70004.00    308376.40
 1060.20        2964.75           2353       76994.00    339527.80
 1060.23        2965.00           2356       81991.00    361838.00
 1060.26        2965.25           2360       88332.00    390197.90
 1060.29        2965.50           2363       93284.00    412383.90
 1060.32        2965.75           2367      100070.00    442841.40
 1060.35        2966.00           2370      104658.00    463469.70
 1060.38        2966.25           2374      110708.00    490716.20
 1060.41        2966.50           2378      113968.00    505418.90
 1060.44        2966.75           2381      115354.00    511674.20
 1060.47        2967.00           2385      115609.00    512825.40
 1060.50        2967.25           2388      115774.00    513570.30
 1060.53        2967.50           2392      115725.00    513349.10
 1060.57        2967.75           2395      115551.00    512563.60
 1060.60        2968.00           2399      113640.00    503938.90
 1060.63        2968.25           2402      110625.00    490342.10
 1060.66        2968.50           2406      105021.00    465103.20
 1060.69        2968.75           2409      100379.00    444229.80
 1060.72        2969.00           2413       93531.00    413491.30
 1060.75        2969.25           2417       86903.00    383801.90
 1060.78        2969.50           2420       82682.00    364925.80
 1060.81        2969.75           2424       75948.00    334862.00
 1060.84        2970.00           2427       70760.00    311742.40
 1060.87        2970.25           2431       63508.00    279485.90
 1060.90        2970.50           2434       58649.00    257913.10
 1060.93        2970.75           2438       51923.00    228103.60
 1060.96        2971.00           2441       46713.00    205054.50
 1060.99        2971.25           2445       39926.00    175083.20
 1061.02        2971.50           2449       32896.00    144103.20
 1061.05        2971.75           2452       28060.00    122829.70
 1061.08        2972.00           2456       22074.00     96539.99
 1061.12        2972.25           2459       17463.00     76321.16
 1061.15        2972.50           2463       10982.00     47949.52
 1061.18        2972.75           2466        5830.00     25434.80
 1061.21        2973.00           2470        1740.00      7585.65
 1061.24        2973.25           2473         985.00      4293.13
 1061.27        2973.50           2477         836.00      3643.43
 1061.30        2973.75           2481         795.00      3464.66
 1061.33        2974.00           2484         810.00      3530.07
 1061.36        2974.25           2488         775.00      3377.46
 1061.39        2974.50           2491         782.00      3407.98
 1061.42        2974.75           2495         755.00      3290.25
 1061.45        2975.00           2498         754.00      3285.89
 1061.48        2975.25           2502         733.00      3194.33
 1061.51        2975.50           2505         712.00      3102.77
 1061.54        2975.75           2509         738.00      3216.13
 1061.57        2976.00           2512         726.00      3163.81
 1061.60        2976.25           2516         721.00      3142.01
 1061.64        2976.50           2520         725.00      3159.45
 1061.67        2976.75           2523         710.00      3094.05
 1061.70        2977.00           2527         690.00      3006.85
 1061.73        2977.25           2530         707.00      3080.97
 1061.76        2977.50           2534         718.00      3128.93
 1061.79        2977.75           2537         685.00      2985.05
 1061.82        2978.00           2541         679.00      2958.89
 1061.85        2978.25           2544         676.00      2945.81
 1061.88        2978.50           2548         683.00      2976.33
 1061.91        2978.75           2552         684.00      2980.69
 1061.94        2979.00           2555         667.00      2906.56
 1061.97        2979.25           2559         651.00      2836.80
 1062.00        2979.50           2562         660.00      2876.04
 1062.03        2979.75           2566         651.00      2836.80
 1062.06        2980.00           2569         669.00      2915.29
 1062.09        2980.25           2573         640.00      2788.84
 1062.12        2980.50           2577         642.00      2797.56
 1062.16        2980.75           2580         640.00      2788.84
 1062.19        2981.00           2584         648.00      2823.72
 1062.22        2981.25           2587         660.00      2876.04
 1062.25        2981.50           2591         616.00      2684.20
 1062.28        2981.75           2594         643.00      2801.92
 1062.31        2982.00           2598         634.00      2762.68
 1062.34        2982.25           2601         634.00      2762.68
 1062.37        2982.50           2605         647.00      2819.36
 1062.40        2982.75           2609         622.00      2710.36
 1062.43        2983.00           2612         597.00      2601.36
 1062.46        2983.25           2616         649.00      2828.08
 1062.49        2983.50           2619         601.00      2618.80
 1062.52        2983.75           2623         603.00      2627.52
 1062.55        2984.00           2626         629.00      2740.88
HS scan finished at 17:42:47
end
