************************************************************
  HS Scan of 
************************************************************
Integration time is 0.2294 seconds per sample
dh280117Reading 51.44 .94 2.74pr1000
************************************************************
Dead Time -------------------------  3.4E-08 
Number of Cycles Used -------------  4 
Starting Wavelength (Angstroms) ---  2950 
Final Wavelength (Angstoms) -------  2984 
Wavelength Increment (Angstroms) --  .25 
Filter Wheel #1 Position ---------- (1) Ground quartz diffuser (ND=2.32)
Filter Wheel #2 Position ---------- (1) Neutral Density 0.494



************************************************************
HS scan start time = 05:02:40
Dark Count =  .5 


Time (GMT)  Wavelength (Ang)  Step Number  Raw Counts  Counts/Second

  303.57        2950.00           2144         775.00      3376.59
  303.76        2950.25           2147         791.00      3446.35
  303.79        2950.50           2151         802.00      3494.31
  303.82        2950.75           2155         803.00      3498.67
  303.85        2951.00           2158         787.00      3428.91
  303.88        2951.25           2162         803.00      3498.67
  303.91        2951.50           2165         810.00      3529.19
  303.94        2951.75           2169         805.00      3507.39
  303.97        2952.00           2172         782.00      3407.11
  304.00        2952.25           2176         812.00      3537.91
  304.03        2952.50           2179         830.00      3616.40
  304.07        2952.75           2183         808.00      3520.47
  304.10        2953.00           2186         783.00      3411.47
  304.13        2953.25           2190         806.00      3511.75
  304.16        2953.50           2193         826.00      3598.96
  304.19        2953.75           2197         812.00      3537.91
  304.22        2954.00           2200         833.00      3629.48
  304.25        2954.25           2204         836.00      3642.56
  304.28        2954.50           2208         838.00      3651.28
  304.31        2954.75           2211         826.00      3598.96
  304.34        2955.00           2215         867.00      3777.73
  304.37        2955.25           2218         845.00      3681.80
  304.40        2955.50           2222         828.00      3607.68
  304.43        2955.75           2225         868.00      3782.09
  304.46        2956.00           2229         864.00      3764.65
  304.49        2956.25           2232         866.00      3773.37
  304.52        2956.50           2236         897.00      3908.54
  304.55        2956.75           2239         869.00      3786.45
  304.59        2957.00           2243         869.00      3786.45
  304.62        2957.25           2246         914.00      3982.67
  304.65        2957.50           2250         889.00      3873.66
  304.68        2957.75           2254         892.00      3886.74
  304.71        2958.00           2257         903.00      3934.70
  304.74        2958.25           2261         899.00      3917.26
  304.77        2958.50           2264         914.00      3982.67
  304.80        2958.75           2268         918.00      4000.11
  304.83        2959.00           2271         950.00      4139.64
  304.86        2959.25           2275         967.00      4213.77
  304.89        2959.50           2278         990.00      4314.06
  304.92        2959.75           2282         965.00      4205.05
  304.95        2960.00           2285         979.00      4266.09
  304.98        2960.25           2289        1025.00      4466.68
  305.01        2960.50           2293        1004.00      4375.11
  305.04        2960.75           2296        1043.00      4545.17
  305.07        2961.00           2300        1080.00      4706.51
  305.10        2961.25           2303        1314.00      5726.92
  305.14        2961.50           2307        3797.00     16559.02
  305.17        2961.75           2310        8582.00     37456.13
  305.20        2962.00           2314       17256.00     75413.25
  305.23        2962.25           2317       24995.00    109361.90
  305.26        2962.50           2321       35342.00    154874.00
  305.29        2962.75           2324       43320.00    190062.50
  305.32        2963.00           2328       54393.00    239042.60
  305.35        2963.25           2331       63040.00    277405.80
  305.38        2963.50           2335       75652.00    333541.00
  305.41        2963.75           2339       87024.00    384342.50
  305.44        2964.00           2342       94618.00    418365.30
  305.47        2964.25           2346      105027.00    465129.20
  305.50        2964.50           2349      113650.00    503983.10
  305.53        2964.75           2353      125063.00    555568.00
  305.56        2965.00           2356      133084.00    591931.30
  305.59        2965.25           2360      143440.00    639015.00
  305.63        2965.50           2363      151316.00    674925.80
  305.66        2965.75           2367      160792.00    718249.60
  305.69        2966.00           2370      168398.00    753117.60
  305.72        2966.25           2374      178854.00    801188.00
  305.75        2966.50           2378      187492.00    841020.70
  305.78        2966.75           2381      189988.00    852551.10
  305.81        2967.00           2385      190881.00    856678.60
  305.84        2967.25           2388      191299.00    858610.90
  305.87        2967.50           2392      190812.00    856359.60
  305.90        2967.75           2395      190727.00    855966.70
  305.93        2968.00           2399      189335.00    849533.60
  305.96        2968.25           2402      185272.00    830773.10
  305.99        2968.50           2406      175641.00    786399.50
  306.02        2968.75           2409      167135.00    747321.90
  306.05        2969.00           2413      156115.00    696850.40
  306.08        2969.25           2417      144962.00    645947.60
  306.11        2969.50           2420      137008.00    609753.90
  306.15        2969.75           2424      126930.00    564024.00
  306.18        2970.00           2427      117311.00    520510.40
  306.21        2970.25           2431      105685.00    468090.40
  306.24        2970.50           2434       96966.00    428900.90
  306.27        2970.75           2438       84933.00    374988.20
  306.30        2971.00           2441       75966.00    334941.40
  306.33        2971.25           2445       65490.00    288293.70
  306.36        2971.50           2449       53533.00    235232.60
  306.39        2971.75           2452       44675.00    196047.40
  306.42        2972.00           2456       33519.00    146845.10
  306.45        2972.25           2459       25052.00    109612.20
  306.48        2972.50           2463       14839.00     64826.69
  306.51        2972.75           2466        8107.00     35380.38
  306.54        2973.00           2470        2702.00     11781.09
  306.57        2973.25           2473        1483.00      6463.93
  306.60        2973.50           2477        1102.00      4802.44
  306.63        2973.75           2481        1053.00      4588.77
  306.66        2974.00           2484        1046.00      4558.25
  306.70        2974.25           2488        1018.00      4436.15
  306.73        2974.50           2491         997.00      4344.58
  306.76        2974.75           2495         994.00      4331.50
  306.79        2975.00           2498         985.00      4292.26
  306.82        2975.25           2502         946.00      4122.20
  306.85        2975.50           2505         951.00      4144.00
  306.88        2975.75           2509         930.00      4052.43
  306.91        2976.00           2512         929.00      4048.07
  306.94        2976.25           2516         938.00      4087.32
  306.97        2976.50           2520         889.00      3873.66
  307.00        2976.75           2523         892.00      3886.74
  307.03        2977.00           2527         902.00      3930.34
  307.06        2977.25           2530         889.00      3873.66
  307.09        2977.50           2534         881.00      3838.78
  307.12        2977.75           2537         849.00      3699.24
  307.15        2978.00           2541         885.00      3856.22
  307.18        2978.25           2544         840.00      3660.00
  307.22        2978.50           2548         843.00      3673.08
  307.25        2978.75           2552         846.00      3686.16
  307.28        2979.00           2555         861.00      3751.57
  307.31        2979.25           2559         827.00      3603.32
  307.34        2979.50           2562         829.00      3612.04
  307.37        2979.75           2566         823.00      3585.88
  307.40        2980.00           2569         804.00      3503.03
  307.43        2980.25           2573         790.00      3441.99
  307.46        2980.50           2577         823.00      3585.88
  307.49        2980.75           2580         802.00      3494.31
  307.52        2981.00           2584         803.00      3498.67
  307.55        2981.25           2587         809.00      3524.83
  307.58        2981.50           2591         797.00      3472.51
  307.61        2981.75           2594         802.00      3494.31
  307.64        2982.00           2598         787.00      3428.91
  307.67        2982.25           2601         778.00      3389.67
  307.70        2982.50           2605         777.00      3385.31
  307.74        2982.75           2609         784.00      3415.83
  307.77        2983.00           2612         786.00      3424.55
  307.80        2983.25           2616         757.00      3298.10
  307.83        2983.50           2619         768.00      3346.07
  307.86        2983.75           2623         768.00      3346.07
  307.89        2984.00           2626         777.00      3385.31
HS scan finished at 05:08:07
end
************************************************************
  HS Scan of 
************************************************************
Integration time is 0.2294 seconds per sample
dh280117Reading 51.44 .94 2.82pr1000
************************************************************
Dead Time -------------------------  3.4E-08 
Number of Cycles Used -------------  4 
Starting Wavelength (Angstroms) ---  2950 
Final Wavelength (Angstoms) -------  2984 
Wavelength Increment (Angstroms) --  .25 
Filter Wheel #1 Position ---------- (1) Ground quartz diffuser (ND=2.32)
Filter Wheel #2 Position ---------- (1) Neutral Density 0.494



************************************************************
HS scan start time = 17:37:21
Dark Count =  .7 


Time (GMT)  Wavelength (Ang)  Step Number  Raw Counts  Counts/Second

 1058.25        2950.00           2144         671.00      2922.26
 1058.44        2950.25           2147         673.00      2930.98
 1058.47        2950.50           2151         701.00      3053.06
 1058.50        2950.75           2155         674.00      2935.34
 1058.53        2951.00           2158         681.00      2965.86
 1058.56        2951.25           2162         711.00      3096.66
 1058.59        2951.50           2165         670.00      2917.90
 1058.62        2951.75           2169         692.00      3013.82
 1058.65        2952.00           2172         699.00      3044.34
 1058.68        2952.25           2176         690.00      3005.10
 1058.72        2952.50           2179         713.00      3105.38
 1058.75        2952.75           2183         697.00      3035.62
 1058.78        2953.00           2186         708.00      3083.58
 1058.81        2953.25           2190         678.00      2952.78
 1058.84        2953.50           2193         703.00      3061.78
 1058.87        2953.75           2197         694.00      3022.54
 1058.90        2954.00           2200         706.00      3074.86
 1058.93        2954.25           2204         703.00      3061.78
 1058.96        2954.50           2208         684.00      2978.94
 1058.99        2954.75           2211         714.00      3109.74
 1059.02        2955.00           2215         694.00      3022.54
 1059.05        2955.25           2218         683.00      2974.58
 1059.08        2955.50           2222         723.00      3148.99
 1059.11        2955.75           2225         700.00      3048.70
 1059.14        2956.00           2229         707.00      3079.22
 1059.17        2956.25           2232         707.00      3079.22
 1059.20        2956.50           2236         737.00      3210.03
 1059.24        2956.75           2239         725.00      3157.71
 1059.27        2957.00           2243         757.00      3297.23
 1059.30        2957.25           2246         742.00      3231.83
 1059.33        2957.50           2250         751.00      3271.07
 1059.36        2957.75           2254         745.00      3244.91
 1059.39        2958.00           2257         768.00      3345.19
 1059.42        2958.25           2261         752.00      3275.43
 1059.45        2958.50           2264         799.00      3480.36
 1059.48        2958.75           2268         750.00      3266.71
 1059.51        2959.00           2271         770.00      3353.91
 1059.54        2959.25           2275         796.00      3467.28
 1059.57        2959.50           2278         775.00      3375.71
 1059.60        2959.75           2282         802.00      3493.44
 1059.63        2960.00           2285         826.00      3598.09
 1059.66        2960.25           2289         808.00      3519.60
 1059.69        2960.50           2293         810.00      3528.32
 1059.73        2960.75           2296         815.00      3550.12
 1059.76        2961.00           2300         853.00      3715.81
 1059.79        2961.25           2303         898.00      3912.03
 1059.82        2961.50           2307        1914.00      8342.82
 1059.85        2961.75           2310        5262.00     22952.95
 1059.88        2962.00           2314       11404.00     49793.48
 1059.91        2962.25           2317       16215.00     70851.81
 1059.94        2962.50           2321       23664.00    103516.70
 1059.97        2962.75           2324       29465.00    129005.30
 1060.00        2963.00           2328       38030.00    166719.60
 1060.03        2963.25           2331       44275.00    194279.50
 1060.06        2963.50           2335       52218.00    229408.00
 1060.09        2963.75           2339       60187.00    264736.20
 1060.12        2964.00           2342       66778.00    294020.10
 1060.15        2964.25           2346       75221.00    331618.20
 1060.18        2964.50           2349       81896.00    361411.70
 1060.21        2964.75           2353       90012.00    397719.00
 1060.25        2965.00           2356       95935.00    424272.90
 1060.28        2965.25           2360      103374.00    457691.90
 1060.31        2965.50           2363      109466.00    485116.80
 1060.34        2965.75           2367      116550.00    517072.50
 1060.37        2966.00           2370      121612.00    539949.90
 1060.40        2966.25           2374      128856.00    572751.40
 1060.43        2966.50           2378      135014.00    600693.60
 1060.46        2966.75           2381      136865.00    609103.10
 1060.49        2967.00           2385      137561.00    612266.40
 1060.52        2967.25           2388      137632.00    612589.10
 1060.55        2967.50           2392      137349.00    611302.80
 1060.58        2967.75           2395      137466.00    611834.60
 1060.61        2968.00           2399      135831.00    604404.80
 1060.64        2968.25           2402      131339.00    584011.60
 1060.67        2968.50           2406      124665.00    553765.10
 1060.70        2968.75           2409      119281.00    529410.60
 1060.73        2969.00           2413      112480.00    498704.20
 1060.77        2969.25           2417      104660.00    463476.90
 1060.80        2969.50           2420       99408.00    439865.60
 1060.83        2969.75           2424       91202.00    403050.10
 1060.86        2970.00           2427       84862.00    374669.80
 1060.89        2970.25           2431       76653.00    338004.70
 1060.92        2970.50           2434       70410.00    310182.10
 1060.95        2970.75           2438       62413.00    274619.80
 1060.98        2971.00           2441       56858.00    249967.70
 1061.01        2971.25           2445       49434.00    217086.00
 1061.04        2971.50           2449       41804.00    183368.50
 1061.07        2971.75           2452       35119.00    153890.70
 1061.10        2972.00           2456       26512.00    116024.80
 1061.13        2972.25           2459       20510.00     89677.11
 1061.16        2972.50           2463       13268.00     57948.85
 1061.19        2972.75           2466        8213.00     35842.70
 1061.22        2973.00           2470        3036.00     13237.43
 1061.25        2973.25           2473        1470.00      6406.36
 1061.28        2973.50           2477         907.00      3951.27
 1061.32        2973.75           2481         844.00      3676.57
 1061.35        2974.00           2484         851.00      3707.09
 1061.38        2974.25           2488         797.00      3471.64
 1061.41        2974.50           2491         805.00      3506.52
 1061.44        2974.75           2495         795.00      3462.92
 1061.47        2975.00           2498         792.00      3449.84
 1061.50        2975.25           2502         777.00      3384.43
 1061.53        2975.50           2505         750.00      3266.71
 1061.56        2975.75           2509         744.00      3240.55
 1061.59        2976.00           2512         773.00      3366.99
 1061.62        2976.25           2516         760.00      3310.31
 1061.65        2976.50           2520         777.00      3384.43
 1061.68        2976.75           2523         741.00      3227.47
 1061.71        2977.00           2527         744.00      3240.55
 1061.74        2977.25           2530         719.00      3131.55
 1061.77        2977.50           2534         716.00      3118.46
 1061.80        2977.75           2537         715.00      3114.10
 1061.84        2978.00           2541         669.00      2913.54
 1061.87        2978.25           2544         671.00      2922.26
 1061.90        2978.50           2548         695.00      3026.90
 1061.93        2978.75           2552         693.00      3018.18
 1061.96        2979.00           2555         673.00      2930.98
 1061.99        2979.25           2559         678.00      2952.78
 1062.02        2979.50           2562         681.00      2965.86
 1062.05        2979.75           2566         678.00      2952.78
 1062.08        2980.00           2569         696.00      3031.26
 1062.11        2980.25           2573         679.00      2957.14
 1062.14        2980.50           2577         671.00      2922.26
 1062.17        2980.75           2580         679.00      2957.14
 1062.20        2981.00           2584         670.00      2917.90
 1062.23        2981.25           2587         658.00      2865.58
 1062.26        2981.50           2591         647.00      2817.62
 1062.29        2981.75           2594         660.00      2874.30
 1062.32        2982.00           2598         663.00      2887.38
 1062.36        2982.25           2601         648.00      2821.98
 1062.39        2982.50           2605         639.00      2782.74
 1062.42        2982.75           2609         643.00      2800.18
 1062.45        2983.00           2612         664.00      2891.74
 1062.48        2983.25           2616         659.00      2869.94
 1062.51        2983.50           2619         647.00      2817.62
 1062.54        2983.75           2623         650.00      2830.70
 1062.57        2984.00           2626         602.00      2621.42
HS scan finished at 17:42:47
end
