************************************************************
  HS Scan of 
************************************************************
Integration time is 0.2294 seconds per sample
dh250117Reading 51.44 .94 2.43pr1000
************************************************************
Dead Time -------------------------  3.4E-08 
Number of Cycles Used -------------  4 
Starting Wavelength (Angstroms) ---  2950 
Final Wavelength (Angstoms) -------  2984 
Wavelength Increment (Angstroms) --  .25 
Filter Wheel #1 Position ---------- (1) Ground quartz diffuser (ND=2.32)
Filter Wheel #2 Position ---------- (1) Neutral Density 0.494



************************************************************
HS scan start time = 05:08:49
Dark Count =  .2 


Time (GMT)  Wavelength (Ang)  Step Number  Raw Counts  Counts/Second

  309.71        2950.00           2144         837.00      3648.23
  309.90        2950.25           2147         847.00      3691.83
  309.93        2950.50           2151         861.00      3752.88
  309.96        2950.75           2155         896.00      3905.49
  309.99        2951.00           2158         888.00      3870.61
  310.02        2951.25           2162         862.00      3757.24
  310.06        2951.50           2165         904.00      3940.37
  310.09        2951.75           2169         859.00      3744.16
  310.12        2952.00           2172         869.00      3787.76
  310.15        2952.25           2176         877.00      3822.64
  310.18        2952.50           2179         890.00      3879.33
  310.21        2952.75           2183         878.00      3827.00
  310.24        2953.00           2186         882.00      3844.44
  310.28        2953.25           2190         883.00      3848.80
  310.32        2953.50           2193         886.00      3861.88
  310.35        2953.75           2197         916.00      3992.70
  310.38        2954.00           2200         896.00      3905.49
  310.41        2954.25           2204         919.00      4005.78
  310.44        2954.50           2208         922.00      4018.86
  310.47        2954.75           2211         897.00      3909.85
  310.50        2955.00           2215         904.00      3940.37
  310.53        2955.25           2218         946.00      4123.51
  310.56        2955.50           2222         930.00      4053.74
  310.59        2955.75           2225         904.00      3940.37
  310.62        2956.00           2229         923.00      4023.22
  310.65        2956.25           2232         911.00      3970.89
  310.68        2956.50           2236         913.00      3979.61
  310.71        2956.75           2239         927.00      4040.66
  310.74        2957.00           2243         945.00      4119.15
  310.77        2957.25           2246         918.00      4001.42
  310.80        2957.50           2250         959.00      4180.19
  310.84        2957.75           2254         985.00      4293.57
  310.87        2958.00           2257         957.00      4171.47
  310.90        2958.25           2261         979.00      4267.40
  310.93        2958.50           2264         961.00      4188.91
  310.96        2958.75           2268         988.00      4306.65
  310.99        2959.00           2271         998.00      4350.25
  311.02        2959.25           2275        1048.00      4568.28
  311.05        2959.50           2278        1016.00      4428.74
  311.08        2959.75           2282        1064.00      4638.05
  311.11        2960.00           2285        1031.00      4494.15
  311.14        2960.25           2289        1079.00      4703.46
  311.17        2960.50           2293        1052.00      4585.72
  311.20        2960.75           2296        1127.00      4912.76
  311.23        2961.00           2300        1152.00      5021.78
  311.26        2961.25           2303        1380.00      6016.05
  311.29        2961.50           2307        4511.00     19676.63
  311.32        2961.75           2310       10031.00     43791.40
  311.36        2962.00           2314       18221.00     79643.46
  311.39        2962.25           2317       25772.00    112776.00
  311.42        2962.50           2321       36921.00    161833.10
  311.45        2962.75           2324       45480.00    199605.50
  311.48        2963.00           2328       57802.00    254156.30
  311.51        2963.25           2331       66048.00    290776.00
  311.54        2963.50           2335       77713.00    342736.20
  311.57        2963.75           2339       89223.00    394187.70
  311.60        2964.00           2342       98125.00    434105.60
  311.63        2964.25           2346      109851.00    486854.00
  311.66        2964.50           2349      117879.00    523077.60
  311.69        2964.75           2353      129267.00    574616.90
  311.72        2965.00           2356      138260.00    615446.30
  311.75        2965.25           2360      148854.00    663692.00
  311.78        2965.50           2363      156730.00    699663.80
  311.81        2965.75           2367      166910.00    746291.00
  311.84        2966.00           2370      173701.00    777479.10
  311.88        2966.25           2374      183309.00    821719.20
  311.91        2966.50           2378      189796.00    851665.20
  311.94        2966.75           2381      190939.00    856948.00
  311.97        2967.00           2385      191698.00    860457.10
  312.00        2967.25           2388      191670.00    860327.60
  312.03        2967.50           2392      191564.00    859837.50
  312.06        2967.75           2395      191186.00    858089.90
  312.09        2968.00           2399      185969.00    833991.10
  312.12        2968.25           2402      178964.00    801695.90
  312.15        2968.50           2406      170111.00    760983.30
  312.18        2968.75           2409      162620.00    726623.30
  312.21        2969.00           2413      151455.00    675561.60
  312.24        2969.25           2417      140822.00    627099.20
  312.27        2969.50           2420      133249.00    592681.60
  312.30        2969.75           2424      122415.00    543584.50
  312.33        2970.00           2427      113707.00    504241.60
  312.36        2970.25           2431      101764.00    450454.90
  312.40        2970.50           2434       93754.00    414491.70
  312.43        2970.75           2438       82579.00    364465.90
  312.46        2971.00           2441       74675.00    329186.00
  312.49        2971.25           2445       64355.00    283250.10
  312.52        2971.50           2449       52605.00    231123.90
  312.55        2971.75           2452       43809.00    192223.40
  312.58        2972.00           2456       32053.00    140393.10
  312.61        2972.25           2459       24566.00    107479.20
  312.64        2972.50           2463       14953.00     65327.16
  312.67        2972.75           2466        8307.00     36255.65
  312.70        2973.00           2470        2755.00     12013.63
  312.73        2973.25           2473        1482.00      6460.88
  312.77        2973.50           2477        1163.00      5069.75
  312.80        2973.75           2481        1140.00      4969.45
  312.83        2974.00           2484        1085.00      4729.62
  312.86        2974.25           2488        1080.00      4707.82
  312.90        2974.50           2491        1065.00      4642.41
  312.93        2974.75           2495        1057.00      4607.52
  312.96        2975.00           2498        1062.00      4629.33
  312.99        2975.25           2502        1011.00      4406.94
  313.02        2975.50           2505         969.00      4223.80
  313.05        2975.75           2509         987.00      4302.29
  313.08        2976.00           2512         986.00      4297.93
  313.11        2976.25           2516         987.00      4302.29
  313.14        2976.50           2520         952.00      4149.67
  313.17        2976.75           2523         956.00      4167.11
  313.20        2977.00           2527         925.00      4031.94
  313.23        2977.25           2530         939.00      4092.98
  313.26        2977.50           2534         891.00      3883.69
  313.29        2977.75           2537         923.00      4023.22
  313.32        2978.00           2541         923.00      4023.22
  313.35        2978.25           2544         910.00      3966.53
  313.38        2978.50           2548         903.00      3936.01
  313.42        2978.75           2552         933.00      4066.82
  313.45        2979.00           2555         893.00      3892.41
  313.48        2979.25           2559         906.00      3949.09
  313.51        2979.50           2562         881.00      3840.08
  313.54        2979.75           2566         876.00      3818.28
  313.57        2980.00           2569         878.00      3827.00
  313.60        2980.25           2573         874.00      3809.56
  313.63        2980.50           2577         871.00      3796.48
  313.66        2980.75           2580         831.00      3622.07
  313.69        2981.00           2584         840.00      3661.31
  313.72        2981.25           2587         852.00      3713.63
  313.75        2981.50           2591         837.00      3648.23
  313.78        2981.75           2594         839.00      3656.95
  313.81        2982.00           2598         830.00      3617.71
  313.84        2982.25           2601         842.00      3670.03
  313.87        2982.50           2605         822.00      3582.83
  313.90        2982.75           2609         842.00      3670.03
  313.93        2983.00           2612         829.00      3613.35
  313.97        2983.25           2616         823.00      3587.19
  314.00        2983.50           2619         828.00      3608.99
  314.03        2983.75           2623         836.00      3643.87
  314.06        2984.00           2626         812.00      3539.22
HS scan finished at 05:14:17
end
************************************************************
  HS Scan of 
************************************************************
Integration time is 0.2294 seconds per sample
dh250117Reading 51.44 .94 2.78pr1000
************************************************************
Dead Time -------------------------  3.4E-08 
Number of Cycles Used -------------  4 
Starting Wavelength (Angstroms) ---  2950 
Final Wavelength (Angstoms) -------  2984 
Wavelength Increment (Angstroms) --  .25 
Filter Wheel #1 Position ---------- (1) Ground quartz diffuser (ND=2.32)
Filter Wheel #2 Position ---------- (1) Neutral Density 0.494



************************************************************
HS scan start time = 17:37:23
Dark Count =  .8 


Time (GMT)  Wavelength (Ang)  Step Number  Raw Counts  Counts/Second

 1058.29        2950.00           2144         667.00      2904.38
 1058.48        2950.25           2147         688.00      2995.95
 1058.51        2950.50           2151         709.00      3087.51
 1058.54        2950.75           2155         692.00      3013.39
 1058.57        2951.00           2158         705.00      3070.07
 1058.60        2951.25           2162         696.00      3030.83
 1058.63        2951.50           2165         734.00      3196.51
 1058.66        2951.75           2169         698.00      3039.55
 1058.69        2952.00           2172         694.00      3022.11
 1058.72        2952.25           2176         703.00      3061.35
 1058.76        2952.50           2179         687.00      2991.59
 1058.79        2952.75           2183         675.00      2939.27
 1058.82        2953.00           2186         694.00      3022.11
 1058.85        2953.25           2190         705.00      3070.07
 1058.88        2953.50           2193         709.00      3087.51
 1058.91        2953.75           2197         700.00      3048.27
 1058.94        2954.00           2200         716.00      3118.03
 1058.97        2954.25           2204         740.00      3222.67
 1059.00        2954.50           2208         727.00      3165.99
 1059.03        2954.75           2211         769.00      3349.12
 1059.06        2955.00           2215         720.00      3135.47
 1059.09        2955.25           2218         709.00      3087.51
 1059.12        2955.50           2222         706.00      3074.43
 1059.15        2955.75           2225         707.00      3078.79
 1059.18        2956.00           2229         714.00      3109.31
 1059.21        2956.25           2232         725.00      3157.27
 1059.25        2956.50           2236         721.00      3139.83
 1059.28        2956.75           2239         733.00      3192.15
 1059.31        2957.00           2243         784.00      3414.52
 1059.34        2957.25           2246         754.00      3283.71
 1059.37        2957.50           2250         763.00      3322.96
 1059.40        2957.75           2254         758.00      3301.16
 1059.43        2958.00           2257         733.00      3192.15
 1059.46        2958.25           2261         782.00      3405.80
 1059.49        2958.50           2264         783.00      3410.16
 1059.52        2958.75           2268         780.00      3397.08
 1059.55        2959.00           2271         742.00      3231.39
 1059.58        2959.25           2275         800.00      3484.28
 1059.61        2959.50           2278         785.00      3418.88
 1059.64        2959.75           2282         799.00      3479.92
 1059.67        2960.00           2285         821.00      3575.85
 1059.70        2960.25           2289         818.00      3562.77
 1059.73        2960.50           2293         819.00      3567.13
 1059.77        2960.75           2296         846.00      3684.86
 1059.80        2961.00           2300         836.00      3641.25
 1059.83        2961.25           2303         935.00      4072.93
 1059.86        2961.50           2307        2002.00      8726.22
 1059.89        2961.75           2310        5071.00     22118.63
 1059.92        2962.00           2314       11504.00     50230.44
 1059.95        2962.25           2317       16652.00     72765.68
 1059.98        2962.50           2321       23865.00    104398.70
 1060.01        2962.75           2324       29620.00    129686.50
 1060.04        2963.00           2328       37784.00    165634.60
 1060.07        2963.25           2331       43601.00    191302.20
 1060.10        2963.50           2335       52248.00    229540.40
 1060.13        2963.75           2339       60076.00    264243.10
 1060.16        2964.00           2342       65620.00    288870.40
 1060.19        2964.25           2346       72980.00    321628.80
 1060.22        2964.50           2349       79254.00    349611.60
 1060.25        2964.75           2353       87559.00    386735.40
 1060.28        2965.00           2356       93685.00    414179.70
 1060.32        2965.25           2360      100969.00    446879.00
 1060.35        2965.50           2363      106226.00    470524.20
 1060.38        2965.75           2367      112792.00    500111.10
 1060.41        2966.00           2370      118722.00    526883.80
 1060.44        2966.25           2374      126550.00    562301.10
 1060.47        2966.50           2378      132895.00    591072.10
 1060.50        2966.75           2381      134795.00    599698.50
 1060.53        2967.00           2385      135220.00    601628.80
 1060.56        2967.25           2388      135487.00    602841.60
 1060.59        2967.50           2392      135160.00    601356.30
 1060.62        2967.75           2395      134997.00    600616.00
 1060.65        2968.00           2399      134496.00    598340.60
 1060.68        2968.25           2402      131871.00    586424.90
 1060.71        2968.50           2406      125467.00    557396.00
 1060.74        2968.75           2409      119558.00    530662.10
 1060.77        2969.00           2413      111821.00    495731.90
 1060.80        2969.25           2417      104906.00    464583.40
 1060.84        2969.50           2420       99371.00    439698.90
 1060.87        2969.75           2424       91545.00    404586.70
 1060.90        2970.00           2427       84864.00    374678.30
 1060.93        2970.25           2431       76101.00    335542.10
 1060.96        2970.50           2434       70048.00    308570.00
 1060.99        2970.75           2438       61614.00    271071.00
 1061.02        2971.00           2441       55660.00    244656.20
 1061.05        2971.25           2445       47811.00    209906.90
 1061.08        2971.50           2449       39857.00    174776.60
 1061.11        2971.75           2452       32930.00    144250.70
 1061.14        2972.00           2456       25255.00    110502.50
 1061.17        2972.25           2459       19361.00     84638.16
 1061.20        2972.50           2463       12146.00     53038.89
 1061.23        2972.75           2466        6907.00     30136.36
 1061.26        2973.00           2470        2480.00     10811.30
 1061.29        2973.25           2473        1305.00      5686.36
 1061.32        2973.50           2477         905.00      3942.12
 1061.36        2973.75           2481         864.00      3763.34
 1061.39        2974.00           2484         820.00      3571.49
 1061.42        2974.25           2488         824.00      3588.93
 1061.45        2974.50           2491         810.00      3527.89
 1061.48        2974.75           2495         803.00      3497.36
 1061.51        2975.00           2498         790.00      3440.68
 1061.54        2975.25           2502         772.00      3362.20
 1061.57        2975.50           2505         777.00      3384.00
 1061.60        2975.75           2509         762.00      3318.60
 1061.63        2976.00           2512         751.00      3270.63
 1061.66        2976.25           2516         762.00      3318.60
 1061.69        2976.50           2520         763.00      3322.96
 1061.72        2976.75           2523         740.00      3222.67
 1061.75        2977.00           2527         724.00      3152.91
 1061.78        2977.25           2530         731.00      3183.43
 1061.81        2977.50           2534         707.00      3078.79
 1061.84        2977.75           2537         716.00      3118.03
 1061.88        2978.00           2541         721.00      3139.83
 1061.91        2978.25           2544         733.00      3192.15
 1061.94        2978.50           2548         698.00      3039.55
 1061.97        2978.75           2552         702.00      3056.99
 1062.00        2979.00           2555         701.00      3052.63
 1062.03        2979.25           2559         670.00      2917.46
 1062.06        2979.50           2562         683.00      2974.15
 1062.09        2979.75           2566         693.00      3017.75
 1062.12        2980.00           2569         672.00      2926.19
 1062.15        2980.25           2573         678.00      2952.35
 1062.18        2980.50           2577         685.00      2982.87
 1062.21        2980.75           2580         670.00      2917.46
 1062.24        2981.00           2584         678.00      2952.35
 1062.27        2981.25           2587         665.00      2895.66
 1062.30        2981.50           2591         656.00      2856.42
 1062.33        2981.75           2594         666.00      2900.02
 1062.36        2982.00           2598         644.00      2804.10
 1062.40        2982.25           2601         647.00      2817.18
 1062.43        2982.50           2605         644.00      2804.10
 1062.46        2982.75           2609         644.00      2804.10
 1062.49        2983.00           2612         650.00      2830.26
 1062.52        2983.25           2616         651.00      2834.62
 1062.55        2983.50           2619         652.00      2838.98
 1062.58        2983.75           2623         622.00      2708.18
 1062.61        2984.00           2626         666.00      2900.02
HS scan finished at 17:42:50
end
