************************************************************
  HS Scan of 
************************************************************
Integration time is 0.2294 seconds per sample
dh200117Reading 51.44 .94 2.33pr1000
************************************************************
Dead Time -------------------------  3.4E-08 
Number of Cycles Used -------------  4 
Starting Wavelength (Angstroms) ---  2950 
Final Wavelength (Angstoms) -------  2984 
Wavelength Increment (Angstroms) --  .25 
Filter Wheel #1 Position ---------- (1) Ground quartz diffuser (ND=2.32)
Filter Wheel #2 Position ---------- (1) Neutral Density 0.494



************************************************************
HS scan start time = 05:13:08
Dark Count =  .2 


Time (GMT)  Wavelength (Ang)  Step Number  Raw Counts  Counts/Second

  314.03        2950.00           2144         840.00      3661.31
  314.22        2950.25           2147         868.00      3783.40
  314.25        2950.50           2151         849.00      3700.55
  314.28        2950.75           2155         868.00      3783.40
  314.31        2951.00           2158         853.00      3717.99
  314.34        2951.25           2162         898.00      3914.21
  314.37        2951.50           2165         871.00      3796.48
  314.40        2951.75           2169         881.00      3840.08
  314.44        2952.00           2172         881.00      3840.08
  314.47        2952.25           2176         851.00      3709.27
  314.50        2952.50           2179         882.00      3844.44
  314.53        2952.75           2183         851.00      3709.27
  314.56        2953.00           2186         893.00      3892.41
  314.59        2953.25           2190         910.00      3966.53
  314.62        2953.50           2193         872.00      3800.84
  314.65        2953.75           2197         879.00      3831.36
  314.68        2954.00           2200         893.00      3892.41
  314.71        2954.25           2204         895.00      3901.13
  314.74        2954.50           2208         888.00      3870.61
  314.77        2954.75           2211         902.00      3931.65
  314.80        2955.00           2215         904.00      3940.37
  314.83        2955.25           2218         921.00      4014.50
  314.86        2955.50           2222         884.00      3853.16
  314.89        2955.75           2225         887.00      3866.25
  314.92        2956.00           2229         911.00      3970.89
  314.96        2956.25           2232         906.00      3949.09
  314.99        2956.50           2236         949.00      4136.59
  315.02        2956.75           2239         938.00      4088.62
  315.05        2957.00           2243         950.00      4140.95
  315.08        2957.25           2246         942.00      4106.07
  315.11        2957.50           2250         935.00      4075.54
  315.14        2957.75           2254         947.00      4127.87
  315.17        2958.00           2257         942.00      4106.07
  315.20        2958.25           2261         978.00      4263.04
  315.23        2958.50           2264         997.00      4345.89
  315.26        2958.75           2268         971.00      4232.52
  315.29        2959.00           2271         976.00      4254.32
  315.32        2959.25           2275        1033.00      4502.87
  315.35        2959.50           2278         994.00      4332.81
  315.38        2959.75           2282        1027.00      4476.71
  315.41        2960.00           2285        1028.00      4481.07
  315.44        2960.25           2289        1024.00      4463.62
  315.47        2960.50           2293        1054.00      4594.44
  315.51        2960.75           2296        1055.00      4598.80
  315.54        2961.00           2300        1081.00      4712.18
  315.57        2961.25           2303        1136.00      4952.01
  315.60        2961.50           2307        2245.00      9788.79
  315.63        2961.75           2310        6057.00     26426.52
  315.66        2962.00           2314       13760.00     60104.39
  315.69        2962.25           2317       19656.00     85934.24
  315.72        2962.50           2321       29841.00    130661.10
  315.75        2962.75           2324       37398.00    163935.60
  315.78        2963.00           2328       47337.00    207813.70
  315.81        2963.25           2331       54577.00    239859.20
  315.84        2963.50           2335       64308.00    283041.20
  315.87        2963.75           2339       74465.00    328249.80
  315.90        2964.00           2342       82315.00    363286.10
  315.93        2964.25           2346       93172.00    411882.10
  315.96        2964.50           2349      101385.00    448751.30
  315.99        2964.75           2353      110677.00    490576.80
  316.03        2965.00           2356      118092.00    524039.80
  316.06        2965.25           2360      127852.00    568203.00
  316.09        2965.50           2363      134934.00    600332.50
  316.12        2965.75           2367      144448.00    643607.40
  316.15        2966.00           2370      151978.00    677949.60
  316.18        2966.25           2374      159985.00    714556.30
  316.21        2966.50           2378      168161.00    752031.10
  316.24        2966.75           2381      171422.00    767005.10
  316.27        2967.00           2385      172318.00    771122.00
  316.30        2967.25           2388      173025.00    774371.50
  316.33        2967.50           2392      172510.00    772004.50
  316.36        2967.75           2395      172636.00    772583.50
  316.39        2968.00           2399      170995.00    765043.60
  316.42        2968.25           2402      166083.00    742497.50
  316.45        2968.50           2406      157562.00    703469.00
  316.48        2968.75           2409      151426.00    675429.30
  316.51        2969.00           2413      141968.00    632314.60
  316.55        2969.25           2417      131780.00    586014.80
  316.58        2969.50           2420      123488.00    548439.70
  316.61        2969.75           2424      113684.00    504137.80
  316.64        2970.00           2427      106232.00    470553.90
  316.67        2970.25           2431       96478.00    426712.00
  316.70        2970.50           2434       89428.00    395105.70
  316.73        2970.75           2438       77991.00    343976.80
  316.76        2971.00           2441       70282.00    309614.50
  316.79        2971.25           2445       60115.00    264418.90
  316.82        2971.50           2449       49989.00    219543.80
  316.85        2971.75           2452       42250.00    185339.50
  316.88        2972.00           2456       33017.00    144636.30
  316.91        2972.25           2459       25945.00    113536.00
  316.94        2972.50           2463       16175.00     70678.80
  316.97        2972.75           2466        8900.00     38847.27
  317.00        2973.00           2470        2883.00     12572.07
  317.03        2973.25           2473        1510.00      6582.99
  317.07        2973.50           2477        1132.00      4934.57
  317.10        2973.75           2481        1103.00      4808.11
  317.13        2974.00           2484        1060.00      4620.60
  317.16        2974.25           2488        1015.00      4424.38
  317.19        2974.50           2491         991.00      4319.73
  317.22        2974.75           2495         996.00      4341.53
  317.25        2975.00           2498         969.00      4223.80
  317.28        2975.25           2502         987.00      4302.29
  317.31        2975.50           2505        1002.00      4367.69
  317.34        2975.75           2509         977.00      4258.68
  317.37        2976.00           2512         971.00      4232.52
  317.40        2976.25           2516         938.00      4088.62
  317.43        2976.50           2520         949.00      4136.59
  317.46        2976.75           2523         930.00      4053.74
  317.49        2977.00           2527         924.00      4027.58
  317.52        2977.25           2530         915.00      3988.34
  317.55        2977.50           2534         910.00      3966.53
  317.59        2977.75           2537         929.00      4049.38
  317.62        2978.00           2541         888.00      3870.61
  317.65        2978.25           2544         898.00      3914.21
  317.68        2978.50           2548         850.00      3704.91
  317.71        2978.75           2552         887.00      3866.25
  317.74        2979.00           2555         869.00      3787.76
  317.77        2979.25           2559         900.00      3922.93
  317.80        2979.50           2562         878.00      3827.00
  317.83        2979.75           2566         860.00      3748.52
  317.86        2980.00           2569         860.00      3748.52
  317.89        2980.25           2573         858.00      3739.80
  317.92        2980.50           2577         862.00      3757.24
  317.95        2980.75           2580         839.00      3656.95
  317.98        2981.00           2584         836.00      3643.87
  318.01        2981.25           2587         824.00      3591.55
  318.04        2981.50           2591         823.00      3587.19
  318.07        2981.75           2594         851.00      3709.27
  318.11        2982.00           2598         819.00      3569.74
  318.14        2982.25           2601         862.00      3757.24
  318.17        2982.50           2605         845.00      3683.11
  318.20        2982.75           2609         803.00      3499.98
  318.23        2983.00           2612         808.00      3521.78
  318.26        2983.25           2616         846.00      3687.47
  318.29        2983.50           2619         837.00      3648.23
  318.32        2983.75           2623         819.00      3569.74
  318.35        2984.00           2626         801.00      3491.26
HS scan finished at 05:18:34
end
************************************************************
  HS Scan of 
************************************************************
Integration time is 0.2294 seconds per sample
dh200117Reading 51.44 .94 2.82pr1000
************************************************************
Dead Time -------------------------  3.4E-08 
Number of Cycles Used -------------  4 
Starting Wavelength (Angstroms) ---  2950 
Final Wavelength (Angstoms) -------  2984 
Wavelength Increment (Angstroms) --  .25 
Filter Wheel #1 Position ---------- (1) Ground quartz diffuser (ND=2.32)
Filter Wheel #2 Position ---------- (1) Neutral Density 0.494



************************************************************
HS scan start time = 17:37:22
Dark Count =  .6 


Time (GMT)  Wavelength (Ang)  Step Number  Raw Counts  Counts/Second

 1058.26        2950.00           2144         796.00      3467.71
 1058.45        2950.25           2147         787.00      3428.47
 1058.49        2950.50           2151         794.00      3458.99
 1058.52        2950.75           2155         812.00      3537.48
 1058.55        2951.00           2158         796.00      3467.71
 1058.58        2951.25           2162         774.00      3371.79
 1058.61        2951.50           2165         788.00      3432.83
 1058.64        2951.75           2169         802.00      3493.88
 1058.67        2952.00           2172         773.00      3367.43
 1058.70        2952.25           2176         805.00      3506.96
 1058.73        2952.50           2179         799.00      3480.80
 1058.76        2952.75           2183         810.00      3528.76
 1058.79        2953.00           2186         809.00      3524.40
 1058.82        2953.25           2190         805.00      3506.96
 1058.85        2953.50           2193         820.00      3572.36
 1058.88        2953.75           2197         815.00      3550.56
 1058.91        2954.00           2200         820.00      3572.36
 1058.94        2954.25           2204         816.00      3554.92
 1058.97        2954.50           2208         818.00      3563.64
 1059.01        2954.75           2211         805.00      3506.96
 1059.04        2955.00           2215         821.00      3576.72
 1059.07        2955.25           2218         862.00      3755.49
 1059.10        2955.50           2222         827.00      3602.88
 1059.13        2955.75           2225         820.00      3572.36
 1059.16        2956.00           2229         801.00      3489.52
 1059.19        2956.25           2232         835.00      3637.77
 1059.22        2956.50           2236         833.00      3629.04
 1059.25        2956.75           2239         826.00      3598.52
 1059.28        2957.00           2243         881.00      3838.34
 1059.31        2957.25           2246         860.00      3746.77
 1059.34        2957.50           2250         877.00      3820.90
 1059.37        2957.75           2254         855.00      3724.97
 1059.40        2958.00           2257         898.00      3912.46
 1059.43        2958.25           2261         859.00      3742.41
 1059.46        2958.50           2264         853.00      3716.25
 1059.49        2958.75           2268         928.00      4043.28
 1059.53        2959.00           2271         910.00      3964.79
 1059.56        2959.25           2275         879.00      3829.62
 1059.59        2959.50           2278         926.00      4034.56
 1059.62        2959.75           2282         915.00      3986.59
 1059.65        2960.00           2285         923.00      4021.47
 1059.68        2960.25           2289         948.00      4130.48
 1059.71        2960.50           2293         950.00      4139.21
 1059.74        2960.75           2296         978.00      4261.30
 1059.77        2961.00           2300        1015.00      4422.64
 1059.80        2961.25           2303        1131.00      4928.46
 1059.83        2961.50           2307        2490.00     10855.79
 1059.86        2961.75           2310        6191.00     27009.97
 1059.89        2962.00           2314       13413.00     58583.89
 1059.92        2962.25           2317       19845.00     86761.24
 1059.95        2962.50           2321       29366.00    128570.40
 1059.98        2962.75           2324       36118.00    158292.50
 1060.01        2963.00           2328       46691.00    204956.00
 1060.05        2963.25           2331       54091.00    237704.20
 1060.08        2963.50           2335       63432.00    279146.90
 1060.11        2963.75           2339       71981.00    317178.90
 1060.14        2964.00           2342       79583.00    351081.30
 1060.17        2964.25           2346       89458.00    395238.20
 1060.20        2964.50           2349       96896.00    428586.30
 1060.23        2964.75           2353      106197.00    470394.50
 1060.26        2965.00           2356      112776.00    500039.80
 1060.29        2965.25           2360      121487.00    539385.00
 1060.32        2965.50           2363      127872.00    568291.80
 1060.35        2965.75           2367      136617.00    607976.50
 1060.38        2966.00           2370      143737.00    640367.20
 1060.41        2966.25           2374      152442.00    680066.50
 1060.44        2966.50           2378      158763.00    708961.80
 1060.47        2966.75           2381      160859.00    718555.90
 1060.50        2967.00           2385      160951.00    718977.10
 1060.53        2967.25           2388      161598.00    721940.00
 1060.57        2967.50           2392      160966.00    719045.80
 1060.60        2967.75           2395      161447.00    721248.60
 1060.63        2968.00           2399      159790.00    713662.00
 1060.66        2968.25           2402      155970.00    696187.00
 1060.69        2968.50           2406      147696.00    658408.80
 1060.72        2968.75           2409      141374.00    629609.30
 1060.75        2969.00           2413      133311.00    592961.20
 1060.78        2969.25           2417      124486.00    552955.30
 1060.81        2969.50           2420      117442.00    521101.60
 1060.84        2969.75           2424      108045.00    478715.60
 1060.87        2970.00           2427      101176.00    447810.10
 1060.90        2970.25           2431       91016.00    402217.20
 1060.93        2970.50           2434       83536.00    368741.50
 1060.96        2970.75           2438       74689.00    329246.70
 1060.99        2971.00           2441       67635.00    297832.50
 1061.02        2971.25           2445       57588.00    253205.40
 1061.05        2971.50           2449       47746.00    209620.30
 1061.08        2971.75           2452       40092.00    175814.20
 1061.12        2972.00           2456       30957.00    135568.50
 1061.15        2972.25           2459       23885.00    104487.40
 1061.18        2972.50           2463       14682.00     64138.85
 1061.21        2972.75           2466        8330.00     36354.41
 1061.24        2973.00           2470        2875.00     12535.42
 1061.27        2973.25           2473        1458.00      6354.47
 1061.30        2973.50           2477        1055.00      4597.06
 1061.33        2973.75           2481         990.00      4313.62
 1061.36        2974.00           2484         937.00      4082.52
 1061.39        2974.25           2488         918.00      3999.67
 1061.42        2974.50           2491         956.00      4165.37
 1061.45        2974.75           2495         916.00      3990.95
 1061.48        2975.00           2498         911.00      3969.15
 1061.51        2975.25           2502         883.00      3847.06
 1061.54        2975.50           2505         868.00      3781.65
 1061.57        2975.75           2509         907.00      3951.71
 1061.60        2976.00           2512         854.00      3720.61
 1061.64        2976.25           2516         854.00      3720.61
 1061.67        2976.50           2520         884.00      3851.42
 1061.70        2976.75           2523         838.00      3650.85
 1061.73        2977.00           2527         838.00      3650.85
 1061.76        2977.25           2530         834.00      3633.40
 1061.79        2977.50           2534         828.00      3607.24
 1061.82        2977.75           2537         827.00      3602.88
 1061.85        2978.00           2541         804.00      3502.60
 1061.88        2978.25           2544         836.00      3642.13
 1061.91        2978.50           2548         802.00      3493.88
 1061.94        2978.75           2552         800.00      3485.16
 1061.97        2979.00           2555         818.00      3563.64
 1062.00        2979.25           2559         798.00      3476.44
 1062.03        2979.50           2562         777.00      3384.87
 1062.06        2979.75           2566         822.00      3581.08
 1062.09        2980.00           2569         771.00      3358.71
 1062.12        2980.25           2573         761.00      3315.11
 1062.16        2980.50           2577         753.00      3280.23
 1062.19        2980.75           2580         778.00      3389.23
 1062.22        2981.00           2584         761.00      3315.11
 1062.25        2981.25           2587         724.00      3153.78
 1062.28        2981.50           2591         751.00      3271.51
 1062.31        2981.75           2594         770.00      3354.35
 1062.34        2982.00           2598         757.00      3297.67
 1062.37        2982.25           2601         760.00      3310.75
 1062.40        2982.50           2605         739.00      3219.18
 1062.43        2982.75           2609         744.00      3240.98
 1062.46        2983.00           2612         737.00      3210.46
 1062.49        2983.25           2616         749.00      3262.79
 1062.52        2983.50           2619         717.00      3123.26
 1062.55        2983.75           2623         725.00      3158.14
 1062.58        2984.00           2626         736.00      3206.10
HS scan finished at 17:42:48
end
