************************************************************
  HS Scan of (1) Internal mercury lamp
************************************************************
Integration time is 0.2294 seconds per sample
dh210119Reading 51.44 .94 2.64pr1000
************************************************************
Dead Time -------------------------  3.4E-08 
Number of Cycles Used -------------  4 
Starting Wavelength (Angstroms) ---  2950 
Final Wavelength (Angstoms) -------  2984 
Wavelength Increment (Angstroms) --  .25 
Filter Wheel #1 Position ---------- (1) Ground quartz diffuser (ND=2.32)
Filter Wheel #2 Position ---------- (1) Neutral Density 0.494



************************************************************
HS scan start time = 05:09:48
Dark Count =  .5 


Time (GMT)  Wavelength (Ang)  Step Number  Raw Counts  Counts/Second

  310.70        2950.00           2144        1630.00      7105.03
  310.89        2950.25           2147        1607.00      7004.72
  310.92        2950.50           2151        1657.00      7222.79
  310.96        2950.75           2155        1640.00      7148.64
  310.99        2951.00           2158        1604.00      6991.64
  311.02        2951.25           2162        1647.00      7179.17
  311.05        2951.50           2165        1632.00      7113.75
  311.08        2951.75           2169        1620.00      7061.42
  311.11        2952.00           2172        1637.00      7135.56
  311.14        2952.25           2176        1639.00      7144.28
  311.17        2952.50           2179        1616.00      7043.97
  311.20        2952.75           2183        1670.00      7279.48
  311.23        2953.00           2186        1684.00      7340.54
  311.26        2953.25           2190        1685.00      7344.90
  311.29        2953.50           2193        1659.00      7231.51
  311.32        2953.75           2197        1677.00      7310.01
  311.35        2954.00           2200        1687.00      7353.63
  311.38        2954.25           2204        1673.00      7292.57
  311.41        2954.50           2208        1679.00      7318.74
  311.44        2954.75           2211        1699.00      7405.96
  311.48        2955.00           2215        1706.00      7436.49
  311.51        2955.25           2218        1734.00      7558.61
  311.54        2955.50           2222        1678.00      7314.37
  311.57        2955.75           2225        1733.00      7554.25
  311.60        2956.00           2229        1754.00      7645.84
  311.63        2956.25           2232        1733.00      7554.25
  311.66        2956.50           2236        1750.00      7628.40
  311.69        2956.75           2239        1779.00      7754.88
  311.72        2957.00           2243        1773.00      7728.71
  311.75        2957.25           2246        1814.00      7907.53
  311.78        2957.50           2250        1818.00      7924.98
  311.81        2957.75           2254        1814.00      7907.53
  311.84        2958.00           2257        1857.00      8095.08
  311.87        2958.25           2261        1879.00      8191.03
  311.90        2958.50           2264        1872.00      8160.50
  311.93        2958.75           2268        1864.00      8125.61
  311.96        2959.00           2271        1884.00      8212.84
  312.00        2959.25           2275        1876.00      8177.95
  312.03        2959.50           2278        1931.00      8417.84
  312.06        2959.75           2282        1958.00      8535.61
  312.09        2960.00           2285        1964.00      8561.78
  312.12        2960.25           2289        1976.00      8614.12
  312.15        2960.50           2293        2037.00      8880.19
  312.18        2960.75           2296        2090.00      9111.37
  312.21        2961.00           2300        2187.00      9534.48
  312.24        2961.25           2303        2656.00     11580.41
  312.27        2961.50           2307        6747.00     29438.78
  312.30        2961.75           2310       15260.00     66670.15
  312.33        2962.00           2314       31990.00    140114.50
  312.36        2962.25           2317       45776.00    200912.20
  312.39        2962.50           2321       67338.00    296511.80
  312.42        2962.75           2324       85568.00    377828.30
  312.45        2963.00           2328      110439.00    489502.70
  312.48        2963.25           2331      128334.00    570386.10
  312.52        2963.50           2335      151192.00    674359.60
  312.55        2963.75           2339      172467.00    771805.40
  312.58        2964.00           2342      189902.00    852153.60
  312.62        2964.25           2346      213162.00    960044.60
  312.65        2964.50           2349      230390.00   1040478.00
  312.68        2964.75           2353      254012.00   1151497.00
  312.71        2965.00           2356      270883.00   1231315.00
  312.74        2965.25           2360      292491.00   1334194.00
  312.77        2965.50           2363      307689.00   1406999.00
  312.80        2965.75           2367      326948.00   1499790.00
  312.83        2966.00           2370      340491.00   1565404.00
  312.86        2966.25           2374      362458.00   1672474.00
  312.89        2966.50           2378      378352.00   1750448.00
  312.92        2966.75           2381      383710.00   1776830.00
  312.95        2967.00           2385      386170.00   1788959.00
  312.98        2967.25           2388      386680.00   1791475.00
  313.01        2967.50           2392      386578.00   1790972.00
  313.04        2967.75           2395      386451.00   1790345.00
  313.07        2968.00           2399      382896.00   1772819.00
  313.10        2968.25           2402      372966.00   1723977.00
  313.14        2968.50           2406      354991.00   1635989.00
  313.17        2968.75           2409      341487.00   1570241.00
  313.20        2969.00           2413      320419.00   1468266.00
  313.23        2969.25           2417      299525.00   1367844.00
  313.26        2969.50           2420      282757.00   1287758.00
  313.29        2969.75           2424      260469.00   1181994.00
  313.32        2970.00           2427      245115.00   1109583.00
  313.35        2970.25           2431      222419.00   1003208.00
  313.38        2970.50           2434      204979.00    921996.10
  313.41        2970.75           2438      181626.00    813958.70
  313.44        2971.00           2441      164262.00    734146.60
  313.47        2971.25           2445      139137.00    619432.90
  313.50        2971.50           2449      112544.00    498993.80
  313.53        2971.75           2452       94053.00    415831.30
  313.56        2972.00           2456       71661.00    315754.00
  313.59        2972.25           2459       54745.00    240602.30
  313.62        2972.50           2463       33875.00    148412.70
  313.66        2972.75           2466       19730.00     86257.40
  313.69        2973.00           2470        6986.00     30482.76
  313.72        2973.25           2473        3522.00     15358.94
  313.75        2973.50           2477        2324.00     10132.09
  313.78        2973.75           2481        2142.00      9338.19
  313.81        2974.00           2484        2066.00      9006.68
  313.84        2974.25           2488        1965.00      8566.14
  313.87        2974.50           2491        2014.00      8779.87
  313.90        2974.75           2495        1941.00      8461.46
  313.93        2975.00           2498        1951.00      8505.08
  313.96        2975.25           2502        1869.00      8147.42
  313.99        2975.50           2505        1858.00      8099.44
  314.02        2975.75           2509        1850.00      8064.55
  314.05        2976.00           2512        1847.00      8051.46
  314.08        2976.25           2516        1811.00      7894.45
  314.11        2976.50           2520        1803.00      7859.55
  314.14        2976.75           2523        1758.00      7663.29
  314.18        2977.00           2527        1752.00      7637.12
  314.21        2977.25           2530        1749.00      7624.03
  314.24        2977.50           2534        1742.00      7593.50
  314.27        2977.75           2537        1742.00      7593.50
  314.30        2978.00           2541        1725.00      7519.36
  314.33        2978.25           2544        1740.00      7584.78
  314.36        2978.50           2548        1700.00      7410.32
  314.39        2978.75           2552        1674.00      7296.93
  314.42        2979.00           2555        1668.00      7270.76
  314.45        2979.25           2559        1647.00      7179.17
  314.48        2979.50           2562        1631.00      7109.39
  314.51        2979.75           2566        1614.00      7035.25
  314.54        2980.00           2569        1587.00      6917.49
  314.57        2980.25           2573        1582.00      6895.69
  314.60        2980.50           2577        1598.00      6965.47
  314.63        2980.75           2580        1597.00      6961.11
  314.66        2981.00           2584        1582.00      6895.69
  314.70        2981.25           2587        1553.00      6769.21
  314.73        2981.50           2591        1555.00      6777.94
  314.76        2981.75           2594        1578.00      6878.24
  314.79        2982.00           2598        1563.00      6812.82
  314.82        2982.25           2601        1562.00      6808.46
  314.85        2982.50           2605        1511.00      6586.04
  314.88        2982.75           2609        1564.00      6817.19
  314.91        2983.00           2612        1540.00      6712.52
  314.94        2983.25           2616        1562.00      6808.46
  314.97        2983.50           2619        1523.00      6638.38
  315.00        2983.75           2623        1525.00      6647.10
  315.03        2984.00           2626        1530.00      6668.91
HS scan finished at 05:15:15
end
************************************************************
  HS Scan of (1) Internal mercury lamp
************************************************************
Integration time is 0.2294 seconds per sample
dh210119Reading 51.44 .94 2.8pr1000
************************************************************
Dead Time -------------------------  3.4E-08 
Number of Cycles Used -------------  4 
Starting Wavelength (Angstroms) ---  2950 
Final Wavelength (Angstoms) -------  2984 
Wavelength Increment (Angstroms) --  .25 
Filter Wheel #1 Position ---------- (1) Ground quartz diffuser (ND=2.32)
Filter Wheel #2 Position ---------- (1) Neutral Density 0.494



************************************************************
HS scan start time = 17:37:21
Dark Count =  .6 


Time (GMT)  Wavelength (Ang)  Step Number  Raw Counts  Counts/Second

 1058.24        2950.00           2144        1549.00      6751.33
 1058.43        2950.25           2147        1557.00      6786.22
 1058.46        2950.50           2151        1571.00      6847.28
 1058.49        2950.75           2155        1578.00      6877.81
 1058.53        2951.00           2158        1578.00      6877.81
 1058.56        2951.25           2162        1592.00      6938.86
 1058.59        2951.50           2165        1577.00      6873.45
 1058.62        2951.75           2169        1545.00      6733.89
 1058.65        2952.00           2172        1569.00      6838.56
 1058.68        2952.25           2176        1575.00      6864.72
 1058.71        2952.50           2179        1570.00      6842.92
 1058.74        2952.75           2183        1598.00      6965.03
 1058.77        2953.00           2186        1573.00      6856.00
 1058.80        2953.25           2190        1631.00      7108.95
 1058.83        2953.50           2193        1595.00      6951.95
 1058.87        2953.75           2197        1634.00      7122.04
 1058.90        2954.00           2200        1608.00      7008.65
 1058.93        2954.25           2204        1609.00      7013.01
 1058.96        2954.50           2208        1608.00      7008.65
 1058.99        2954.75           2211        1617.00      7047.90
 1059.02        2955.00           2215        1659.00      7231.07
 1059.05        2955.25           2218        1645.00      7170.01
 1059.08        2955.50           2222        1641.00      7152.57
 1059.11        2955.75           2225        1624.00      7078.43
 1059.14        2956.00           2229        1730.00      7540.73
 1059.17        2956.25           2232        1687.00      7353.19
 1059.21        2956.50           2236        1670.00      7279.05
 1059.24        2956.75           2239        1668.00      7270.32
 1059.27        2957.00           2243        1744.00      7601.79
 1059.30        2957.25           2246        1728.00      7532.01
 1059.33        2957.50           2250        1722.00      7505.84
 1059.36        2957.75           2254        1732.00      7549.45
 1059.39        2958.00           2257        1732.00      7549.45
 1059.42        2958.25           2261        1784.00      7776.25
 1059.45        2958.50           2264        1817.00      7920.18
 1059.48        2958.75           2268        1824.00      7950.71
 1059.51        2959.00           2271        1856.00      8090.28
 1059.54        2959.25           2275        1846.00      8046.67
 1059.57        2959.50           2278        1842.00      8029.22
 1059.60        2959.75           2282        1923.00      8382.51
 1059.63        2960.00           2285        1883.00      8208.05
 1059.66        2960.25           2289        1993.00      8687.83
 1059.69        2960.50           2293        1995.00      8696.56
 1059.73        2960.75           2296        2002.00      8727.09
 1059.76        2961.00           2300        2072.00      9032.42
 1059.79        2961.25           2303        2367.00     10319.23
 1059.82        2961.50           2307        4856.00     21180.90
 1059.85        2961.75           2310       12017.00     52475.41
 1059.88        2962.00           2314       28679.00    125549.60
 1059.91        2962.25           2317       44474.00    195159.00
 1059.94        2962.50           2321       67686.00    298059.30
 1059.97        2962.75           2324       84474.00    372935.20
 1060.00        2963.00           2328      105966.00    469354.70
 1060.03        2963.25           2331      122923.00    545881.10
 1060.06        2963.50           2335      145433.00    648093.40
 1060.09        2963.75           2339      168558.00    753851.50
 1060.12        2964.00           2342      186255.00    835309.30
 1060.15        2964.25           2346      208701.00    939289.40
 1060.18        2964.50           2349      226924.00   1024260.00
 1060.21        2964.75           2353      248807.00   1126961.00
 1060.24        2965.00           2356      264341.00   1200312.00
 1060.28        2965.25           2360      286565.00   1305906.00
 1060.31        2965.50           2363      303826.00   1388458.00
 1060.34        2965.75           2367      324267.00   1486836.00
 1060.37        2966.00           2370      339663.00   1561383.00
 1060.40        2966.25           2374      357652.00   1648980.00
 1060.43        2966.50           2378      372102.00   1719735.00
 1060.46        2966.75           2381      377269.00   1745121.00
 1060.49        2967.00           2385      379817.00   1757656.00
 1060.52        2967.25           2388      380020.00   1758655.00
 1060.55        2967.50           2392      380160.00   1759344.00
 1060.58        2967.75           2395      379940.00   1758261.00
 1060.61        2968.00           2399      375444.00   1736149.00
 1060.64        2968.25           2402      366099.00   1690299.00
 1060.67        2968.50           2406      349331.00   1608394.00
 1060.70        2968.75           2409      337490.00   1550838.00
 1060.73        2969.00           2413      317968.00   1456448.00
 1060.77        2969.25           2417      296208.00   1351966.00
 1060.80        2969.50           2420      280553.00   1277264.00
 1060.83        2969.75           2424      258071.00   1170660.00
 1060.86        2970.00           2427      241754.00   1093780.00
 1060.89        2970.25           2431      221387.00    998388.90
 1060.92        2970.50           2434      204029.00    917585.00
 1060.95        2970.75           2438      180120.00    807018.60
 1060.98        2971.00           2441      161727.00    722531.00
 1061.01        2971.25           2445      138349.00    615849.30
 1061.04        2971.50           2449      115368.00    511736.10
 1061.07        2971.75           2452       98489.00    435738.40
 1061.10        2972.00           2456       76348.00    336644.70
 1061.13        2972.25           2459       60050.00    264128.60
 1061.16        2972.50           2463       38677.00    169572.90
 1061.19        2972.75           2466       23890.00    104509.30
 1061.22        2973.00           2470        8547.00     37302.74
 1061.25        2973.25           2473        3733.00     16279.28
 1061.28        2973.50           2477        2186.00      9529.68
 1061.32        2973.75           2481        2080.00      9067.31
 1061.35        2974.00           2484        2010.00      8761.98
 1061.38        2974.25           2488        1997.00      8705.28
 1061.41        2974.50           2491        1945.00      8478.47
 1061.44        2974.75           2495        1905.00      8304.00
 1061.47        2975.00           2498        1869.00      8146.98
 1061.50        2975.25           2502        1841.00      8024.86
 1061.53        2975.50           2505        1850.00      8064.11
 1061.56        2975.75           2509        1845.00      8042.30
 1061.59        2976.00           2512        1786.00      7784.97
 1061.62        2976.25           2516        1752.00      7636.68
 1061.65        2976.50           2520        1744.00      7601.79
 1061.68        2976.75           2523        1774.00      7732.64
 1061.71        2977.00           2527        1735.00      7562.54
 1061.74        2977.25           2530        1720.00      7497.12
 1061.77        2977.50           2534        1667.00      7265.96
 1061.80        2977.75           2537        1648.00      7183.10
 1061.84        2978.00           2541        1671.00      7283.41
 1061.87        2978.25           2544        1667.00      7265.96
 1061.90        2978.50           2548        1626.00      7087.15
 1061.93        2978.75           2552        1613.00      7030.45
 1061.96        2979.00           2555        1621.00      7065.34
 1061.99        2979.25           2559        1590.00      6930.14
 1062.02        2979.50           2562        1588.00      6921.42
 1062.06        2979.75           2566        1590.00      6930.14
 1062.10        2980.00           2569        1613.00      7030.45
 1062.13        2980.25           2573        1539.00      6707.72
 1062.16        2980.50           2577        1547.00      6742.61
 1062.19        2980.75           2580        1508.00      6572.52
 1062.22        2981.00           2584        1515.00      6603.05
 1062.25        2981.25           2587        1525.00      6646.66
 1062.28        2981.50           2591        1509.00      6576.89
 1062.31        2981.75           2594        1481.00      6454.77
 1062.34        2982.00           2598        1518.00      6616.14
 1062.37        2982.25           2601        1524.00      6642.30
 1062.40        2982.50           2605        1497.00      6524.55
 1062.43        2982.75           2609        1467.00      6393.72
 1062.46        2983.00           2612        1512.00      6589.97
 1062.49        2983.25           2616        1492.00      6502.75
 1062.52        2983.50           2619        1488.00      6485.30
 1062.55        2983.75           2623        1464.00      6380.64
 1062.58        2984.00           2626        1481.00      6454.77
HS scan finished at 17:42:48
end
