************************************************************
  HS Scan of (1) Internal mercury lamp
************************************************************
Integration time is 0.2294 seconds per sample
dh270119Reading 51.44 .94 2.72pr1000
************************************************************
Dead Time -------------------------  3.4E-08 
Number of Cycles Used -------------  4 
Starting Wavelength (Angstroms) ---  2950 
Final Wavelength (Angstoms) -------  2984 
Wavelength Increment (Angstroms) --  .25 
Filter Wheel #1 Position ---------- (1) Ground quartz diffuser (ND=2.32)
Filter Wheel #2 Position ---------- (1) Neutral Density 0.494



************************************************************
HS scan start time = 05:04:16
Dark Count =  .4 


Time (GMT)  Wavelength (Ang)  Step Number  Raw Counts  Counts/Second

  305.16        2950.00           2144        1581.00      6891.76
  305.35        2950.25           2147        1591.00      6935.38
  305.38        2950.50           2151        1598.00      6965.90
  305.41        2950.75           2155        1624.00      7079.30
  305.44        2951.00           2158        1602.00      6983.35
  305.47        2951.25           2162        1623.00      7074.94
  305.51        2951.50           2165        1601.00      6978.99
  305.54        2951.75           2169        1659.00      7231.94
  305.57        2952.00           2172        1612.00      7026.96
  305.60        2952.25           2176        1605.00      6996.43
  305.63        2952.50           2179        1577.00      6874.32
  305.66        2952.75           2183        1616.00      7044.41
  305.69        2953.00           2186        1656.00      7218.86
  305.72        2953.25           2190        1684.00      7340.98
  305.75        2953.50           2193        1646.00      7175.25
  305.78        2953.75           2197        1644.00      7166.52
  305.81        2954.00           2200        1703.00      7423.84
  305.84        2954.25           2204        1665.00      7258.11
  305.87        2954.50           2208        1710.00      7454.37
  305.90        2954.75           2211        1689.00      7362.78
  305.93        2955.00           2215        1689.00      7362.78
  305.96        2955.25           2218        1711.00      7458.74
  305.99        2955.50           2222        1716.00      7480.54
  306.03        2955.75           2225        1685.00      7345.34
  306.06        2956.00           2229        1705.00      7432.57
  306.09        2956.25           2232        1743.00      7598.30
  306.12        2956.50           2236        1764.00      7689.89
  306.15        2956.75           2239        1757.00      7659.36
  306.18        2957.00           2243        1767.00      7702.98
  306.21        2957.25           2246        1795.00      7825.10
  306.24        2957.50           2250        1837.00      8008.28
  306.27        2957.75           2254        1784.00      7777.12
  306.30        2958.00           2257        1790.00      7803.29
  306.33        2958.25           2261        1847.00      8051.90
  306.36        2958.50           2264        1854.00      8082.43
  306.39        2958.75           2268        1847.00      8051.90
  306.42        2959.00           2271        1902.00      8291.79
  306.45        2959.25           2275        1941.00      8461.89
  306.48        2959.50           2278        1933.00      8427.00
  306.51        2959.75           2282        1991.00      8679.98
  306.55        2960.00           2285        2020.00      8806.47
  306.58        2960.25           2289        2020.00      8806.47
  306.61        2960.50           2293        2057.00      8967.86
  306.64        2960.75           2296        2116.00      9225.21
  306.67        2961.00           2300        2256.00      9835.90
  306.70        2961.25           2303        2969.00     12946.41
  306.73        2961.50           2307        8675.00     37863.01
  306.76        2961.75           2310       17994.00     78647.69
  306.79        2962.00           2314       35986.00    157711.80
  306.82        2962.25           2317       52129.00    229015.20
  306.85        2962.50           2321       74225.00    327179.20
  306.88        2962.75           2324       90792.00    401214.50
  306.91        2963.00           2328      113209.00    501994.00
  306.94        2963.25           2331      131448.00    584507.50
  306.97        2963.50           2335      155158.00    692476.00
  307.00        2963.75           2339      178884.00    801326.50
  307.03        2964.00           2342      197443.00    887044.80
  307.07        2964.25           2346      219903.00    991463.90
  307.10        2964.50           2349      233948.00   1057146.00
  307.13        2964.75           2353      254356.00   1153121.00
  307.16        2965.00           2356      271662.00   1235012.00
  307.19        2965.25           2360      293590.00   1339447.00
  307.22        2965.50           2363      309890.00   1417573.00
  307.25        2965.75           2367      330603.00   1517469.00
  307.28        2966.00           2370      343840.00   1581676.00
  307.31        2966.25           2374      365883.00   1689241.00
  307.34        2966.50           2378      383905.00   1777791.00
  307.37        2966.75           2381      389991.00   1807819.00
  307.40        2967.00           2385      391851.00   1817009.00
  307.43        2967.25           2388      392032.00   1817904.00
  307.46        2967.50           2392      391692.00   1816223.00
  307.49        2967.75           2395      391065.00   1813125.00
  307.52        2968.00           2399      385851.00   1787386.00
  307.55        2968.25           2402      377533.00   1746420.00
  307.59        2968.50           2406      358568.00   1653456.00
  307.62        2968.75           2409      342267.00   1574031.00
  307.65        2969.00           2413      319684.00   1464722.00
  307.68        2969.25           2417      296461.00   1353177.00
  307.71        2969.50           2420      280172.00   1275452.00
  307.74        2969.75           2424      256792.00   1164620.00
  307.77        2970.00           2427      240436.00   1087589.00
  307.80        2970.25           2431      215558.00    971204.60
  307.83        2970.50           2434      196634.00    883297.70
  307.86        2970.75           2438      172224.00    770689.20
  307.89        2971.00           2441      154475.00    689354.60
  307.92        2971.25           2445      132002.00    587021.10
  307.95        2971.50           2449      109799.00    486618.70
  307.98        2971.75           2452       92952.00    410894.90
  308.01        2972.00           2456       67684.00    298051.40
  308.04        2972.25           2459       49601.00    217826.10
  308.07        2972.50           2463       27627.00    120926.00
  308.11        2972.75           2466       14304.00     62484.83
  308.14        2973.00           2470        5239.00     22853.85
  308.17        2973.25           2473        2838.00     12374.87
  308.20        2973.50           2477        2217.00      9665.77
  308.23        2973.75           2481        2101.00      9159.78
  308.26        2974.00           2484        2025.00      8828.28
  308.29        2974.25           2488        2046.00      8919.88
  308.32        2974.50           2491        1991.00      8679.98
  308.35        2974.75           2495        1931.00      8418.28
  308.38        2975.00           2498        1927.00      8400.83
  308.41        2975.25           2502        1891.00      8243.81
  308.44        2975.50           2505        1886.00      8222.00
  308.47        2975.75           2509        1866.00      8134.77
  308.50        2976.00           2512        1858.00      8099.88
  308.53        2976.25           2516        1834.00      7995.20
  308.56        2976.50           2520        1784.00      7777.12
  308.59        2976.75           2523        1804.00      7864.35
  308.62        2977.00           2527        1763.00      7685.53
  308.66        2977.25           2530        1755.00      7650.64
  308.69        2977.50           2534        1738.00      7576.49
  308.72        2977.75           2537        1708.00      7445.65
  308.75        2978.00           2541        1688.00      7358.42
  308.78        2978.25           2544        1696.00      7393.31
  308.81        2978.50           2548        1663.00      7249.39
  308.84        2978.75           2552        1693.00      7380.23
  308.87        2979.00           2555        1642.00      7157.80
  308.90        2979.25           2559        1609.00      7013.88
  308.93        2979.50           2562        1641.00      7153.44
  308.96        2979.75           2566        1605.00      6996.43
  308.99        2980.00           2569        1608.00      7009.52
  309.02        2980.25           2573        1648.00      7183.97
  309.05        2980.50           2577        1577.00      6874.32
  309.08        2980.75           2580        1567.00      6830.71
  309.11        2981.00           2584        1566.00      6826.34
  309.14        2981.25           2587        1546.00      6739.12
  309.18        2981.50           2591        1543.00      6726.04
  309.21        2981.75           2594        1519.00      6621.37
  309.24        2982.00           2598        1552.00      6765.29
  309.27        2982.25           2601        1543.00      6726.04
  309.30        2982.50           2605        1544.00      6730.40
  309.33        2982.75           2609        1532.00      6678.06
  309.36        2983.00           2612        1538.00      6704.23
  309.39        2983.25           2616        1541.00      6717.31
  309.42        2983.50           2619        1507.00      6569.04
  309.45        2983.75           2623        1536.00      6695.51
  309.48        2984.00           2626        1548.00      6747.84
HS scan finished at 05:09:42
end
************************************************************
  HS Scan of (1) Internal mercury lamp
************************************************************
Integration time is 0.2294 seconds per sample
dh270119Reading 51.44 .94 2.68pr1000
************************************************************
Dead Time -------------------------  3.4E-08 
Number of Cycles Used -------------  4 
Starting Wavelength (Angstroms) ---  2950 
Final Wavelength (Angstoms) -------  2984 
Wavelength Increment (Angstroms) --  .25 
Filter Wheel #1 Position ---------- (1) Ground quartz diffuser (ND=2.32)
Filter Wheel #2 Position ---------- (1) Neutral Density 0.494



************************************************************
HS scan start time = 17:37:17
Dark Count =  .7 


Time (GMT)  Wavelength (Ang)  Step Number  Raw Counts  Counts/Second

 1058.18        2950.00           2144        1282.00      5586.50
 1058.38        2950.25           2147        1237.00      5390.26
 1058.41        2950.50           2151        1260.00      5490.56
 1058.44        2950.75           2155        1265.00      5512.37
 1058.47        2951.00           2158        1238.00      5394.63
 1058.50        2951.25           2162        1272.00      5542.89
 1058.53        2951.50           2165        1303.00      5678.08
 1058.56        2951.75           2169        1238.00      5394.63
 1058.59        2952.00           2172        1255.00      5468.76
 1058.62        2952.25           2176        1255.00      5468.76
 1058.65        2952.50           2179        1302.00      5673.72
 1058.68        2952.75           2183        1276.00      5560.34
 1058.71        2953.00           2186        1293.00      5634.47
 1058.74        2953.25           2190        1283.00      5590.86
 1058.77        2953.50           2193        1310.00      5708.61
 1058.80        2953.75           2197        1268.00      5525.45
 1058.84        2954.00           2200        1312.00      5717.33
 1058.87        2954.25           2204        1283.00      5590.86
 1058.90        2954.50           2208        1335.00      5817.63
 1058.93        2954.75           2211        1350.00      5883.04
 1058.96        2955.00           2215        1331.00      5800.19
 1058.99        2955.25           2218        1362.00      5935.37
 1059.02        2955.50           2222        1336.00      5821.99
 1059.05        2955.75           2225        1342.00      5848.16
 1059.08        2956.00           2229        1336.00      5821.99
 1059.11        2956.25           2232        1384.00      6031.32
 1059.14        2956.50           2236        1353.00      5896.13
 1059.17        2956.75           2239        1368.00      5961.54
 1059.20        2957.00           2243        1388.00      6048.76
 1059.23        2957.25           2246        1366.00      5952.82
 1059.26        2957.50           2250        1408.00      6135.98
 1059.29        2957.75           2254        1429.00      6227.56
 1059.33        2958.00           2257        1399.00      6096.73
 1059.36        2958.25           2261        1446.00      6301.70
 1059.39        2958.50           2264        1462.00      6371.48
 1059.42        2958.75           2268        1454.00      6336.59
 1059.45        2959.00           2271        1492.00      6502.31
 1059.48        2959.25           2275        1506.00      6563.37
 1059.51        2959.50           2278        1514.00      6598.25
 1059.54        2959.75           2282        1509.00      6576.45
 1059.57        2960.00           2285        1559.00      6794.51
 1059.60        2960.25           2289        1543.00      6724.73
 1059.63        2960.50           2293        1555.00      6777.06
 1059.66        2960.75           2296        1604.00      6990.76
 1059.69        2961.00           2300        1687.00      7352.75
 1059.72        2961.25           2303        1926.00      8395.16
 1059.75        2961.50           2307        4288.00     18701.07
 1059.78        2961.75           2310       10235.00     44681.17
 1059.81        2962.00           2314       24016.00    105062.10
 1059.84        2962.25           2317       34972.00    153243.20
 1059.88        2962.50           2321       50521.00    221895.80
 1059.91        2962.75           2324       62982.00    277147.30
 1059.94        2963.00           2328       81161.00    358128.10
 1059.97        2963.25           2331       95342.00    421612.20
 1060.00        2963.50           2335      114540.00    507998.30
 1060.03        2963.75           2339      131459.00    584556.10
 1060.06        2964.00           2342      142777.00    635995.10
 1060.09        2964.25           2346      159818.00    713789.60
 1060.12        2964.50           2349      174455.00    780943.60
 1060.15        2964.75           2353      192962.00    866300.60
 1060.18        2965.00           2356      205924.00    926384.10
 1060.21        2965.25           2360      222462.00   1003408.00
 1060.24        2965.50           2363      235098.00   1062536.00
 1060.27        2965.75           2367      250303.00   1134008.00
 1060.30        2966.00           2370      261850.00   1188523.00
 1060.33        2966.25           2374      278395.00   1266997.00
 1060.36        2966.50           2378      291568.00   1329784.00
 1060.40        2966.75           2381      296607.00   1353874.00
 1060.43        2967.00           2385      298848.00   1364601.00
 1060.46        2967.25           2388      298932.00   1365003.00
 1060.49        2967.50           2392      298671.00   1363753.00
 1060.52        2967.75           2395      298426.00   1362580.00
 1060.55        2968.00           2399      297213.00   1356774.00
 1060.58        2968.25           2402      291640.00   1330128.00
 1060.61        2968.50           2406      276638.00   1258643.00
 1060.64        2968.75           2409      264634.00   1201698.00
 1060.67        2969.00           2413      248659.00   1126263.00
 1060.70        2969.25           2417      232559.00   1050636.00
 1060.73        2969.50           2420      220289.00    993263.70
 1060.76        2969.75           2424      203761.00    916340.50
 1060.79        2970.00           2427      190118.00    853150.90
 1060.82        2970.25           2431      169253.00    757041.50
 1060.85        2970.50           2434      155407.00    693612.80
 1060.88        2970.75           2438      136284.00    606463.00
 1060.92        2971.00           2441      122716.00    544944.10
 1060.95        2971.25           2445      105570.00    467571.90
 1060.98        2971.50           2449       88932.00    392882.40
 1061.01        2971.75           2452       74221.00    327160.00
 1061.04        2972.00           2456       54993.00    241700.50
 1061.07        2972.25           2459       41761.00    183178.70
 1061.10        2972.50           2463       25689.00    112409.20
 1061.13        2972.75           2466       14849.00     64869.60
 1061.16        2973.00           2470        5569.00     24293.38
 1061.19        2973.25           2473        2770.00     12076.89
 1061.22        2973.50           2477        1759.00      7666.78
 1061.25        2973.75           2481        1647.00      7178.30
 1061.28        2974.00           2484        1591.00      6934.07
 1061.31        2974.25           2488        1554.00      6772.70
 1061.35        2974.50           2491        1528.00      6659.31
 1061.38        2974.75           2495        1537.00      6698.56
 1061.41        2975.00           2498        1494.00      6511.03
 1061.44        2975.25           2502        1525.00      6646.23
 1061.47        2975.50           2505        1448.00      6310.42
 1061.50        2975.75           2509        1436.00      6258.09
 1061.53        2976.00           2512        1448.00      6310.42
 1061.56        2976.25           2516        1433.00      6245.01
 1061.59        2976.50           2520        1375.00      5992.07
 1061.62        2976.75           2523        1368.00      5961.54
 1061.65        2977.00           2527        1369.00      5965.90
 1061.68        2977.25           2530        1338.00      5830.71
 1061.71        2977.50           2534        1343.00      5852.52
 1061.74        2977.75           2537        1354.00      5900.49
 1061.77        2978.00           2541        1332.00      5804.55
 1061.80        2978.25           2544        1297.00      5651.91
 1061.84        2978.50           2548        1317.00      5739.13
 1061.87        2978.75           2552        1309.00      5704.25
 1061.90        2979.00           2555        1283.00      5590.86
 1061.93        2979.25           2559        1304.00      5682.44
 1061.96        2979.50           2562        1269.00      5529.81
 1061.99        2979.75           2566        1261.00      5494.92
 1062.02        2980.00           2569        1261.00      5494.92
 1062.05        2980.25           2573        1271.00      5538.53
 1062.08        2980.50           2577        1260.00      5490.56
 1062.11        2980.75           2580        1261.00      5494.92
 1062.14        2981.00           2584        1236.00      5385.90
 1062.17        2981.25           2587        1227.00      5346.66
 1062.20        2981.50           2591        1193.00      5198.39
 1062.23        2981.75           2594        1188.00      5176.59
 1062.26        2982.00           2598        1222.00      5324.85
 1062.29        2982.25           2601        1239.00      5398.99
 1062.32        2982.50           2605        1184.00      5159.14
 1062.36        2982.75           2609        1170.00      5098.09
 1062.39        2983.00           2612        1180.00      5141.70
 1062.42        2983.25           2616        1244.00      5420.79
 1062.45        2983.50           2619        1182.00      5150.42
 1062.48        2983.75           2623        1189.00      5180.95
 1062.51        2984.00           2626        1150.00      5010.88
HS scan finished at 17:42:44
end
