************************************************************
  HS Scan of (1) Internal mercury lamp
************************************************************
Integration time is 0.2294 seconds per sample
dh230119Reading 51.44 .94 2.35pr1000
************************************************************
Dead Time -------------------------  3.4E-08 
Number of Cycles Used -------------  4 
Starting Wavelength (Angstroms) ---  2950 
Final Wavelength (Angstoms) -------  2984 
Wavelength Increment (Angstroms) --  .25 
Filter Wheel #1 Position ---------- (1) Ground quartz diffuser (ND=2.32)
Filter Wheel #2 Position ---------- (1) Neutral Density 0.494



************************************************************
HS scan start time = 05:11:04
Dark Count =  .3 


Time (GMT)  Wavelength (Ang)  Step Number  Raw Counts  Counts/Second

  311.96        2950.00           2144        1628.00      7097.18
  312.15        2950.25           2147        1631.00      7110.26
  312.18        2950.50           2151        1623.00      7075.37
  312.21        2950.75           2155        1640.00      7149.51
  312.24        2951.00           2158        1628.00      7097.18
  312.27        2951.25           2162        1617.00      7049.20
  312.31        2951.50           2165        1587.00      6918.37
  312.34        2951.75           2169        1629.00      7101.54
  312.37        2952.00           2172        1616.00      7044.84
  312.40        2952.25           2176        1653.00      7206.21
  312.43        2952.50           2179        1678.00      7315.25
  312.46        2952.75           2183        1668.00      7271.63
  312.49        2953.00           2186        1655.00      7214.93
  312.52        2953.25           2190        1650.00      7193.13
  312.56        2953.50           2193        1629.00      7101.54
  312.59        2953.75           2197        1659.00      7232.38
  312.62        2954.00           2200        1665.00      7258.55
  312.65        2954.25           2204        1714.00      7472.26
  312.68        2954.50           2208        1689.00      7363.22
  312.71        2954.75           2211        1701.00      7415.56
  312.74        2955.00           2215        1738.00      7576.93
  312.77        2955.25           2218        1704.00      7428.64
  312.80        2955.50           2222        1732.00      7550.76
  312.83        2955.75           2225        1706.00      7437.36
  312.86        2956.00           2229        1721.00      7502.79
  312.89        2956.25           2232        1734.00      7559.48
  312.92        2956.50           2236        1759.00      7668.52
  312.95        2956.75           2239        1744.00      7603.10
  312.98        2957.00           2243        1771.00      7720.86
  313.01        2957.25           2246        1752.00      7637.99
  313.04        2957.50           2250        1792.00      7812.45
  313.07        2957.75           2254        1814.00      7908.40
  313.11        2958.00           2257        1813.00      7904.04
  313.14        2958.25           2261        1806.00      7873.51
  313.17        2958.50           2264        1845.00      8043.61
  313.20        2958.75           2268        1914.00      8344.56
  313.23        2959.00           2271        1843.00      8034.89
  313.26        2959.25           2275        1899.00      8279.14
  313.29        2959.50           2278        1903.00      8296.59
  313.32        2959.75           2282        1947.00      8488.50
  313.35        2960.00           2285        1933.00      8427.44
  313.38        2960.25           2289        1952.00      8510.31
  313.41        2960.50           2293        2003.00      8732.76
  313.44        2960.75           2296        2099.00      9151.50
  313.47        2961.00           2300        2162.00      9426.30
  313.50        2961.25           2303        2813.00     12266.23
  313.53        2961.50           2307        8246.00     35988.65
  313.56        2961.75           2310       17267.00     75462.32
  313.59        2962.00           2314       32820.00    143768.60
  313.63        2962.25           2317       45760.00    200842.40
  313.66        2962.50           2321       64164.00    282400.80
  313.69        2962.75           2324       78023.00    344119.20
  313.72        2963.00           2328       98222.00    434540.80
  313.75        2963.25           2331      114275.00    506804.20
  313.78        2963.50           2335      135964.00    605010.90
  313.81        2963.75           2339      157756.00    704356.00
  313.84        2964.00           2342      174060.00    779129.10
  313.87        2964.25           2346      193412.00    868384.20
  313.90        2964.50           2349      206201.00    927672.70
  313.93        2964.75           2353      226294.00   1021315.00
  313.96        2965.00           2356      241790.00   1093951.00
  313.99        2965.25           2360      262194.00   1190153.00
  314.02        2965.50           2363      276232.00   1256715.00
  314.05        2965.75           2367      293412.00   1338597.00
  314.08        2966.00           2370      306291.00   1400287.00
  314.12        2966.25           2374      323584.00   1483540.00
  314.15        2966.50           2378      337416.00   1550480.00
  314.18        2966.75           2381      342577.00   1575538.00
  314.21        2967.00           2385      344173.00   1583296.00
  314.24        2967.25           2388      344491.00   1584842.00
  314.27        2967.50           2392      344144.00   1583154.00
  314.30        2967.75           2395      343164.00   1578391.00
  314.33        2968.00           2399      337999.00   1553309.00
  314.36        2968.25           2402      329812.00   1513642.00
  314.39        2968.50           2406      313819.00   1436469.00
  314.42        2968.75           2409      299815.00   1369234.00
  314.45        2969.00           2413      280493.00   1276980.00
  314.48        2969.25           2417      260330.00   1181337.00
  314.51        2969.50           2420      244586.00   1107096.00
  314.54        2969.75           2424      223616.00   1008800.00
  314.57        2970.00           2427      208489.00    938305.20
  314.60        2970.25           2431      188318.00    844836.40
  314.63        2970.50           2434      172917.00    773874.60
  314.67        2970.75           2438      151839.00    677314.50
  314.70        2971.00           2441      135713.00    603870.60
  314.73        2971.25           2445      114056.00    505816.00
  314.76        2971.50           2449       94679.00    418639.80
  314.79        2971.75           2452       80193.00    353806.50
  314.82        2972.00           2456       59702.00    262585.50
  314.85        2972.25           2459       44481.00    195191.30
  314.88        2972.50           2463       24787.00    108449.30
  314.91        2972.75           2466       12526.00     54703.66
  314.94        2973.00           2470        4512.00     19680.56
  314.97        2973.25           2473        2663.00     11611.82
  315.00        2973.50           2477        2079.00      9064.26
  315.03        2973.75           2481        2021.00      8811.27
  315.06        2974.00           2484        1986.00      8658.61
  315.09        2974.25           2488        1975.00      8610.63
  315.12        2974.50           2491        1939.00      8453.61
  315.15        2974.75           2495        1882.00      8204.99
  315.19        2975.00           2498        1909.00      8322.76
  315.22        2975.25           2502        1847.00      8052.34
  315.25        2975.50           2505        1818.00      7925.85
  315.28        2975.75           2509        1851.00      8069.78
  315.31        2976.00           2512        1775.00      7738.30
  315.34        2976.25           2516        1775.00      7738.30
  315.37        2976.50           2520        1765.00      7694.69
  315.40        2976.75           2523        1734.00      7559.48
  315.43        2977.00           2527        1761.00      7677.24
  315.46        2977.25           2530        1727.00      7528.95
  315.49        2977.50           2534        1677.00      7310.88
  315.52        2977.75           2537        1687.00      7354.50
  315.55        2978.00           2541        1680.00      7323.97
  315.58        2978.25           2544        1685.00      7345.78
  315.61        2978.50           2548        1694.00      7385.03
  315.64        2978.75           2552        1668.00      7271.63
  315.67        2979.00           2555        1662.00      7245.46
  315.71        2979.25           2559        1611.00      7023.04
  315.74        2979.50           2562        1573.00      6857.31
  315.77        2979.75           2566        1620.00      7062.29
  315.80        2980.00           2569        1631.00      7110.26
  315.83        2980.25           2573        1609.00      7014.31
  315.86        2980.50           2577        1579.00      6883.48
  315.89        2980.75           2580        1544.00      6730.83
  315.92        2981.00           2584        1592.00      6940.17
  315.95        2981.25           2587        1526.00      6652.33
  315.98        2981.50           2591        1543.00      6726.47
  316.01        2981.75           2594        1561.00      6804.97
  316.04        2982.00           2598        1503.00      6552.03
  316.07        2982.25           2601        1570.00      6844.23
  316.10        2982.50           2605        1553.00      6770.08
  316.13        2982.75           2609        1534.00      6687.22
  316.16        2983.00           2612        1533.00      6682.86
  316.19        2983.25           2616        1517.00      6613.08
  316.23        2983.50           2619        1513.00      6595.64
  316.26        2983.75           2623        1514.00      6600.00
  316.29        2984.00           2626        1528.00      6661.05
HS scan finished at 05:16:30
end
************************************************************
  HS Scan of (1) Internal mercury lamp
************************************************************
Integration time is 0.2294 seconds per sample
dh230119Reading 51.44 .94 2.58pr1000
************************************************************
Dead Time -------------------------  3.4E-08 
Number of Cycles Used -------------  4 
Starting Wavelength (Angstroms) ---  2950 
Final Wavelength (Angstoms) -------  2984 
Wavelength Increment (Angstroms) --  .25 
Filter Wheel #1 Position ---------- (1) Ground quartz diffuser (ND=2.32)
Filter Wheel #2 Position ---------- (1) Neutral Density 0.494



************************************************************
HS scan start time = 17:37:17
Dark Count =  .4 


Time (GMT)  Wavelength (Ang)  Step Number  Raw Counts  Counts/Second

 1058.18        2950.00           2144        1168.00      5090.68
 1058.38        2950.25           2147        1186.00      5169.17
 1058.41        2950.50           2151        1165.00      5077.60
 1058.44        2950.75           2155        1217.00      5304.36
 1058.47        2951.00           2158        1203.00      5243.31
 1058.50        2951.25           2162        1177.00      5129.93
 1058.53        2951.50           2165        1201.00      5234.58
 1058.56        2951.75           2169        1172.00      5108.12
 1058.60        2952.00           2172        1174.00      5116.84
 1058.63        2952.25           2176        1195.00      5208.42
 1058.66        2952.50           2179        1203.00      5243.31
 1058.69        2952.75           2183        1178.00      5134.29
 1058.72        2953.00           2186        1196.00      5212.78
 1058.75        2953.25           2190        1215.00      5295.64
 1058.78        2953.50           2193        1215.00      5295.64
 1058.81        2953.75           2197        1217.00      5304.36
 1058.84        2954.00           2200        1218.00      5308.72
 1058.87        2954.25           2204        1231.00      5365.41
 1058.90        2954.50           2208        1222.00      5326.16
 1058.93        2954.75           2211        1239.00      5400.29
 1058.96        2955.00           2215        1208.00      5265.11
 1058.99        2955.25           2218        1215.00      5295.64
 1059.02        2955.50           2222        1248.00      5439.54
 1059.05        2955.75           2225        1239.00      5400.29
 1059.08        2956.00           2229        1241.00      5409.02
 1059.12        2956.25           2232        1251.00      5452.62
 1059.15        2956.50           2236        1253.00      5461.35
 1059.18        2956.75           2239        1306.00      5692.47
 1059.21        2957.00           2243        1256.00      5474.43
 1059.24        2957.25           2246        1299.00      5661.94
 1059.27        2957.50           2250        1316.00      5736.08
 1059.30        2957.75           2254        1309.00      5705.55
 1059.33        2958.00           2257        1326.00      5779.69
 1059.36        2958.25           2261        1314.00      5727.36
 1059.39        2958.50           2264        1333.00      5810.22
 1059.42        2958.75           2268        1328.00      5788.41
 1059.45        2959.00           2271        1384.00      6032.62
 1059.48        2959.25           2275        1370.00      5971.57
 1059.51        2959.50           2278        1423.00      6202.70
 1059.54        2959.75           2282        1429.00      6228.87
 1059.57        2960.00           2285        1439.00      6272.48
 1059.60        2960.25           2289        1443.00      6289.92
 1059.64        2960.50           2293        1421.00      6193.98
 1059.67        2960.75           2296        1483.00      6464.37
 1059.70        2961.00           2300        1531.00      6673.70
 1059.73        2961.25           2303        1792.00      7812.01
 1059.76        2961.50           2307        4687.00     20444.02
 1059.79        2961.75           2310       10969.00     47892.22
 1059.82        2962.00           2314       22624.00     98953.11
 1059.85        2962.25           2317       32305.00    141501.30
 1059.88        2962.50           2321       46643.00    204744.70
 1059.91        2962.75           2324       57971.00    254905.00
 1059.94        2963.00           2328       74556.00    328654.70
 1059.97        2963.25           2331       86378.00    381452.40
 1060.00        2963.50           2335      103902.00    460068.20
 1060.03        2963.75           2339      119606.00    530881.00
 1060.06        2964.00           2342      131451.00    584521.10
 1060.09        2964.25           2346      146750.00    654096.70
 1060.12        2964.50           2349      158505.00    707782.10
 1060.16        2964.75           2353      174871.00    782858.10
 1060.19        2965.00           2356      186593.00    836870.50
 1060.22        2965.25           2360      201099.00    903990.70
 1060.25        2965.50           2363      212138.00    955278.20
 1060.28        2965.75           2367      226404.00   1021829.00
 1060.31        2966.00           2370      236698.00   1070042.00
 1060.34        2966.25           2374      250323.00   1134104.00
 1060.37        2966.50           2378      262639.00   1192257.00
 1060.40        2966.75           2381      267046.00   1213124.00
 1060.43        2967.00           2385      269048.00   1222613.00
 1060.46        2967.25           2388      268923.00   1222020.00
 1060.49        2967.50           2392      268837.00   1221612.00
 1060.52        2967.75           2395      268675.00   1220844.00
 1060.55        2968.00           2399      266531.00   1210684.00
 1060.58        2968.25           2402      260739.00   1183271.00
 1060.61        2968.50           2406      248501.00   1125521.00
 1060.64        2968.75           2409      237876.00   1075569.00
 1060.68        2969.00           2413      223283.00   1007243.00
 1060.71        2969.25           2417      207749.00    934865.00
 1060.74        2969.50           2420      197141.00    885645.90
 1060.77        2969.75           2424      182413.00    817586.90
 1060.80        2970.00           2427      170451.00    762543.90
 1060.83        2970.25           2431      152353.00    679661.00
 1060.86        2970.50           2434      139866.00    622749.00
 1060.89        2970.75           2438      122298.00    543054.30
 1060.92        2971.00           2441      110246.00    488633.30
 1060.95        2971.25           2445       94409.00    417428.30
 1060.98        2971.50           2449       78064.00    344301.70
 1061.01        2971.75           2452       64595.00    284315.90
 1061.04        2972.00           2456       48820.00    214371.10
 1061.07        2972.25           2459       37363.00    163780.50
 1061.10        2972.50           2463       23546.00    103000.00
 1061.13        2972.75           2466       13402.00     58536.62
 1061.16        2973.00           2470        4580.00     19976.95
 1061.20        2973.25           2473        2264.00      9870.79
 1061.23        2973.50           2477        1604.00      6992.07
 1061.26        2973.75           2481        1490.00      6494.90
 1061.29        2974.00           2484        1489.00      6490.53
 1061.32        2974.25           2488        1451.00      6324.81
 1061.35        2974.50           2491        1416.00      6172.18
 1061.38        2974.75           2495        1406.00      6128.57
 1061.41        2975.00           2498        1407.00      6132.93
 1061.44        2975.25           2502        1347.00      5871.27
 1061.47        2975.50           2505        1336.00      5823.30
 1061.50        2975.75           2509        1287.00      5609.61
 1061.53        2976.00           2512        1328.00      5788.41
 1061.56        2976.25           2516        1278.00      5570.37
 1061.59        2976.50           2520        1277.00      5566.01
 1061.62        2976.75           2523        1283.00      5592.17
 1061.65        2977.00           2527        1248.00      5439.54
 1061.68        2977.25           2530        1247.00      5435.18
 1061.71        2977.50           2534        1245.00      5426.46
 1061.75        2977.75           2537        1259.00      5487.51
 1061.78        2978.00           2541        1235.00      5382.85
 1061.81        2978.25           2544        1263.00      5504.95
 1061.84        2978.50           2548        1237.00      5391.57
 1061.87        2978.75           2552        1191.00      5190.98
 1061.90        2979.00           2555        1195.00      5208.42
 1061.93        2979.25           2559        1183.00      5156.09
 1061.96        2979.50           2562        1193.00      5199.70
 1061.99        2979.75           2566        1167.00      5086.32
 1062.02        2980.00           2569        1184.00      5160.45
 1062.05        2980.25           2573        1131.00      4929.34
 1062.08        2980.50           2577        1141.00      4972.94
 1062.11        2980.75           2580        1176.00      5125.57
 1062.14        2981.00           2584        1154.00      5029.63
 1062.17        2981.25           2587        1141.00      4972.94
 1062.20        2981.50           2591        1127.00      4911.89
 1062.23        2981.75           2594        1129.00      4920.61
 1062.27        2982.00           2598        1120.00      4881.37
 1062.30        2982.25           2601        1134.00      4942.42
 1062.33        2982.50           2605        1127.00      4911.89
 1062.36        2982.75           2609        1129.00      4920.61
 1062.39        2983.00           2612        1088.00      4741.83
 1062.42        2983.25           2616        1092.00      4759.27
 1062.45        2983.50           2619        1090.00      4750.55
 1062.48        2983.75           2623        1088.00      4741.83
 1062.51        2984.00           2626        1106.00      4820.32
HS scan finished at 17:42:44
end
