************************************************************
  HS Scan of (1) Internal mercury lamp
************************************************************
Integration time is 0.2294 seconds per sample
dh220119Reading 51.44 .94 2.5pr1000
************************************************************
Dead Time -------------------------  3.4E-08 
Number of Cycles Used -------------  4 
Starting Wavelength (Angstroms) ---  2950 
Final Wavelength (Angstoms) -------  2984 
Wavelength Increment (Angstroms) --  .25 
Filter Wheel #1 Position ---------- (1) Ground quartz diffuser (ND=2.32)
Filter Wheel #2 Position ---------- (1) Neutral Density 0.494



************************************************************
HS scan start time = 05:08:56
Dark Count =  .4 


Time (GMT)  Wavelength (Ang)  Step Number  Raw Counts  Counts/Second

  309.84        2950.00           2144        1591.00      6935.38
  310.03        2950.25           2147        1604.00      6992.07
  310.06        2950.50           2151        1618.00      7053.13
  310.09        2950.75           2155        1630.00      7105.47
  310.12        2951.00           2158        1623.00      7074.94
  310.15        2951.25           2162        1620.00      7061.85
  310.18        2951.50           2165        1644.00      7166.52
  310.21        2951.75           2169        1623.00      7074.94
  310.24        2952.00           2172        1648.00      7183.97
  310.28        2952.25           2176        1632.00      7114.19
  310.31        2952.50           2179        1637.00      7135.99
  310.34        2952.75           2183        1662.00      7245.03
  310.37        2953.00           2186        1678.00      7314.81
  310.40        2953.25           2190        1656.00      7218.86
  310.43        2953.50           2193        1652.00      7201.41
  310.46        2953.75           2197        1678.00      7314.81
  310.49        2954.00           2200        1641.00      7153.44
  310.52        2954.25           2204        1662.00      7245.03
  310.55        2954.50           2208        1689.00      7362.78
  310.58        2954.75           2211        1659.00      7231.94
  310.61        2955.00           2215        1679.00      7319.17
  310.64        2955.25           2218        1695.00      7388.95
  310.67        2955.50           2222        1688.00      7358.42
  310.70        2955.75           2225        1742.00      7593.94
  310.73        2956.00           2229        1703.00      7423.84
  310.76        2956.25           2232        1708.00      7445.65
  310.80        2956.50           2236        1757.00      7659.36
  310.83        2956.75           2239        1723.00      7511.07
  310.86        2957.00           2243        1761.00      7676.81
  310.89        2957.25           2246        1773.00      7729.15
  310.92        2957.50           2250        1795.00      7825.10
  310.95        2957.75           2254        1777.00      7746.59
  310.98        2958.00           2257        1804.00      7864.35
  311.01        2958.25           2261        1838.00      8012.65
  311.04        2958.50           2264        1849.00      8060.62
  311.07        2958.75           2268        1848.00      8056.26
  311.10        2959.00           2271        1851.00      8069.35
  311.13        2959.25           2275        1902.00      8291.79
  311.16        2959.50           2278        1859.00      8104.24
  311.19        2959.75           2282        1896.00      8265.62
  311.22        2960.00           2285        1947.00      8488.06
  311.25        2960.25           2289        1958.00      8536.04
  311.28        2960.50           2293        1960.00      8544.77
  311.32        2960.75           2296        2080.00      9068.18
  311.35        2961.00           2300        2212.00      9643.97
  311.38        2961.25           2303        2937.00     12806.80
  311.41        2961.50           2307        8434.00     36809.77
  311.44        2961.75           2310       17904.00     78253.27
  311.47        2962.00           2314       34922.00    153024.30
  311.50        2962.25           2317       49500.00    217379.30
  311.53        2962.50           2321       70651.00    311256.60
  311.56        2962.75           2324       85578.00    377873.50
  311.59        2963.00           2328      104626.00    463325.40
  311.62        2963.25           2331      120326.00    534135.80
  311.65        2963.50           2335      143681.00    640113.00
  311.68        2963.75           2339      165744.00    740941.80
  311.71        2964.00           2342      181373.00    812793.10
  311.74        2964.25           2346      200812.00    902659.70
  311.77        2964.50           2349      215799.00    972327.60
  311.80        2964.75           2353      237384.00   1073260.00
  311.84        2965.00           2356      254021.00   1151541.00
  311.87        2965.25           2360      274910.00   1250433.00
  311.90        2965.50           2363      289319.00   1319046.00
  311.93        2965.75           2367      308059.00   1408776.00
  311.96        2966.00           2370      322805.00   1479779.00
  311.99        2966.25           2374      340990.00   1567828.00
  312.02        2966.50           2378      353656.00   1629476.00
  312.05        2966.75           2381      359746.00   1659213.00
  312.08        2967.00           2385      361071.00   1665691.00
  312.11        2967.25           2388      361109.00   1665876.00
  312.14        2967.50           2392      360468.00   1662742.00
  312.17        2967.75           2395      359671.00   1658846.00
  312.20        2968.00           2399      354522.00   1633701.00
  312.23        2968.25           2402      345644.00   1590449.00
  312.26        2968.50           2406      328766.00   1508581.00
  312.29        2968.75           2409      312823.00   1431676.00
  312.32        2969.00           2413      290394.00   1324178.00
  312.35        2969.25           2417      269327.00   1223935.00
  312.39        2969.50           2420      254978.00   1156056.00
  312.42        2969.75           2424      234497.00   1059720.00
  312.45        2970.00           2427      218236.00    983687.90
  312.48        2970.25           2431      195671.00    878838.50
  312.51        2970.50           2434      179965.00    806305.50
  312.54        2970.75           2438      159449.00    712102.00
  312.57        2971.00           2441      142470.00    634598.80
  312.60        2971.25           2445      119035.00    528300.10
  312.63        2971.50           2449       96020.00    424655.70
  312.66        2971.75           2452       80364.00    354569.70
  312.69        2972.00           2456       60831.00    267596.30
  312.72        2972.25           2459       45624.00    200241.00
  312.75        2972.50           2463       24541.00    107368.60
  312.78        2972.75           2466       12118.00     52918.15
  312.81        2973.00           2470        4479.00     19536.08
  312.84        2973.25           2473        2766.00     12060.74
  312.87        2973.50           2477        2114.00      9216.49
  312.91        2973.75           2481        2025.00      8828.28
  312.94        2974.00           2484        1972.00      8597.11
  312.97        2974.25           2488        1940.00      8457.53
  313.00        2974.50           2491        1957.00      8531.68
  313.03        2974.75           2495        1897.00      8269.98
  313.06        2975.00           2498        1879.00      8191.47
  313.09        2975.25           2502        1877.00      8182.75
  313.12        2975.50           2505        1828.00      7969.03
  313.15        2975.75           2509        1781.00      7764.04
  313.18        2976.00           2512        1780.00      7759.68
  313.21        2976.25           2516        1790.00      7803.29
  313.24        2976.50           2520        1776.00      7742.23
  313.27        2976.75           2523        1711.00      7458.74
  313.30        2977.00           2527        1740.00      7585.22
  313.33        2977.25           2530        1710.00      7454.37
  313.36        2977.50           2534        1681.00      7327.89
  313.39        2977.75           2537        1680.00      7323.53
  313.43        2978.00           2541        1618.00      7053.13
  313.46        2978.25           2544        1662.00      7245.03
  313.49        2978.50           2548        1638.00      7140.36
  313.52        2978.75           2552        1651.00      7197.05
  313.55        2979.00           2555        1643.00      7162.16
  313.58        2979.25           2559        1622.00      7070.58
  313.61        2979.50           2562        1657.00      7223.22
  313.64        2979.75           2566        1573.00      6856.87
  313.67        2980.00           2569        1589.00      6926.65
  313.70        2980.25           2573        1589.00      6926.65
  313.73        2980.50           2577        1570.00      6843.79
  313.76        2980.75           2580        1547.00      6743.48
  313.79        2981.00           2584        1546.00      6739.12
  313.82        2981.25           2587        1583.00      6900.49
  313.85        2981.50           2591        1512.00      6590.84
  313.88        2981.75           2594        1527.00      6656.26
  313.92        2982.00           2598        1488.00      6486.17
  313.95        2982.25           2601        1512.00      6590.84
  313.98        2982.50           2605        1521.00      6630.09
  314.01        2982.75           2609        1481.00      6455.65
  314.04        2983.00           2612        1512.00      6590.84
  314.07        2983.25           2616        1476.00      6433.84
  314.10        2983.50           2619        1461.00      6368.42
  314.13        2983.75           2623        1487.00      6481.81
  314.16        2984.00           2626        1531.00      6673.70
HS scan finished at 05:14:23
end
************************************************************
  HS Scan of (1) Internal mercury lamp
************************************************************
Integration time is 0.2294 seconds per sample
dh220119Reading 51.44 .94 2.49pr1000
************************************************************
Dead Time -------------------------  3.4E-08 
Number of Cycles Used -------------  4 
Starting Wavelength (Angstroms) ---  2950 
Final Wavelength (Angstoms) -------  2984 
Wavelength Increment (Angstroms) --  .25 
Filter Wheel #1 Position ---------- (1) Ground quartz diffuser (ND=2.32)
Filter Wheel #2 Position ---------- (1) Neutral Density 0.494



************************************************************
HS scan start time = 17:37:20
Dark Count =  .3 


Time (GMT)  Wavelength (Ang)  Step Number  Raw Counts  Counts/Second

 1058.23        2950.00           2144        1461.00      6368.86
 1058.43        2950.25           2147        1457.00      6351.42
 1058.46        2950.50           2151        1482.00      6460.44
 1058.49        2950.75           2155        1449.00      6316.53
 1058.52        2951.00           2158        1492.00      6504.05
 1058.55        2951.25           2162        1471.00      6412.47
 1058.58        2951.50           2165        1513.00      6595.64
 1058.61        2951.75           2169        1487.00      6482.25
 1058.64        2952.00           2172        1508.00      6573.83
 1058.67        2952.25           2176        1490.00      6495.33
 1058.70        2952.50           2179        1487.00      6482.25
 1058.73        2952.75           2183        1513.00      6595.64
 1058.76        2953.00           2186        1478.00      6443.00
 1058.79        2953.25           2190        1504.00      6556.39
 1058.83        2953.50           2193        1507.00      6569.47
 1058.86        2953.75           2197        1509.00      6578.19
 1058.89        2954.00           2200        1528.00      6661.05
 1058.92        2954.25           2204        1537.00      6700.31
 1058.95        2954.50           2208        1532.00      6678.50
 1058.98        2954.75           2211        1590.00      6931.45
 1059.01        2955.00           2215        1535.00      6691.58
 1059.04        2955.25           2218        1546.00      6739.56
 1059.07        2955.50           2222        1535.00      6691.58
 1059.10        2955.75           2225        1556.00      6783.17
 1059.13        2956.00           2229        1565.00      6822.42
 1059.16        2956.25           2232        1579.00      6883.48
 1059.19        2956.50           2236        1648.00      7184.41
 1059.22        2956.75           2239        1615.00      7040.48
 1059.25        2957.00           2243        1588.00      6922.73
 1059.28        2957.25           2246        1643.00      7162.60
 1059.31        2957.50           2250        1631.00      7110.26
 1059.34        2957.75           2254        1639.00      7145.15
 1059.38        2958.00           2257        1710.00      7454.81
 1059.41        2958.25           2261        1647.00      7180.04
 1059.44        2958.50           2264        1676.00      7306.52
 1059.47        2958.75           2268        1663.00      7249.83
 1059.50        2959.00           2271        1700.00      7411.20
 1059.53        2959.25           2275        1708.00      7446.09
 1059.56        2959.50           2278        1681.00      7328.33
 1059.59        2959.75           2282        1761.00      7677.24
 1059.62        2960.00           2285        1749.00      7624.91
 1059.65        2960.25           2289        1766.00      7699.05
 1059.68        2960.50           2293        1853.00      8078.50
 1059.71        2960.75           2296        1866.00      8135.21
 1059.74        2961.00           2300        1929.00      8409.99
 1059.77        2961.25           2303        2230.00      9722.92
 1059.80        2961.50           2307        5133.00     22391.50
 1059.83        2961.75           2310       12361.00     53981.73
 1059.86        2962.00           2314       26303.00    115108.30
 1059.89        2962.25           2317       38074.00    166915.40
 1059.93        2962.50           2321       55954.00    245961.60
 1059.96        2962.75           2324       69675.00    306911.80
 1059.99        2963.00           2328       89996.00    397649.20
 1060.02        2963.25           2331      105202.00    465917.70
 1060.05        2963.50           2335      123773.00    549729.20
 1060.08        2963.75           2339      140733.00    626693.80
 1060.11        2964.00           2342      155058.00    692019.50
 1060.14        2964.25           2346      175191.00    784330.40
 1060.17        2964.50           2349      190062.00    852894.10
 1060.20        2964.75           2353      209867.00    944712.80
 1060.23        2965.00           2356      223618.00   1008809.00
 1060.26        2965.25           2360      240398.00   1087411.00
 1060.29        2965.50           2363      253413.00   1148673.00
 1060.32        2965.75           2367      271253.00   1233071.00
 1060.35        2966.00           2370      285830.00   1302403.00
 1060.38        2966.25           2374      301231.00   1376018.00
 1060.42        2966.50           2378      313598.00   1435406.00
 1060.45        2966.75           2381      318238.00   1457751.00
 1060.48        2967.00           2385      320632.00   1469294.00
 1060.51        2967.25           2388      320994.00   1471040.00
 1060.54        2967.50           2392      320377.00   1468064.00
 1060.57        2967.75           2395      320710.00   1469670.00
 1060.60        2968.00           2399      317612.00   1454734.00
 1060.63        2968.25           2402      310602.00   1420996.00
 1060.66        2968.50           2406      294814.00   1345299.00
 1060.69        2968.75           2409      283617.00   1291855.00
 1060.72        2969.00           2413      268220.00   1218688.00
 1060.75        2969.25           2417      252414.00   1143961.00
 1060.78        2969.50           2420      237552.00   1074049.00
 1060.81        2969.75           2424      217469.00    980111.90
 1060.84        2970.00           2427      203121.00    913371.90
 1060.87        2970.25           2431      183900.00    824444.50
 1060.90        2970.50           2434      170809.00    764188.60
 1060.94        2970.75           2438      152081.00    678419.40
 1060.97        2971.00           2441      136945.00    609468.50
 1061.00        2971.25           2445      115799.00    513683.20
 1061.03        2971.50           2449       94378.00    417289.80
 1061.06        2971.75           2452       79254.00    349613.80
 1061.09        2972.00           2456       60939.00    268076.10
 1061.12        2972.25           2459       46881.00    205797.20
 1061.15        2972.50           2463       29636.00    129759.10
 1061.18        2972.75           2466       17849.00     78012.66
 1061.21        2973.00           2470        6630.00     28928.62
 1061.24        2973.25           2473        3238.00     14120.55
 1061.27        2973.50           2477        1989.00      8671.69
 1061.30        2973.75           2481        1904.00      8300.95
 1061.33        2974.00           2484        1836.00      8004.36
 1061.36        2974.25           2488        1827.00      7965.10
 1061.39        2974.50           2491        1789.00      7799.37
 1061.42        2974.75           2495        1734.00      7559.48
 1061.46        2975.00           2498        1743.00      7598.74
 1061.49        2975.25           2502        1668.00      7271.63
 1061.52        2975.50           2505        1698.00      7402.47
 1061.55        2975.75           2509        1644.00      7166.96
 1061.58        2976.00           2512        1634.00      7123.35
 1061.61        2976.25           2516        1623.00      7075.37
 1061.64        2976.50           2520        1635.00      7127.71
 1061.67        2976.75           2523        1625.00      7084.09
 1061.70        2977.00           2527        1581.00      6892.20
 1061.73        2977.25           2530        1568.00      6835.50
 1061.76        2977.50           2534        1585.00      6909.64
 1061.79        2977.75           2537        1565.00      6822.42
 1061.82        2978.00           2541        1530.00      6669.78
 1061.85        2978.25           2544        1555.00      6778.81
 1061.88        2978.50           2548        1531.00      6674.14
 1061.91        2978.75           2552        1486.00      6477.89
 1061.94        2979.00           2555        1479.00      6447.36
 1061.98        2979.25           2559        1504.00      6556.39
 1062.01        2979.50           2562        1483.00      6464.80
 1062.04        2979.75           2566        1464.00      6381.94
 1062.07        2980.00           2569        1466.00      6390.67
 1062.10        2980.25           2573        1433.00      6246.75
 1062.13        2980.50           2577        1401.00      6107.20
 1062.16        2980.75           2580        1465.00      6386.30
 1062.19        2981.00           2584        1462.00      6373.22
 1062.22        2981.25           2587        1414.00      6163.89
 1062.25        2981.50           2591        1420.00      6190.06
 1062.28        2981.75           2594        1411.00      6150.81
 1062.31        2982.00           2598        1438.00      6268.55
 1062.34        2982.25           2601        1407.00      6133.36
 1062.37        2982.50           2605        1405.00      6124.64
 1062.40        2982.75           2609        1386.00      6041.78
 1062.43        2983.00           2612        1372.00      5980.73
 1062.46        2983.25           2616        1368.00      5963.28
 1062.49        2983.50           2619        1372.00      5980.73
 1062.53        2983.75           2623        1395.00      6081.03
 1062.56        2984.00           2626        1341.00      5845.54
HS scan finished at 17:42:47
end
