************************************************************
  HS Scan of 
************************************************************
Integration time is 0.2294 seconds per sample
dh260117Reading 51.44 .94 2.35pr1000
************************************************************
Dead Time -------------------------  3.4E-08 
Number of Cycles Used -------------  4 
Starting Wavelength (Angstroms) ---  2950 
Final Wavelength (Angstoms) -------  2984 
Wavelength Increment (Angstroms) --  .25 
Filter Wheel #1 Position ---------- (1) Ground quartz diffuser (ND=2.32)
Filter Wheel #2 Position ---------- (1) Neutral Density 0.494



************************************************************
HS scan start time = 05:07:50
Dark Count =  .3 


Time (GMT)  Wavelength (Ang)  Step Number  Raw Counts  Counts/Second

  308.73        2950.00           2144         856.00      3730.64
  308.92        2950.25           2147         845.00      3682.68
  308.95        2950.50           2151         856.00      3730.64
  308.98        2950.75           2155         830.00      3617.27
  309.01        2951.00           2158         880.00      3835.29
  309.04        2951.25           2162         854.00      3721.92
  309.07        2951.50           2165         895.00      3900.69
  309.10        2951.75           2169         865.00      3769.88
  309.13        2952.00           2172         895.00      3900.69
  309.17        2952.25           2176         860.00      3748.08
  309.20        2952.50           2179         861.00      3752.44
  309.23        2952.75           2183         872.00      3800.40
  309.26        2953.00           2186         878.00      3826.57
  309.29        2953.25           2190         912.00      3974.82
  309.32        2953.50           2193         890.00      3878.89
  309.35        2953.75           2197         886.00      3861.45
  309.38        2954.00           2200         923.00      4022.78
  309.41        2954.25           2204         921.00      4014.06
  309.44        2954.50           2208         912.00      3974.82
  309.47        2954.75           2211         919.00      4005.34
  309.50        2955.00           2215         890.00      3878.89
  309.53        2955.25           2218         898.00      3913.77
  309.56        2955.50           2222         916.00      3992.26
  309.59        2955.75           2225         898.00      3913.77
  309.62        2956.00           2229         937.00      4083.83
  309.65        2956.25           2232         892.00      3887.61
  309.68        2956.50           2236         938.00      4088.19
  309.72        2956.75           2239         910.00      3966.10
  309.75        2957.00           2243         938.00      4088.19
  309.78        2957.25           2246         928.00      4044.58
  309.81        2957.50           2250         939.00      4092.55
  309.84        2957.75           2254         950.00      4140.51
  309.87        2958.00           2257         942.00      4105.63
  309.90        2958.25           2261         950.00      4140.51
  309.93        2958.50           2264         956.00      4166.68
  309.96        2958.75           2268         969.00      4223.36
  309.99        2959.00           2271         967.00      4214.64
  310.02        2959.25           2275         989.00      4310.57
  310.05        2959.50           2278         981.00      4275.69
  310.08        2959.75           2282        1010.00      4402.14
  310.11        2960.00           2285        1007.00      4389.06
  310.14        2960.25           2289        1018.00      4437.03
  310.17        2960.50           2293        1048.00      4567.84
  310.20        2960.75           2296        1086.00      4733.54
  310.24        2961.00           2300        1114.00      4855.64
  310.27        2961.25           2303        1216.00      5300.43
  310.30        2961.50           2307        3102.00     13527.14
  310.33        2961.75           2310        7740.00     33777.66
  310.36        2962.00           2314       16166.00     70638.94
  310.39        2962.25           2317       23422.00    102456.10
  310.42        2962.50           2321       32761.00    143508.90
  310.45        2962.75           2324       39715.00    174152.40
  310.48        2963.00           2328       49190.00    216008.30
  310.51        2963.25           2331       56589.00    248776.70
  310.54        2963.50           2335       67351.00    296570.50
  310.57        2963.75           2339       77964.00    343855.90
  310.60        2964.00           2342       86011.00    379810.90
  310.63        2964.25           2346       97142.00    429691.90
  310.66        2964.50           2349      104004.00    460527.50
  310.69        2964.75           2353      113511.00    503356.80
  310.72        2965.00           2356      119951.00    532441.00
  310.76        2965.25           2360      129889.00    577436.80
  310.79        2965.50           2363      137896.00    613791.10
  310.82        2965.75           2367      147416.00    657133.50
  310.85        2966.00           2370      154236.00    688263.00
  310.88        2966.25           2374      163265.00    729578.20
  310.91        2966.50           2378      169783.00    759476.80
  310.94        2966.75           2381      172698.00    772868.00
  310.97        2967.00           2385      173275.00    775520.20
  311.00        2967.25           2388      173635.00    777175.20
  311.03        2967.50           2392      173634.00    777170.50
  311.06        2967.75           2395      173553.00    776798.10
  311.09        2968.00           2399      171815.00    768810.30
  311.12        2968.25           2402      167868.00    750686.10
  311.15        2968.50           2406      159320.00    711512.10
  311.18        2968.75           2409      152147.00    678720.80
  311.22        2969.00           2413      140832.00    627144.30
  311.25        2969.25           2417      130290.00    579255.30
  311.28        2969.50           2420      123122.00    546783.00
  311.31        2969.75           2424      112979.00    500956.90
  311.34        2970.00           2427      105209.00    465949.10
  311.37        2970.25           2431       94296.00    416922.00
  311.40        2970.50           2434       86596.00    382428.20
  311.43        2970.75           2438       76525.00    337435.60
  311.47        2971.00           2441       68790.00    302972.90
  311.50        2971.25           2445       58312.00    256418.00
  311.53        2971.50           2449       47888.00    210249.60
  311.56        2971.75           2452       40704.00    178515.70
  311.59        2972.00           2456       31489.00    137910.60
  311.62        2972.25           2459       24023.00    105094.60
  311.65        2972.50           2463       13828.00     60401.60
  311.68        2972.75           2466        7424.00     32397.04
  311.71        2973.00           2470        2559.00     11158.11
  311.74        2973.25           2473        1485.00      6473.53
  311.77        2973.50           2477        1114.00      4855.64
  311.80        2973.75           2481        1065.00      4641.97
  311.83        2974.00           2484        1024.00      4463.19
  311.86        2974.25           2488        1054.00      4594.00
  311.89        2974.50           2491        1030.00      4489.35
  311.92        2974.75           2495        1017.00      4432.66
  311.95        2975.00           2498         973.00      4240.80
  311.99        2975.25           2502         955.00      4162.32
  312.02        2975.50           2505         966.00      4210.28
  312.05        2975.75           2509         940.00      4096.91
  312.08        2976.00           2512         950.00      4140.51
  312.11        2976.25           2516         937.00      4083.83
  312.14        2976.50           2520         923.00      4022.78
  312.17        2976.75           2523         905.00      3944.30
  312.20        2977.00           2527         923.00      4022.78
  312.23        2977.25           2530         916.00      3992.26
  312.26        2977.50           2534         905.00      3944.30
  312.29        2977.75           2537         888.00      3870.17
  312.32        2978.00           2541         892.00      3887.61
  312.35        2978.25           2544         871.00      3796.04
  312.38        2978.50           2548         853.00      3717.56
  312.41        2978.75           2552         858.00      3739.36
  312.44        2979.00           2555         834.00      3634.71
  312.47        2979.25           2559         869.00      3787.32
  312.50        2979.50           2562         873.00      3804.76
  312.54        2979.75           2566         827.00      3604.19
  312.57        2980.00           2569         872.00      3800.40
  312.60        2980.25           2573         831.00      3621.63
  312.63        2980.50           2577         848.00      3695.76
  312.66        2980.75           2580         787.00      3429.78
  312.69        2981.00           2584         819.00      3569.31
  312.72        2981.25           2587         833.00      3630.35
  312.75        2981.50           2591         830.00      3617.27
  312.78        2981.75           2594         809.00      3525.71
  312.81        2982.00           2598         795.00      3464.66
  312.84        2982.25           2601         793.00      3455.94
  312.87        2982.50           2605         816.00      3556.23
  312.90        2982.75           2609         811.00      3534.43
  312.93        2983.00           2612         799.00      3482.10
  312.96        2983.25           2616         807.00      3516.99
  312.99        2983.50           2619         788.00      3434.14
  313.02        2983.75           2623         776.00      3381.82
  313.06        2984.00           2626         770.00      3355.66
HS scan finished at 05:13:17
end
************************************************************
  HS Scan of 
************************************************************
Integration time is 0.2294 seconds per sample
dh260117Reading 51.44 .94 2.49pr1000
************************************************************
Dead Time -------------------------  3.4E-08 
Number of Cycles Used -------------  4 
Starting Wavelength (Angstroms) ---  2950 
Final Wavelength (Angstoms) -------  2984 
Wavelength Increment (Angstroms) --  .25 
Filter Wheel #1 Position ---------- (1) Ground quartz diffuser (ND=2.32)
Filter Wheel #2 Position ---------- (1) Neutral Density 0.494



************************************************************
HS scan start time = 17:40:20
Dark Count =  .4 


Time (GMT)  Wavelength (Ang)  Step Number  Raw Counts  Counts/Second

 1061.23        2950.00           2144         830.00      3616.84
 1061.42        2950.25           2147         814.00      3547.07
 1061.45        2950.50           2151         836.00      3643.00
 1061.48        2950.75           2155         829.00      3612.48
 1061.51        2951.00           2158         848.00      3695.32
 1061.54        2951.25           2162         820.00      3573.23
 1061.57        2951.50           2165         847.00      3690.96
 1061.60        2951.75           2169         804.00      3503.47
 1061.63        2952.00           2172         820.00      3573.23
 1061.66        2952.25           2176         809.00      3525.27
 1061.70        2952.50           2179         846.00      3686.60
 1061.73        2952.75           2183         833.00      3629.92
 1061.76        2953.00           2186         821.00      3577.59
 1061.79        2953.25           2190         862.00      3756.36
 1061.82        2953.50           2193         807.00      3516.55
 1061.85        2953.75           2197         802.00      3494.75
 1061.88        2954.00           2200         802.00      3494.75
 1061.91        2954.25           2204         826.00      3599.39
 1061.94        2954.50           2208         833.00      3629.92
 1061.97        2954.75           2211         841.00      3664.80
 1062.00        2955.00           2215         816.00      3555.79
 1062.03        2955.25           2218         811.00      3533.99
 1062.06        2955.50           2222         832.00      3625.56
 1062.09        2955.75           2225         831.00      3621.20
 1062.12        2956.00           2229         832.00      3625.56
 1062.15        2956.25           2232         832.00      3625.56
 1062.18        2956.50           2236         812.00      3538.35
 1062.22        2956.75           2239         847.00      3690.96
 1062.25        2957.00           2243         822.00      3581.95
 1062.28        2957.25           2246         851.00      3708.40
 1062.31        2957.50           2250         837.00      3647.36
 1062.34        2957.75           2254         841.00      3664.80
 1062.37        2958.00           2257         839.00      3656.08
 1062.40        2958.25           2261         879.00      3830.49
 1062.43        2958.50           2264         888.00      3869.73
 1062.46        2958.75           2268         881.00      3839.21
 1062.49        2959.00           2271         878.00      3826.13
 1062.52        2959.25           2275         875.00      3813.05
 1062.55        2959.50           2278         905.00      3943.86
 1062.58        2959.75           2282         897.00      3908.98
 1062.61        2960.00           2285         940.00      4096.47
 1062.64        2960.25           2289         918.00      4000.54
 1062.67        2960.50           2293         950.00      4140.08
 1062.70        2960.75           2296         951.00      4144.44
 1062.74        2961.00           2300         980.00      4270.89
 1062.77        2961.25           2303        1008.00      4392.98
 1062.80        2961.50           2307        1800.00      7846.91
 1062.83        2961.75           2310        4850.00     21155.58
 1062.86        2962.00           2314       11932.00     52104.43
 1062.89        2962.25           2317       17603.00     76934.20
 1062.92        2962.50           2321       25456.00    111387.00
 1062.95        2962.75           2324       31325.00    137188.50
 1062.98        2963.00           2328       39930.00    175100.40
 1063.01        2963.25           2331       46070.00    202212.00
 1063.04        2963.50           2335       54848.00    241059.20
 1063.07        2963.75           2339       63623.00    279996.40
 1063.10        2964.00           2342       70149.00    309021.50
 1063.13        2964.25           2346       78495.00    346225.30
 1063.16        2964.50           2349       84848.00    374608.50
 1063.19        2964.75           2353       92993.00    411078.70
 1063.22        2965.00           2356       98909.00    437625.60
 1063.26        2965.25           2360      107358.00    475622.60
 1063.29        2965.50           2363      113624.00    503866.20
 1063.32        2965.75           2367      121645.00    540100.60
 1063.35        2966.00           2370      127448.00    566371.40
 1063.38        2966.25           2374      134551.00    598592.20
 1063.41        2966.50           2378      139992.00    623322.10
 1063.44        2966.75           2381      142066.00    632759.80
 1063.47        2967.00           2385      142540.00    634917.50
 1063.50        2967.25           2388      142784.00    636028.40
 1063.53        2967.50           2392      142599.00    635186.10
 1063.56        2967.75           2395      142421.00    634375.80
 1063.59        2968.00           2399      140893.00    627421.30
 1063.62        2968.25           2402      136570.00    607763.80
 1063.65        2968.50           2406      129079.00    573763.60
 1063.68        2968.75           2409      124015.00    550824.00
 1063.71        2969.00           2413      117162.00    519837.80
 1063.74        2969.25           2417      109531.00    485411.10
 1063.78        2969.50           2420      104046.00    460716.00
 1063.81        2969.75           2424       95403.00    421887.30
 1063.84        2970.00           2427       89554.00    395669.10
 1063.87        2970.25           2431       80903.00    356977.00
 1063.90        2970.50           2434       73817.00    325360.60
 1063.93        2970.75           2438       64781.00    285142.50
 1063.96        2971.00           2441       58848.00    258795.50
 1063.99        2971.25           2445       50417.00    221436.90
 1064.02        2971.50           2449       42393.00    185969.90
 1064.05        2971.75           2452       36686.00    160796.50
 1064.08        2972.00           2456       28526.00    124877.80
 1064.11        2972.25           2459       22277.00     97430.32
 1064.14        2972.50           2463       14315.00     62532.99
 1064.17        2972.75           2466        8681.00     37889.23
 1064.20        2973.00           2470        3012.00     13134.03
 1064.23        2973.25           2473        1479.00      6446.92
 1064.26        2973.50           2477        1043.00      4545.60
 1064.30        2973.75           2481         999.00      4353.74
 1064.33        2974.00           2484         948.00      4131.36
 1064.36        2974.25           2488         928.00      4044.15
 1064.39        2974.50           2491         907.00      3952.58
 1064.42        2974.75           2495         894.00      3895.90
 1064.45        2975.00           2498         883.00      3847.93
 1064.48        2975.25           2502         894.00      3895.90
 1064.51        2975.50           2505         872.00      3799.97
 1064.54        2975.75           2509         842.00      3669.16
 1064.57        2976.00           2512         852.00      3712.76
 1064.60        2976.25           2516         868.00      3782.53
 1064.63        2976.50           2520         829.00      3612.48
 1064.66        2976.75           2523         818.00      3564.51
 1064.69        2977.00           2527         805.00      3507.83
 1064.72        2977.25           2530         824.00      3590.67
 1064.75        2977.50           2534         818.00      3564.51
 1064.78        2977.75           2537         812.00      3538.35
 1064.82        2978.00           2541         773.00      3368.30
 1064.85        2978.25           2544         778.00      3390.10
 1064.88        2978.50           2548         774.00      3372.66
 1064.91        2978.75           2552         761.00      3315.98
 1064.94        2979.00           2555         772.00      3363.94
 1064.97        2979.25           2559         794.00      3459.87
 1065.00        2979.50           2562         760.00      3311.62
 1065.03        2979.75           2566         761.00      3315.98
 1065.06        2980.00           2569         786.00      3424.98
 1065.09        2980.25           2573         766.00      3337.78
 1065.12        2980.50           2577         757.00      3298.54
 1065.15        2980.75           2580         754.00      3285.46
 1065.18        2981.00           2584         749.00      3263.66
 1065.21        2981.25           2587         771.00      3359.58
 1065.24        2981.50           2591         740.00      3224.42
 1065.27        2981.75           2594         781.00      3403.18
 1065.30        2982.00           2598         722.00      3145.93
 1065.34        2982.25           2601         735.00      3202.62
 1065.37        2982.50           2605         767.00      3342.14
 1065.40        2982.75           2609         731.00      3185.18
 1065.43        2983.00           2612         751.00      3272.38
 1065.46        2983.25           2616         740.00      3224.42
 1065.49        2983.50           2619         723.00      3150.29
 1065.52        2983.75           2623         708.00      3084.89
 1065.55        2984.00           2626         748.00      3259.30
HS scan finished at 17:45:46
end
