************************************************************
  HS Scan of 
************************************************************
Integration time is 0.2294 seconds per sample
dh220117Reading 51.44 .94 2.05pr1000
************************************************************
Dead Time -------------------------  3.4E-08 
Number of Cycles Used -------------  4 
Starting Wavelength (Angstroms) ---  2950 
Final Wavelength (Angstoms) -------  2984 
Wavelength Increment (Angstroms) --  .25 
Filter Wheel #1 Position ---------- (1) Ground quartz diffuser (ND=2.32)
Filter Wheel #2 Position ---------- (1) Neutral Density 0.494



************************************************************
HS scan start time = 05:11:37
Dark Count =  .2 


Time (GMT)  Wavelength (Ang)  Step Number  Raw Counts  Counts/Second

  312.52        2950.00           2144         870.00      3792.12
  312.71        2950.25           2147         855.00      3726.71
  312.74        2950.50           2151         889.00      3874.97
  312.77        2950.75           2155         860.00      3748.52
  312.80        2951.00           2158         855.00      3726.71
  312.83        2951.25           2162         848.00      3696.19
  312.86        2951.50           2165         848.00      3696.19
  312.89        2951.75           2169         869.00      3787.76
  312.93        2952.00           2172         853.00      3717.99
  312.96        2952.25           2176         881.00      3840.08
  312.99        2952.50           2179         883.00      3848.80
  313.02        2952.75           2183         919.00      4005.78
  313.05        2953.00           2186         887.00      3866.25
  313.08        2953.25           2190         873.00      3805.20
  313.11        2953.50           2193         853.00      3717.99
  313.14        2953.75           2197         862.00      3757.24
  313.17        2954.00           2200         880.00      3835.72
  313.20        2954.25           2204         892.00      3888.05
  313.23        2954.50           2208         883.00      3848.80
  313.26        2954.75           2211         879.00      3831.36
  313.29        2955.00           2215         931.00      4058.10
  313.32        2955.25           2218         933.00      4066.82
  313.35        2955.50           2222         901.00      3927.29
  313.38        2955.75           2225         966.00      4210.72
  313.41        2956.00           2229         924.00      4027.58
  313.45        2956.25           2232         909.00      3962.17
  313.48        2956.50           2236         915.00      3988.34
  313.51        2956.75           2239         942.00      4106.07
  313.54        2957.00           2243         928.00      4045.02
  313.57        2957.25           2246         924.00      4027.58
  313.60        2957.50           2250         927.00      4040.66
  313.63        2957.75           2254         938.00      4088.62
  313.66        2958.00           2257         957.00      4171.47
  313.69        2958.25           2261         946.00      4123.51
  313.72        2958.50           2264         943.00      4110.43
  313.75        2958.75           2268         943.00      4110.43
  313.78        2959.00           2271         969.00      4223.80
  313.81        2959.25           2275         977.00      4258.68
  313.84        2959.50           2278         978.00      4263.04
  313.87        2959.75           2282        1009.00      4398.22
  313.90        2960.00           2285         977.00      4258.68
  313.93        2960.25           2289        1013.00      4415.66
  313.97        2960.50           2293        1015.00      4424.38
  314.00        2960.75           2296        1010.00      4402.58
  314.03        2961.00           2300        1090.00      4751.42
  314.06        2961.25           2303        1152.00      5021.78
  314.09        2961.50           2307        2952.00     12873.11
  314.12        2961.75           2310        6895.00     30086.56
  314.15        2962.00           2314       13648.00     59614.17
  314.18        2962.25           2317       19466.00     85101.16
  314.21        2962.50           2321       27251.00    119274.40
  314.24        2962.75           2324       32992.00    144526.20
  314.27        2963.00           2328       40853.00    179173.70
  314.30        2963.25           2331       46704.00    205015.20
  314.33        2963.50           2335       55653.00    244627.80
  314.36        2963.75           2339       64988.00    286063.50
  314.39        2964.00           2342       71806.00    316401.20
  314.42        2964.25           2346       79319.00    349904.40
  314.45        2964.50           2349       85823.00    378970.30
  314.49        2964.75           2353       94378.00    417290.20
  314.52        2965.00           2356      100437.00    444490.80
  314.55        2965.25           2360      109018.00    483100.50
  314.58        2965.50           2363      114845.00    509377.10
  314.61        2965.75           2367      122277.00    542960.20
  314.64        2966.00           2370      127598.00    567052.00
  314.67        2966.25           2374      135679.00    603716.60
  314.70        2966.50           2378      142583.00    635114.30
  314.73        2966.75           2381      144458.00    643652.90
  314.76        2967.00           2385      145151.00    646810.10
  314.79        2967.25           2388      144933.00    645816.90
  314.82        2967.50           2392      145497.00    648386.80
  314.85        2967.75           2395      145093.00    646546.00
  314.88        2968.00           2399      144438.00    643561.80
  314.91        2968.25           2402      140518.00    625716.00
  314.94        2968.50           2406      133635.00    594434.00
  314.97        2968.75           2409      127530.00    566743.80
  315.00        2969.00           2413      118680.00    526696.80
  315.04        2969.25           2417      109255.00    484168.30
  315.07        2969.50           2420      102969.00    455872.80
  315.10        2969.75           2424       95014.00    420143.00
  315.13        2970.00           2427       88968.00    393045.80
  315.16        2970.25           2431       79587.00    351101.00
  315.19        2970.50           2434       72809.00    320869.50
  315.22        2970.75           2438       63975.00    281561.40
  315.25        2971.00           2441       57796.00    254129.70
  315.28        2971.25           2445       49313.00    216552.90
  315.31        2971.50           2449       40686.00    178436.70
  315.34        2971.75           2452       34359.00    150545.40
  315.37        2972.00           2456       26365.00    115381.10
  315.40        2972.25           2459       20130.00     88012.77
  315.43        2972.50           2463       12240.00     53452.77
  315.46        2972.75           2466        6574.00     28684.46
  315.49        2973.00           2470        2256.00      9836.77
  315.52        2973.25           2473        1321.00      5758.76
  315.56        2973.50           2477        1070.00      4664.21
  315.59        2973.75           2481        1006.00      4385.14
  315.62        2974.00           2484        1027.00      4476.71
  315.65        2974.25           2488         984.00      4289.20
  315.68        2974.50           2491         972.00      4236.88
  315.71        2974.75           2495         973.00      4241.24
  315.74        2975.00           2498         957.00      4171.47
  315.77        2975.25           2502         934.00      4071.18
  315.80        2975.50           2505         934.00      4071.18
  315.83        2975.75           2509         911.00      3970.89
  315.86        2976.00           2512         922.00      4018.86
  315.89        2976.25           2516         897.00      3909.85
  315.92        2976.50           2520         880.00      3835.72
  315.95        2976.75           2523         885.00      3857.52
  315.98        2977.00           2527         913.00      3979.61
  316.01        2977.25           2530         896.00      3905.49
  316.04        2977.50           2534         892.00      3888.05
  316.08        2977.75           2537         890.00      3879.33
  316.11        2978.00           2541         856.00      3731.07
  316.14        2978.25           2544         892.00      3888.05
  316.17        2978.50           2548         879.00      3831.36
  316.20        2978.75           2552         869.00      3787.76
  316.23        2979.00           2555         837.00      3648.23
  316.26        2979.25           2559         842.00      3670.03
  316.29        2979.50           2562         850.00      3704.91
  316.32        2979.75           2566         844.00      3678.75
  316.35        2980.00           2569         813.00      3543.58
  316.38        2980.25           2573         839.00      3656.95
  316.41        2980.50           2577         819.00      3569.74
  316.44        2980.75           2580         832.00      3626.43
  316.47        2981.00           2584         834.00      3635.15
  316.50        2981.25           2587         802.00      3495.62
  316.53        2981.50           2591         786.00      3425.86
  316.56        2981.75           2594         854.00      3722.35
  316.60        2982.00           2598         786.00      3425.86
  316.63        2982.25           2601         810.00      3530.50
  316.66        2982.50           2605         803.00      3499.98
  316.69        2982.75           2609         792.00      3452.02
  316.72        2983.00           2612         807.00      3517.42
  316.75        2983.25           2616         792.00      3452.02
  316.78        2983.50           2619         783.00      3412.78
  316.81        2983.75           2623         790.00      3443.30
  316.84        2984.00           2626         804.00      3504.34
HS scan finished at 05:17:04
end
************************************************************
  HS Scan of 
************************************************************
Integration time is 0.2294 seconds per sample
dh220117Reading 51.44 .94 2.64pr1000
************************************************************
Dead Time -------------------------  3.4E-08 
Number of Cycles Used -------------  4 
Starting Wavelength (Angstroms) ---  2950 
Final Wavelength (Angstoms) -------  2984 
Wavelength Increment (Angstroms) --  .25 
Filter Wheel #1 Position ---------- (1) Ground quartz diffuser (ND=2.32)
Filter Wheel #2 Position ---------- (1) Neutral Density 0.494



************************************************************
HS scan start time = 17:37:22
Dark Count =  .5 


Time (GMT)  Wavelength (Ang)  Step Number  Raw Counts  Counts/Second

 1058.26        2950.00           2144         799.00      3481.23
 1058.45        2950.25           2147         804.00      3503.03
 1058.48        2950.50           2151         828.00      3607.68
 1058.51        2950.75           2155         815.00      3551.00
 1058.54        2951.00           2158         791.00      3446.35
 1058.58        2951.25           2162         812.00      3537.91
 1058.61        2951.50           2165         794.00      3459.43
 1058.64        2951.75           2169         803.00      3498.67
 1058.67        2952.00           2172         792.00      3450.71
 1058.70        2952.25           2176         792.00      3450.71
 1058.73        2952.50           2179         805.00      3507.39
 1058.76        2952.75           2183         808.00      3520.47
 1058.79        2953.00           2186         778.00      3389.67
 1058.82        2953.25           2190         775.00      3376.59
 1058.85        2953.50           2193         804.00      3503.03
 1058.88        2953.75           2197         790.00      3441.99
 1058.91        2954.00           2200         819.00      3568.44
 1058.94        2954.25           2204         810.00      3529.19
 1058.97        2954.50           2208         807.00      3516.11
 1059.00        2954.75           2211         793.00      3455.07
 1059.03        2955.00           2215         804.00      3503.03
 1059.07        2955.25           2218         801.00      3489.95
 1059.10        2955.50           2222         840.00      3660.00
 1059.13        2955.75           2225         804.00      3503.03
 1059.16        2956.00           2229         834.00      3633.84
 1059.19        2956.25           2232         844.00      3677.44
 1059.22        2956.50           2236         823.00      3585.88
 1059.25        2956.75           2239         830.00      3616.40
 1059.28        2957.00           2243         826.00      3598.96
 1059.31        2957.25           2246         848.00      3694.88
 1059.34        2957.50           2250         848.00      3694.88
 1059.37        2957.75           2254         838.00      3651.28
 1059.40        2958.00           2257         834.00      3633.84
 1059.43        2958.25           2261         837.00      3646.92
 1059.46        2958.50           2264         856.00      3729.77
 1059.49        2958.75           2268         909.00      3960.86
 1059.52        2959.00           2271         870.00      3790.81
 1059.55        2959.25           2275         879.00      3830.05
 1059.59        2959.50           2278         874.00      3808.25
 1059.62        2959.75           2282         897.00      3908.54
 1059.65        2960.00           2285         893.00      3891.10
 1059.68        2960.25           2289         916.00      3991.39
 1059.71        2960.50           2293         917.00      3995.75
 1059.74        2960.75           2296         941.00      4100.40
 1059.77        2961.00           2300         946.00      4122.20
 1059.80        2961.25           2303        1063.00      4632.38
 1059.83        2961.50           2307        2326.00     10140.81
 1059.86        2961.75           2310        6014.00     26237.43
 1059.89        2962.00           2314       12995.00     56755.01
 1059.92        2962.25           2317       18330.00     80119.88
 1059.95        2962.50           2321       26198.00    114646.10
 1059.98        2962.75           2324       32031.00    140294.90
 1060.01        2963.00           2328       40738.00    178664.90
 1060.04        2963.25           2331       47097.00    206751.30
 1060.07        2963.50           2335       56421.00    248031.00
 1060.10        2963.75           2339       64366.00    283297.60
 1060.14        2964.00           2342       70336.00    309853.50
 1060.17        2964.25           2346       78707.00    347171.10
 1060.20        2964.50           2349       85589.00    377922.20
 1060.23        2964.75           2353       94650.00    418508.80
 1060.26        2965.00           2356      100541.00    444956.80
 1060.29        2965.25           2360      108407.00    480346.70
 1060.32        2965.50           2363      114606.00    508297.10
 1060.35        2965.75           2367      121455.00    539240.60
 1060.38        2966.00           2370      127185.00    565179.30
 1060.41        2966.25           2374      134842.00    599913.30
 1060.44        2966.50           2378      141400.00    629728.10
 1060.47        2966.75           2381      143606.00    639771.00
 1060.50        2967.00           2385      143865.00    640950.60
 1060.53        2967.25           2388      144284.00    642859.00
 1060.56        2967.50           2392      144160.00    642294.10
 1060.59        2967.75           2395      143973.00    641442.50
 1060.62        2968.00           2399      143299.00    638373.00
 1060.66        2968.25           2402      139856.00    622703.00
 1060.69        2968.50           2406      132616.00    589807.10
 1060.72        2968.75           2409      126768.00    563290.10
 1060.75        2969.00           2413      119008.00    528177.60
 1060.78        2969.25           2417      111180.00    492843.10
 1060.81        2969.50           2420      105260.00    466177.70
 1060.84        2969.75           2424       96735.00    427864.10
 1060.87        2970.00           2427       90027.00    397787.10
 1060.90        2970.25           2431       81098.00    357847.50
 1060.93        2970.50           2434       74610.00    328895.00
 1060.96        2970.75           2438       65330.00    287582.50
 1060.99        2971.00           2441       59019.00    259553.80
 1061.02        2971.25           2445       50841.00    223312.90
 1061.05        2971.50           2449       41893.00    183762.30
 1061.08        2971.75           2452       34869.00    152790.40
 1061.11        2972.00           2456       26389.00    115485.30
 1061.14        2972.25           2459       20238.00     88485.08
 1061.18        2972.50           2463       12880.00     56251.77
 1061.21        2972.75           2466        7616.00     33235.01
 1061.24        2973.00           2470        2679.00     11680.75
 1061.27        2973.25           2473        1364.00      5944.97
 1061.30        2973.50           2477         987.00      4300.98
 1061.33        2973.75           2481         972.00      4235.57
 1061.36        2974.00           2484         952.00      4148.36
 1061.39        2974.25           2488         910.00      3965.23
 1061.42        2974.50           2491         923.00      4021.91
 1061.45        2974.75           2495         885.00      3856.22
 1061.48        2975.00           2498         869.00      3786.45
 1061.51        2975.25           2502         848.00      3694.88
 1061.54        2975.50           2505         882.00      3843.14
 1061.57        2975.75           2509         857.00      3734.13
 1061.60        2976.00           2512         816.00      3555.36
 1061.63        2976.25           2516         845.00      3681.80
 1061.66        2976.50           2520         856.00      3729.77
 1061.70        2976.75           2523         825.00      3594.60
 1061.73        2977.00           2527         799.00      3481.23
 1061.76        2977.25           2530         806.00      3511.75
 1061.79        2977.50           2534         816.00      3555.36
 1061.82        2977.75           2537         807.00      3516.11
 1061.85        2978.00           2541         787.00      3428.91
 1061.88        2978.25           2544         792.00      3450.71
 1061.91        2978.50           2548         769.00      3350.43
 1061.94        2978.75           2552         785.00      3420.19
 1061.97        2979.00           2555         760.00      3311.18
 1062.00        2979.25           2559         763.00      3324.26
 1062.03        2979.50           2562         755.00      3289.38
 1062.06        2979.75           2566         755.00      3289.38
 1062.09        2980.00           2569         749.00      3263.22
 1062.12        2980.25           2573         741.00      3228.34
 1062.15        2980.50           2577         762.00      3319.90
 1062.18        2980.75           2580         731.00      3184.74
 1062.22        2981.00           2584         736.00      3206.54
 1062.25        2981.25           2587         769.00      3350.43
 1062.28        2981.50           2591         750.00      3267.58
 1062.31        2981.75           2594         758.00      3302.46
 1062.34        2982.00           2598         745.00      3245.78
 1062.37        2982.25           2601         733.00      3193.46
 1062.40        2982.50           2605         723.00      3149.86
 1062.43        2982.75           2609         711.00      3097.54
 1062.46        2983.00           2612         713.00      3106.26
 1062.49        2983.25           2616         704.00      3067.02
 1062.52        2983.50           2619         743.00      3237.06
 1062.55        2983.75           2623         709.00      3088.82
 1062.58        2984.00           2626         705.00      3071.38
HS scan finished at 17:42:48
end
