************************************************************
  HS Scan of (1) Internal mercury lamp
************************************************************
Integration time is 0.2294 seconds per sample
dh260119Reading 51.44 .94 2.9pr1000
************************************************************
Dead Time -------------------------  3.4E-08 
Number of Cycles Used -------------  4 
Starting Wavelength (Angstroms) ---  2950 
Final Wavelength (Angstoms) -------  2984 
Wavelength Increment (Angstroms) --  .25 
Filter Wheel #1 Position ---------- (1) Ground quartz diffuser (ND=2.32)
Filter Wheel #2 Position ---------- (1) Neutral Density 0.494



************************************************************
HS scan start time = 05:05:18
Dark Count =  .7 


Time (GMT)  Wavelength (Ang)  Step Number  Raw Counts  Counts/Second

  306.20        2950.00           2144        1598.00      6964.60
  306.39        2950.25           2147        1603.00      6986.40
  306.42        2950.50           2151        1620.00      7060.54
  306.45        2950.75           2155        1621.00      7064.91
  306.48        2951.00           2158        1614.00      7034.38
  306.51        2951.25           2162        1678.00      7313.50
  306.54        2951.50           2165        1616.00      7043.10
  306.57        2951.75           2169        1605.00      6995.12
  306.60        2952.00           2172        1638.00      7139.05
  306.63        2952.25           2176        1603.00      6986.40
  306.66        2952.50           2179        1638.00      7139.05
  306.69        2952.75           2183        1635.00      7125.96
  306.73        2953.00           2186        1658.00      7226.27
  306.76        2953.25           2190        1644.00      7165.22
  306.79        2953.50           2193        1683.00      7335.31
  306.82        2953.75           2197        1655.00      7213.19
  306.86        2954.00           2200        1657.00      7221.91
  306.89        2954.25           2204        1688.00      7357.12
  306.92        2954.50           2208        1660.00      7235.00
  306.95        2954.75           2211        1690.00      7365.84
  306.98        2955.00           2215        1699.00      7405.09
  307.01        2955.25           2218        1725.00      7518.49
  307.04        2955.50           2222        1712.00      7461.79
  307.07        2955.75           2225        1710.00      7453.07
  307.10        2956.00           2229        1739.00      7579.55
  307.13        2956.25           2232        1734.00      7557.74
  307.16        2956.50           2236        1764.00      7688.58
  307.19        2956.75           2239        1734.00      7557.74
  307.22        2957.00           2243        1799.00      7841.24
  307.25        2957.25           2246        1797.00      7832.51
  307.28        2957.50           2250        1822.00      7941.55
  307.32        2957.75           2254        1847.00      8050.59
  307.35        2958.00           2257        1797.00      7832.51
  307.38        2958.25           2261        1865.00      8129.10
  307.41        2958.50           2264        1897.00      8268.67
  307.44        2958.75           2268        1915.00      8347.18
  307.47        2959.00           2271        1915.00      8347.18
  307.50        2959.25           2275        1929.00      8408.24
  307.53        2959.50           2278        1956.00      8526.01
  307.56        2959.75           2282        1958.00      8534.74
  307.59        2960.00           2285        2009.00      8757.18
  307.62        2960.25           2289        2024.00      8822.61
  307.65        2960.50           2293        2056.00      8962.19
  307.68        2960.75           2296        2092.00      9119.22
  307.71        2961.00           2300        2212.00      9642.66
  307.74        2961.25           2303        2598.00     11326.51
  307.77        2961.50           2307        5591.00     24389.44
  307.80        2961.75           2310       13085.00     57147.99
  307.84        2962.00           2314       30535.00    133711.60
  307.87        2962.25           2317       45870.00    201326.80
  307.90        2962.50           2321       68877.00    303358.20
  307.93        2962.75           2324       87164.00    384968.00
  307.96        2963.00           2328      113140.00    501681.30
  307.99        2963.25           2331      131649.00    585418.10
  308.02        2963.50           2335      156611.00    699117.40
  308.05        2963.75           2339      181426.00    813036.00
  308.08        2964.00           2342      199513.00    896635.70
  308.11        2964.25           2346      222889.00   1005402.00
  308.14        2964.50           2349      241932.00   1094616.00
  308.17        2964.75           2353      267787.00   1216634.00
  308.20        2965.00           2356      287453.00   1310141.00
  308.23        2965.25           2360      311608.00   1425831.00
  308.26        2965.50           2363      329252.00   1510931.00
  308.29        2965.75           2367      353016.00   1626353.00
  308.32        2966.00           2370      369770.00   1708292.00
  308.35        2966.25           2374      391679.00   1816158.00
  308.39        2966.50           2378      408044.00   1897265.00
  308.42        2966.75           2381      412708.00   1920465.00
  308.45        2967.00           2385      414591.00   1929842.00
  308.48        2967.25           2388      414620.00   1929987.00
  308.51        2967.50           2392      414428.00   1929030.00
  308.54        2967.75           2395      413524.00   1924528.00
  308.57        2968.00           2399      408987.00   1901952.00
  308.60        2968.25           2402      397139.00   1843167.00
  308.63        2968.50           2406      377018.00   1743886.00
  308.66        2968.75           2409      361011.00   1665396.00
  308.69        2969.00           2413      339051.00   1558412.00
  308.72        2969.25           2417      317297.00   1453215.00
  308.75        2969.50           2420      301506.00   1377334.00
  308.78        2969.75           2424      278058.00   1265394.00
  308.81        2970.00           2427      259995.00   1179752.00
  308.84        2970.25           2431      231325.00   1044856.00
  308.88        2970.50           2434      212049.00    954862.60
  308.91        2970.75           2438      187346.00    840345.60
  308.94        2971.00           2441      169363.00    757546.50
  308.97        2971.25           2445      144483.00    643764.60
  309.00        2971.50           2449      117556.00    521616.20
  309.03        2971.75           2452       98033.00    433690.20
  309.06        2972.00           2456       75181.00    331439.80
  309.09        2972.25           2459       56880.00    250065.20
  309.12        2972.50           2463       33189.00    145391.30
  309.15        2972.75           2466       18428.00     80548.55
  309.18        2973.00           2470        6662.00     29066.64
  309.21        2973.25           2473        3445.00     15022.06
  309.24        2973.50           2477        2329.00     10153.02
  309.27        2973.75           2481        2096.00      9136.67
  309.30        2974.00           2484        2069.00      9018.90
  309.33        2974.25           2488        2062.00      8988.36
  309.36        2974.50           2491        2023.00      8818.25
  309.40        2974.75           2495        1982.00      8639.42
  309.43        2975.00           2498        1976.00      8613.25
  309.46        2975.25           2502        1944.00      8473.67
  309.49        2975.50           2505        1943.00      8469.31
  309.52        2975.75           2509        1859.00      8102.93
  309.55        2976.00           2512        1858.00      8098.57
  309.58        2976.25           2516        1836.00      8002.61
  309.61        2976.50           2520        1825.00      7954.64
  309.64        2976.75           2523        1836.00      8002.61
  309.67        2977.00           2527        1774.00      7732.20
  309.70        2977.25           2530        1773.00      7727.84
  309.73        2977.50           2534        1757.00      7658.05
  309.76        2977.75           2537        1767.00      7701.67
  309.79        2978.00           2541        1700.00      7409.45
  309.82        2978.25           2544        1728.00      7531.57
  309.85        2978.50           2548        1699.00      7405.09
  309.88        2978.75           2552        1730.00      7540.29
  309.92        2979.00           2555        1653.00      7204.47
  309.95        2979.25           2559        1621.00      7064.91
  309.98        2979.50           2562        1650.00      7191.38
  310.01        2979.75           2566        1592.00      6938.43
  310.04        2980.00           2569        1633.00      7117.24
  310.07        2980.25           2573        1628.00      7095.43
  310.10        2980.50           2577        1636.00      7130.33
  310.13        2980.75           2580        1633.00      7117.24
  310.16        2981.00           2584        1568.00      6833.76
  310.19        2981.25           2587        1614.00      7034.38
  310.22        2981.50           2591        1542.00      6720.37
  310.25        2981.75           2594        1572.00      6851.20
  310.28        2982.00           2598        1566.00      6825.04
  310.31        2982.25           2601        1578.00      6877.37
  310.34        2982.50           2605        1521.00      6628.78
  310.37        2982.75           2609        1532.00      6676.76
  310.40        2983.00           2612        1504.00      6554.64
  310.44        2983.25           2616        1529.00      6663.67
  310.47        2983.50           2619        1523.00      6637.51
  310.50        2983.75           2623        1538.00      6702.92
  310.53        2984.00           2626        1533.00      6681.12
HS scan finished at 05:10:45
end
************************************************************
  HS Scan of (1) Internal mercury lamp
************************************************************
Integration time is 0.2294 seconds per sample
dh260119Reading 51.44 .94 2.96pr1000
************************************************************
Dead Time -------------------------  3.4E-08 
Number of Cycles Used -------------  4 
Starting Wavelength (Angstroms) ---  2950 
Final Wavelength (Angstoms) -------  2984 
Wavelength Increment (Angstroms) --  .25 
Filter Wheel #1 Position ---------- (1) Ground quartz diffuser (ND=2.32)
Filter Wheel #2 Position ---------- (1) Neutral Density 0.494



************************************************************
HS scan start time = 17:37:20
Dark Count =  .8 


Time (GMT)  Wavelength (Ang)  Step Number  Raw Counts  Counts/Second

 1058.23        2950.00           2144        1016.00      4426.12
 1058.42        2950.25           2147        1031.00      4491.53
 1058.45        2950.50           2151        1033.00      4500.25
 1058.48        2950.75           2155        1007.00      4386.88
 1058.51        2951.00           2158        1037.00      4517.70
 1058.54        2951.25           2162        1007.00      4386.88
 1058.57        2951.50           2165        1031.00      4491.53
 1058.60        2951.75           2169        1026.00      4469.73
 1058.63        2952.00           2172        1019.00      4439.21
 1058.67        2952.25           2176        1046.00      4556.94
 1058.70        2952.50           2179        1051.00      4578.74
 1058.73        2952.75           2183        1045.00      4552.58
 1058.76        2953.00           2186        1022.00      4452.29
 1058.79        2953.25           2190        1069.00      4657.23
 1058.82        2953.50           2193        1081.00      4709.56
 1058.85        2953.75           2197        1084.00      4722.64
 1058.88        2954.00           2200        1069.00      4657.23
 1058.91        2954.25           2204        1061.00      4622.35
 1058.94        2954.50           2208        1096.00      4774.97
 1058.97        2954.75           2211        1065.00      4639.79
 1059.00        2955.00           2215        1064.00      4635.43
 1059.03        2955.25           2218        1070.00      4661.59
 1059.06        2955.50           2222        1099.00      4788.05
 1059.09        2955.75           2225        1086.00      4731.36
 1059.12        2956.00           2229        1104.00      4809.85
 1059.15        2956.25           2232        1094.00      4766.25
 1059.19        2956.50           2236        1128.00      4914.51
 1059.22        2956.75           2239        1091.00      4753.17
 1059.25        2957.00           2243        1104.00      4809.85
 1059.28        2957.25           2246        1141.00      4971.20
 1059.31        2957.50           2250        1127.00      4910.15
 1059.34        2957.75           2254        1183.00      5154.35
 1059.37        2958.00           2257        1179.00      5136.90
 1059.40        2958.25           2261        1163.00      5067.13
 1059.43        2958.50           2264        1187.00      5171.79
 1059.46        2958.75           2268        1187.00      5171.79
 1059.49        2959.00           2271        1215.00      5293.89
 1059.52        2959.25           2275        1217.00      5302.61
 1059.55        2959.50           2278        1229.00      5354.94
 1059.58        2959.75           2282        1234.00      5376.75
 1059.61        2960.00           2285        1292.00      5629.67
 1059.64        2960.25           2289        1301.00      5668.92
 1059.67        2960.50           2293        1262.00      5498.85
 1059.70        2960.75           2296        1367.00      5956.74
 1059.74        2961.00           2300        1419.00      6183.51
 1059.77        2961.25           2303        1578.00      6876.94
 1059.80        2961.50           2307        3418.00     14903.80
 1059.83        2961.75           2310        8587.00     37476.67
 1059.86        2962.00           2314       20092.00     87843.49
 1059.89        2962.25           2317       30448.00    133328.40
 1059.93        2962.50           2321       45387.00    199191.90
 1059.96        2962.75           2324       57905.00    254610.50
 1059.99        2963.00           2328       73853.00    325519.30
 1060.02        2963.25           2331       86813.00    383396.90
 1060.05        2963.50           2335      102982.00    455928.60
 1060.08        2963.75           2339      118876.00    527579.80
 1060.11        2964.00           2342      130697.00    581099.00
 1060.14        2964.25           2346      147603.00    657983.90
 1060.17        2964.50           2349      159953.00    714407.10
 1060.20        2964.75           2353      175072.00    783780.80
 1060.23        2965.00           2356      187110.00    839255.50
 1060.26        2965.25           2360      202421.00    910121.40
 1060.29        2965.50           2363      212062.00    954922.70
 1060.32        2965.75           2367      226857.00   1023946.00
 1060.35        2966.00           2370      238485.00   1078426.00
 1060.38        2966.25           2374      253509.00   1149123.00
 1060.42        2966.50           2378      265565.00   1206106.00
 1060.45        2966.75           2381      269914.00   1226717.00
 1060.48        2967.00           2385      271796.00   1235646.00
 1060.51        2967.25           2388      271991.00   1236571.00
 1060.54        2967.50           2392      272126.00   1237212.00
 1060.57        2967.75           2395      271503.00   1234255.00
 1060.60        2968.00           2399      270610.00   1230018.00
 1060.63        2968.25           2402      265543.00   1206002.00
 1060.66        2968.50           2406      254373.00   1153199.00
 1060.69        2968.75           2409      243660.00   1102738.00
 1060.72        2969.00           2413      228764.00   1032866.00
 1060.75        2969.25           2417      214790.00    967624.90
 1060.78        2969.50           2420      203471.00    914994.00
 1060.81        2969.75           2424      187375.00    840479.10
 1060.84        2970.00           2427      174517.00    781228.30
 1060.87        2970.25           2431      157743.00    704294.20
 1060.90        2970.50           2434      144866.00    645509.00
 1060.93        2970.75           2438      130138.00    578563.60
 1060.97        2971.00           2441      118056.00    523874.50
 1061.00        2971.25           2445      100715.00    445737.40
 1061.03        2971.50           2449       82969.00    366206.20
 1061.06        2971.75           2452       70585.00    310960.90
 1061.09        2972.00           2456       54579.00    239865.40
 1061.12        2972.25           2459       42565.00    186727.50
 1061.15        2972.50           2463       26335.00    115246.70
 1061.18        2972.75           2466       15320.00     66931.56
 1061.21        2973.00           2470        5418.00     23633.63
 1061.24        2973.25           2473        2486.00     10837.47
 1061.27        2973.50           2477        1499.00      6532.40
 1061.30        2973.75           2481        1354.00      5900.05
 1061.33        2974.00           2484        1362.00      5934.94
 1061.36        2974.25           2488        1306.00      5690.73
 1061.39        2974.50           2491        1271.00      5538.10
 1061.42        2974.75           2495        1293.00      5634.03
 1061.45        2975.00           2498        1231.00      5363.66
 1061.49        2975.25           2502        1251.00      5450.88
 1061.52        2975.50           2505        1211.00      5276.45
 1061.55        2975.75           2509        1206.00      5254.64
 1061.58        2976.00           2512        1204.00      5245.92
 1061.61        2976.25           2516        1153.00      5023.53
 1061.64        2976.50           2520        1156.00      5036.61
 1061.67        2976.75           2523        1162.00      5062.77
 1061.70        2977.00           2527        1123.00      4892.71
 1061.73        2977.25           2530        1093.00      4761.89
 1061.76        2977.50           2534        1119.00      4875.26
 1061.79        2977.75           2537        1101.00      4796.77
 1061.82        2978.00           2541        1097.00      4779.33
 1061.85        2978.25           2544        1058.00      4609.27
 1061.88        2978.50           2548        1078.00      4696.48
 1061.91        2978.75           2552        1048.00      4565.66
 1061.94        2979.00           2555        1065.00      4639.79
 1061.98        2979.25           2559        1058.00      4609.27
 1062.01        2979.50           2562        1082.00      4713.92
 1062.04        2979.75           2566        1029.00      4482.81
 1062.07        2980.00           2569        1022.00      4452.29
 1062.10        2980.25           2573        1015.00      4421.76
 1062.13        2980.50           2577        1020.00      4443.57
 1062.16        2980.75           2580        1007.00      4386.88
 1062.19        2981.00           2584        1009.00      4395.60
 1062.22        2981.25           2587        1022.00      4452.29
 1062.25        2981.50           2591        1019.00      4439.21
 1062.28        2981.75           2594         987.00      4299.67
 1062.31        2982.00           2598        1015.00      4421.76
 1062.34        2982.25           2601         989.00      4308.39
 1062.37        2982.50           2605         970.00      4225.54
 1062.40        2982.75           2609         986.00      4295.31
 1062.44        2983.00           2612         999.00      4352.00
 1062.47        2983.25           2616         964.00      4199.38
 1062.50        2983.50           2619         966.00      4208.10
 1062.53        2983.75           2623         990.00      4312.75
 1062.56        2984.00           2626         967.00      4212.46
HS scan finished at 17:42:47
end
