************************************************************
  HS Scan of 
************************************************************
Integration time is 0.2294 seconds per sample
dh270117Reading 51.44 .94 2.19pr1000
************************************************************
Dead Time -------------------------  3.4E-08 
Number of Cycles Used -------------  4 
Starting Wavelength (Angstroms) ---  2950 
Final Wavelength (Angstoms) -------  2984 
Wavelength Increment (Angstroms) --  .25 
Filter Wheel #1 Position ---------- (1) Ground quartz diffuser (ND=2.32)
Filter Wheel #2 Position ---------- (1) Neutral Density 0.494



************************************************************
HS scan start time = 05:06:45
Dark Count =  .2 


Time (GMT)  Wavelength (Ang)  Step Number  Raw Counts  Counts/Second

  307.65        2950.00           2144         886.00      3861.88
  307.84        2950.25           2147         894.00      3896.77
  307.87        2950.50           2151         863.00      3761.60
  307.90        2950.75           2155         885.00      3857.52
  307.93        2951.00           2158         913.00      3979.61
  307.96        2951.25           2162         902.00      3931.65
  307.99        2951.50           2165         913.00      3979.61
  308.02        2951.75           2169         911.00      3970.89
  308.05        2952.00           2172         920.00      4010.14
  308.09        2952.25           2176         912.00      3975.25
  308.12        2952.50           2179         894.00      3896.77
  308.15        2952.75           2183         886.00      3861.88
  308.18        2953.00           2186         878.00      3827.00
  308.21        2953.25           2190         904.00      3940.37
  308.24        2953.50           2193         916.00      3992.70
  308.27        2953.75           2197         915.00      3988.34
  308.30        2954.00           2200         905.00      3944.73
  308.33        2954.25           2204         936.00      4079.90
  308.36        2954.50           2208         926.00      4036.30
  308.39        2954.75           2211         914.00      3983.97
  308.42        2955.00           2215         916.00      3992.70
  308.45        2955.25           2218         925.00      4031.94
  308.48        2955.50           2222         929.00      4049.38
  308.51        2955.75           2225         919.00      4005.78
  308.54        2956.00           2229         946.00      4123.51
  308.57        2956.25           2232         946.00      4123.51
  308.61        2956.50           2236         894.00      3896.77
  308.64        2956.75           2239         956.00      4167.11
  308.67        2957.00           2243         933.00      4066.82
  308.70        2957.25           2246         942.00      4106.07
  308.73        2957.50           2250         950.00      4140.95
  308.76        2957.75           2254         973.00      4241.24
  308.79        2958.00           2257         976.00      4254.32
  308.82        2958.25           2261         979.00      4267.40
  308.85        2958.50           2264         956.00      4167.11
  308.88        2958.75           2268        1009.00      4398.22
  308.91        2959.00           2271         988.00      4306.65
  308.94        2959.25           2275        1002.00      4367.69
  308.97        2959.50           2278        1044.00      4550.84
  309.00        2959.75           2282        1008.00      4393.86
  309.03        2960.00           2285        1022.00      4454.90
  309.06        2960.25           2289        1069.00      4659.85
  309.09        2960.50           2293        1097.00      4781.95
  309.13        2960.75           2296        1065.00      4642.41
  309.16        2961.00           2300        1135.00      4947.65
  309.19        2961.25           2303        1288.00      5614.85
  309.22        2961.50           2307        3020.00     13169.80
  309.25        2961.75           2310        7589.00     33118.35
  309.28        2962.00           2314       16247.00     70994.18
  309.31        2962.25           2317       22855.00     99967.81
  309.34        2962.50           2321       31648.00    138610.70
  309.37        2962.75           2324       38443.00    168542.90
  309.40        2963.00           2328       47918.00    210382.70
  309.43        2963.25           2331       56075.00    246498.40
  309.46        2963.50           2335       66022.00    290660.40
  309.49        2963.75           2339       75763.00    334037.30
  309.52        2964.00           2342       82996.00    366329.50
  309.55        2964.25           2346       92697.00    409752.60
  309.58        2964.50           2349      100259.00    443691.10
  309.61        2964.75           2353      109913.00    487133.40
  309.65        2965.00           2356      117069.00    519418.70
  309.68        2965.25           2360      126392.00    561588.10
  309.71        2965.50           2363      132848.00    590861.40
  309.74        2965.75           2367      141613.00    630698.80
  309.77        2966.00           2370      148617.00    662611.00
  309.80        2966.25           2374      156398.00    698145.60
  309.83        2966.50           2378      161981.00    723696.10
  309.86        2966.75           2381      164162.00    733689.50
  309.89        2967.00           2385      164392.00    734743.90
  309.92        2967.25           2388      164826.00    736733.50
  309.95        2967.50           2392      164451.00    735014.30
  309.98        2967.75           2395      164155.00    733657.50
  310.01        2968.00           2399      161037.00    719372.80
  310.04        2968.25           2402      156160.00    697057.50
  310.07        2968.50           2406      147019.00    655323.80
  310.10        2968.75           2409      140591.00    626048.10
  310.13        2969.00           2413      131932.00    586704.50
  310.17        2969.25           2417      123084.00    546611.50
  310.20        2969.50           2420      116544.00    517047.60
  310.23        2969.75           2424      107108.00    474497.70
  310.26        2970.00           2427       99743.00    441372.70
  310.29        2970.25           2431       90070.00    397981.10
  310.32        2970.50           2434       82929.00    366030.10
  310.35        2970.75           2438       73208.00    322647.40
  310.38        2971.00           2441       65768.00    289531.00
  310.41        2971.25           2445       56103.00    246622.60
  310.44        2971.50           2449       47009.00    206363.50
  310.47        2971.75           2452       40692.00    178463.20
  310.50        2972.00           2456       31305.00    137101.40
  310.53        2972.25           2459       23899.00    104550.60
  310.56        2972.50           2463       14286.00     62406.91
  310.59        2972.75           2466        8107.00     35381.68
  310.62        2973.00           2470        2956.00     12890.57
  310.65        2973.25           2473        1569.00      6840.30
  310.69        2973.50           2477        1110.00      4838.63
  310.72        2973.75           2481        1102.00      4803.75
  310.75        2974.00           2484        1039.00      4529.03
  310.78        2974.25           2488        1054.00      4594.44
  310.81        2974.50           2491        1032.00      4498.51
  310.84        2974.75           2495         986.00      4297.93
  310.87        2975.00           2498        1004.00      4376.41
  310.90        2975.25           2502        1005.00      4380.78
  310.93        2975.50           2505         986.00      4297.93
  310.96        2975.75           2509         927.00      4040.66
  310.99        2976.00           2512         933.00      4066.82
  311.02        2976.25           2516         935.00      4075.54
  311.05        2976.50           2520         929.00      4049.38
  311.08        2976.75           2523         932.00      4062.46
  311.11        2977.00           2527         900.00      3922.93
  311.14        2977.25           2530         923.00      4023.22
  311.17        2977.50           2534         955.00      4162.75
  311.20        2977.75           2537         911.00      3970.89
  311.24        2978.00           2541         896.00      3905.49
  311.27        2978.25           2544         900.00      3922.93
  311.30        2978.50           2548         914.00      3983.97
  311.33        2978.75           2552         907.00      3953.45
  311.36        2979.00           2555         897.00      3909.85
  311.39        2979.25           2559         892.00      3888.05
  311.42        2979.50           2562         864.00      3765.96
  311.45        2979.75           2566         852.00      3713.63
  311.48        2980.00           2569         871.00      3796.48
  311.51        2980.25           2573         867.00      3779.04
  311.54        2980.50           2577         802.00      3495.62
  311.57        2980.75           2580         849.00      3700.55
  311.60        2981.00           2584         852.00      3713.63
  311.63        2981.25           2587         839.00      3656.95
  311.66        2981.50           2591         817.00      3561.02
  311.69        2981.75           2594         828.00      3608.99
  311.72        2982.00           2598         834.00      3635.15
  311.76        2982.25           2601         839.00      3656.95
  311.79        2982.50           2605         850.00      3704.91
  311.82        2982.75           2609         823.00      3587.19
  311.85        2983.00           2612         811.00      3534.86
  311.88        2983.25           2616         846.00      3687.47
  311.91        2983.50           2619         825.00      3595.91
  311.94        2983.75           2623         822.00      3582.83
  311.97        2984.00           2626         791.00      3447.66
HS scan finished at 05:12:12
end
************************************************************
  HS Scan of 
************************************************************
Integration time is 0.2294 seconds per sample
dh270117Reading 51.44 .94 2.86pr1000
************************************************************
Dead Time -------------------------  3.4E-08 
Number of Cycles Used -------------  4 
Starting Wavelength (Angstroms) ---  2950 
Final Wavelength (Angstoms) -------  2984 
Wavelength Increment (Angstroms) --  .25 
Filter Wheel #1 Position ---------- (1) Ground quartz diffuser (ND=2.32)
Filter Wheel #2 Position ---------- (1) Neutral Density 0.494



************************************************************
HS scan start time = 17:37:22
Dark Count =  .7 


Time (GMT)  Wavelength (Ang)  Step Number  Raw Counts  Counts/Second

 1058.27        2950.00           2144         706.00      3074.86
 1058.46        2950.25           2147         708.00      3083.58
 1058.49        2950.50           2151         703.00      3061.78
 1058.53        2950.75           2155         711.00      3096.66
 1058.57        2951.00           2158         739.00      3218.75
 1058.60        2951.25           2162         683.00      2974.58
 1058.63        2951.50           2165         695.00      3026.90
 1058.66        2951.75           2169         707.00      3079.22
 1058.69        2952.00           2172         681.00      2965.86
 1058.72        2952.25           2176         692.00      3013.82
 1058.75        2952.50           2179         711.00      3096.66
 1058.78        2952.75           2183         693.00      3018.18
 1058.81        2953.00           2186         707.00      3079.22
 1058.84        2953.25           2190         701.00      3053.06
 1058.87        2953.50           2193         697.00      3035.62
 1058.90        2953.75           2197         728.00      3170.79
 1058.93        2954.00           2200         723.00      3148.99
 1058.96        2954.25           2204         721.00      3140.27
 1058.99        2954.50           2208         725.00      3157.71
 1059.02        2954.75           2211         715.00      3114.10
 1059.05        2955.00           2215         730.00      3179.51
 1059.09        2955.25           2218         747.00      3253.63
 1059.12        2955.50           2222         716.00      3118.46
 1059.15        2955.75           2225         726.00      3162.07
 1059.18        2956.00           2229         749.00      3262.35
 1059.21        2956.25           2232         783.00      3410.60
 1059.24        2956.50           2236         784.00      3414.96
 1059.27        2956.75           2239         752.00      3275.43
 1059.30        2957.00           2243         765.00      3332.11
 1059.33        2957.25           2246         784.00      3414.96
 1059.36        2957.50           2250         790.00      3441.12
 1059.39        2957.75           2254         755.00      3288.51
 1059.42        2958.00           2257         777.00      3384.43
 1059.45        2958.25           2261         786.00      3423.68
 1059.48        2958.50           2264         798.00      3476.00
 1059.51        2958.75           2268         793.00      3454.20
 1059.54        2959.00           2271         813.00      3541.40
 1059.57        2959.25           2275         809.00      3523.96
 1059.61        2959.50           2278         820.00      3571.92
 1059.64        2959.75           2282         777.00      3384.43
 1059.67        2960.00           2285         813.00      3541.40
 1059.70        2960.25           2289         836.00      3641.69
 1059.73        2960.50           2293         829.00      3611.17
 1059.76        2960.75           2296         820.00      3571.92
 1059.79        2961.00           2300         898.00      3912.03
 1059.82        2961.25           2303         986.00      4295.75
 1059.85        2961.50           2307        2237.00      9751.71
 1059.88        2961.75           2310        5648.00     24638.33
 1059.91        2962.00           2314       12228.00     53398.08
 1059.94        2962.25           2317       17562.00     76753.23
 1059.97        2962.50           2321       25580.00    111930.40
 1060.00        2962.75           2324       32209.00    141077.40
 1060.03        2963.00           2328       41071.00    180133.40
 1060.06        2963.25           2331       47276.00    207541.70
 1060.09        2963.50           2335       55497.00    243934.10
 1060.13        2963.75           2339       63389.00    278955.40
 1060.16        2964.00           2342       69826.00    307582.20
 1060.19        2964.25           2346       79069.00    348786.10
 1060.22        2964.50           2349       85696.00    378400.00
 1060.25        2964.75           2353       93348.00    412669.00
 1060.28        2965.00           2356       99227.00    439052.50
 1060.31        2965.25           2360      107569.00    476571.40
 1060.34        2965.50           2363      113808.00    504695.10
 1060.37        2965.75           2367      121400.00    538991.00
 1060.40        2966.00           2370      127367.00    566003.10
 1060.43        2966.25           2374      135130.00    601220.50
 1060.46        2966.50           2378      141175.00    628703.10
 1060.49        2966.75           2381      142853.00    636341.20
 1060.52        2967.00           2385      143317.00    638454.00
 1060.55        2967.25           2388      143709.00    640239.10
 1060.58        2967.50           2392      143469.00    639146.10
 1060.61        2967.75           2395      143393.00    638800.10
 1060.65        2968.00           2399      142568.00    635043.60
 1060.68        2968.25           2402      138266.00    615471.40
 1060.71        2968.50           2406      131782.00    586021.50
 1060.74        2968.75           2409      126093.00    560231.60
 1060.77        2969.00           2413      118700.00    526784.80
 1060.80        2969.25           2417      110984.00    491958.50
 1060.83        2969.50           2420      104267.00    461708.80
 1060.86        2969.75           2424       95804.00    423685.10
 1060.89        2970.00           2427       90044.00    397862.30
 1060.92        2970.25           2431       81326.00    358865.10
 1060.95        2970.50           2434       75391.00    332376.20
 1060.98        2970.75           2438       66436.00    292499.10
 1061.01        2971.00           2441       60285.00    265171.20
 1061.04        2971.25           2445       51889.00    227951.20
 1061.07        2971.50           2449       42812.00    187818.50
 1061.10        2971.75           2452       35790.00    156846.90
 1061.13        2972.00           2456       27004.00    118186.70
 1061.17        2972.25           2459       21079.00     92172.89
 1061.20        2972.50           2463       13523.00     59064.88
 1061.23        2972.75           2466        8089.00     35300.85
 1061.26        2973.00           2470        2772.00     12085.61
 1061.29        2973.25           2473        1285.00      5599.58
 1061.32        2973.50           2477         930.00      4051.56
 1061.35        2973.75           2481         857.00      3733.26
 1061.38        2974.00           2484         868.00      3781.22
 1061.41        2974.25           2488         870.00      3789.94
 1061.44        2974.50           2491         821.00      3576.29
 1061.47        2974.75           2495         817.00      3558.84
 1061.50        2975.00           2498         810.00      3528.32
 1061.53        2975.25           2502         789.00      3436.76
 1061.56        2975.50           2505         799.00      3480.36
 1061.59        2975.75           2509         765.00      3332.11
 1061.62        2976.00           2512         786.00      3423.68
 1061.65        2976.25           2516         757.00      3297.23
 1061.68        2976.50           2520         751.00      3271.07
 1061.72        2976.75           2523         765.00      3332.11
 1061.75        2977.00           2527         738.00      3214.39
 1061.78        2977.25           2530         743.00      3236.19
 1061.81        2977.50           2534         739.00      3218.75
 1061.84        2977.75           2537         721.00      3140.27
 1061.87        2978.00           2541         765.00      3332.11
 1061.90        2978.25           2544         733.00      3192.59
 1061.93        2978.50           2548         716.00      3118.46
 1061.96        2978.75           2552         747.00      3253.63
 1061.99        2979.00           2555         707.00      3079.22
 1062.02        2979.25           2559         727.00      3166.43
 1062.05        2979.50           2562         708.00      3083.58
 1062.08        2979.75           2566         711.00      3096.66
 1062.11        2980.00           2569         665.00      2896.10
 1062.14        2980.25           2573         678.00      2952.78
 1062.17        2980.50           2577         688.00      2996.38
 1062.20        2980.75           2580         673.00      2930.98
 1062.24        2981.00           2584         676.00      2944.06
 1062.27        2981.25           2587         672.00      2926.62
 1062.30        2981.50           2591         647.00      2817.62
 1062.33        2981.75           2594         648.00      2821.98
 1062.36        2982.00           2598         693.00      3018.18
 1062.39        2982.25           2601         687.00      2992.02
 1062.42        2982.50           2605         665.00      2896.10
 1062.45        2982.75           2609         661.00      2878.66
 1062.48        2983.00           2612         672.00      2926.62
 1062.51        2983.25           2616         663.00      2887.38
 1062.54        2983.50           2619         643.00      2800.18
 1062.57        2983.75           2623         687.00      2992.02
 1062.60        2984.00           2626         654.00      2848.14
HS scan finished at 17:42:49
end
