************************************************************
  HS Scan of (1) Internal mercury lamp
************************************************************
Integration time is 0.2294 seconds per sample
dh250119Reading 51.44 .94 2.68pr1000
************************************************************
Dead Time -------------------------  3.4E-08 
Number of Cycles Used -------------  4 
Starting Wavelength (Angstroms) ---  2950 
Final Wavelength (Angstoms) -------  2984 
Wavelength Increment (Angstroms) --  .25 
Filter Wheel #1 Position ---------- (1) Ground quartz diffuser (ND=2.32)
Filter Wheel #2 Position ---------- (1) Neutral Density 0.494



************************************************************
HS scan start time = 05:06:18
Dark Count =  .4 


Time (GMT)  Wavelength (Ang)  Step Number  Raw Counts  Counts/Second

  307.20        2950.00           2144        1694.00      7384.59
  307.39        2950.25           2147        1686.00      7349.70
  307.42        2950.50           2151        1690.00      7367.15
  307.45        2950.75           2155        1707.00      7441.29
  307.48        2951.00           2158        1677.00      7310.45
  307.51        2951.25           2162        1692.00      7375.87
  307.54        2951.50           2165        1696.00      7393.31
  307.57        2951.75           2169        1683.00      7336.62
  307.60        2952.00           2172        1693.00      7380.23
  307.63        2952.25           2176        1729.00      7537.24
  307.67        2952.50           2179        1743.00      7598.30
  307.70        2952.75           2183        1691.00      7371.51
  307.73        2953.00           2186        1731.00      7545.96
  307.76        2953.25           2190        1716.00      7480.54
  307.79        2953.50           2193        1741.00      7589.58
  307.82        2953.75           2197        1761.00      7676.81
  307.85        2954.00           2200        1721.00      7502.35
  307.88        2954.25           2204        1719.00      7493.63
  307.91        2954.50           2208        1720.00      7497.99
  307.94        2954.75           2211        1694.00      7384.59
  307.97        2955.00           2215        1725.00      7519.80
  308.00        2955.25           2218        1718.00      7489.26
  308.03        2955.50           2222        1689.00      7362.78
  308.06        2955.75           2225        1741.00      7589.58
  308.09        2956.00           2229        1758.00      7663.72
  308.12        2956.25           2232        1743.00      7598.30
  308.15        2956.50           2236        1744.00      7602.66
  308.18        2956.75           2239        1767.00      7702.98
  308.22        2957.00           2243        1789.00      7798.93
  308.25        2957.25           2246        1767.00      7702.98
  308.28        2957.50           2250        1763.00      7685.53
  308.31        2957.75           2254        1774.00      7733.51
  308.34        2958.00           2257        1807.00      7877.44
  308.37        2958.25           2261        1850.00      8064.98
  308.40        2958.50           2264        1846.00      8047.54
  308.43        2958.75           2268        1850.00      8064.98
  308.46        2959.00           2271        1949.00      8496.79
  308.49        2959.25           2275        1905.00      8304.87
  308.52        2959.50           2278        1912.00      8335.41
  308.55        2959.75           2282        1930.00      8413.92
  308.58        2960.00           2285        1981.00      8636.36
  308.61        2960.25           2289        2027.00      8837.01
  308.64        2960.50           2293        2068.00      9015.84
  308.67        2960.75           2296        2116.00      9225.21
  308.71        2961.00           2300        2181.00      9508.74
  308.74        2961.25           2303        2652.00     11563.40
  308.77        2961.50           2307        6920.00     30194.89
  308.80        2961.75           2310       15459.00     67542.03
  308.83        2962.00           2314       33089.00    144952.40
  308.86        2962.25           2317       48017.00    210819.60
  308.89        2962.50           2321       69481.00    306047.80
  308.92        2962.75           2324       85295.00    376607.70
  308.95        2963.00           2328      107429.00    475942.30
  308.98        2963.25           2331      124226.00    551779.10
  309.01        2963.50           2335      148337.00    661332.90
  309.04        2963.75           2339      172614.00    772481.40
  309.07        2964.00           2342      191095.00    857668.20
  309.10        2964.25           2346      211700.00    953239.80
  309.13        2964.50           2349      228313.00   1030758.00
  309.16        2964.75           2353      250409.00   1134509.00
  309.19        2965.00           2356      268609.00   1220531.00
  309.22        2965.25           2360      289907.00   1321853.00
  309.26        2965.50           2363      305268.00   1395377.00
  309.29        2965.75           2367      325980.00   1495112.00
  309.32        2966.00           2370      340730.00   1566565.00
  309.35        2966.25           2374      361357.00   1667089.00
  309.38        2966.50           2378      378556.00   1751452.00
  309.41        2966.75           2381      384651.00   1781469.00
  309.44        2967.00           2385      387688.00   1796449.00
  309.47        2967.25           2388      388023.00   1798102.00
  309.50        2967.50           2392      387786.00   1796933.00
  309.53        2967.75           2395      387479.00   1795418.00
  309.56        2968.00           2399      383968.00   1778102.00
  309.59        2968.25           2402      376511.00   1741395.00
  309.62        2968.50           2406      359672.00   1658851.00
  309.65        2968.75           2409      344564.00   1585196.00
  309.68        2969.00           2413      321990.00   1475845.00
  309.71        2969.25           2417      299148.00   1366039.00
  309.74        2969.50           2420      283191.00   1289826.00
  309.78        2969.75           2424      260304.00   1181214.00
  309.81        2970.00           2427      244368.00   1106070.00
  309.84        2970.25           2431      219221.00    988282.10
  309.87        2970.50           2434      200556.00    901472.60
  309.90        2970.75           2438      176082.00    788428.90
  309.93        2971.00           2441      158568.00    708070.40
  309.96        2971.25           2445      135967.00    605024.10
  309.99        2971.50           2449      113830.00    504795.70
  310.02        2971.75           2452       96427.00    426482.20
  310.05        2972.00           2456       71762.00    316204.30
  310.08        2972.25           2459       53468.00    234945.20
  310.11        2972.50           2463       31522.00    138055.40
  310.14        2972.75           2466       17358.00     75860.62
  310.17        2973.00           2470        6250.00     27268.51
  310.20        2973.25           2473        3242.00     14137.57
  310.23        2973.50           2477        2243.00      9779.19
  310.26        2973.75           2481        2116.00      9225.21
  310.30        2974.00           2484        2107.00      9185.96
  310.33        2974.25           2488        2001.00      8723.60
  310.36        2974.50           2491        1999.00      8714.88
  310.39        2974.75           2495        1980.00      8632.00
  310.42        2975.00           2498        1982.00      8640.72
  310.45        2975.25           2502        1883.00      8208.92
  310.48        2975.50           2505        1890.00      8239.45
  310.51        2975.75           2509        1873.00      8165.30
  310.54        2976.00           2512        1872.00      8160.94
  310.57        2976.25           2516        1798.00      7838.18
  310.60        2976.50           2520        1809.00      7886.16
  310.63        2976.75           2523        1751.00      7633.19
  310.66        2977.00           2527        1796.00      7829.46
  310.69        2977.25           2530        1749.00      7624.47
  310.72        2977.50           2534        1735.00      7563.41
  310.75        2977.75           2537        1682.00      7332.26
  310.78        2978.00           2541        1722.00      7506.71
  310.82        2978.25           2544        1710.00      7454.37
  310.85        2978.50           2548        1709.00      7450.01
  310.88        2978.75           2552        1668.00      7271.20
  310.91        2979.00           2555        1647.00      7179.61
  310.94        2979.25           2559        1697.00      7397.68
  310.97        2979.50           2562        1620.00      7061.85
  311.00        2979.75           2566        1714.00      7471.82
  311.03        2980.00           2569        1627.00      7092.38
  311.06        2980.25           2573        1618.00      7053.13
  311.09        2980.50           2577        1619.00      7057.49
  311.12        2980.75           2580        1608.00      7009.52
  311.15        2981.00           2584        1588.00      6922.29
  311.18        2981.25           2587        1552.00      6765.29
  311.21        2981.50           2591        1552.00      6765.29
  311.24        2981.75           2594        1565.00      6821.98
  311.27        2982.00           2598        1570.00      6843.79
  311.30        2982.25           2601        1518.00      6617.01
  311.34        2982.50           2605        1554.00      6774.01
  311.37        2982.75           2609        1536.00      6695.51
  311.40        2983.00           2612        1523.00      6638.81
  311.43        2983.25           2616        1519.00      6621.37
  311.46        2983.50           2619        1551.00      6760.93
  311.49        2983.75           2623        1540.00      6712.95
  311.52        2984.00           2626        1548.00      6747.84
HS scan finished at 05:11:44
end
************************************************************
  HS Scan of (1) Internal mercury lamp
************************************************************
Integration time is 0.2294 seconds per sample
dh250119Reading 51.44 .94 3.17pr1000
************************************************************
Dead Time -------------------------  3.4E-08 
Number of Cycles Used -------------  4 
Starting Wavelength (Angstroms) ---  2950 
Final Wavelength (Angstoms) -------  2984 
Wavelength Increment (Angstroms) --  .25 
Filter Wheel #1 Position ---------- (1) Ground quartz diffuser (ND=2.32)
Filter Wheel #2 Position ---------- (1) Neutral Density 0.494



************************************************************
HS scan start time = 17:38:34
Dark Count =  1.4 


Time (GMT)  Wavelength (Ang)  Step Number  Raw Counts  Counts/Second

 1059.47        2950.00           2144        1111.00      4837.76
 1059.66        2950.25           2147        1054.00      4589.21
 1059.69        2950.50           2151        1045.00      4549.96
 1059.72        2950.75           2155        1076.00      4685.14
 1059.75        2951.00           2158        1071.00      4663.34
 1059.78        2951.25           2162        1045.00      4549.96
 1059.81        2951.50           2165        1073.00      4672.06
 1059.84        2951.75           2169        1092.00      4754.91
 1059.88        2952.00           2172        1070.00      4658.98
 1059.91        2952.25           2176        1079.00      4698.22
 1059.94        2952.50           2179        1081.00      4706.94
 1059.97        2952.75           2183        1085.00      4724.39
 1060.00        2953.00           2186        1070.00      4658.98
 1060.03        2953.25           2190        1091.00      4750.55
 1060.06        2953.50           2193        1119.00      4872.65
 1060.09        2953.75           2197        1091.00      4750.55
 1060.12        2954.00           2200        1129.00      4916.25
 1060.15        2954.25           2204        1097.00      4776.71
 1060.18        2954.50           2208        1105.00      4811.60
 1060.21        2954.75           2211        1113.00      4846.48
 1060.24        2955.00           2215        1112.00      4842.12
 1060.27        2955.25           2218        1119.00      4872.65
 1060.30        2955.50           2222        1136.00      4946.78
 1060.33        2955.75           2225        1180.00      5138.65
 1060.36        2956.00           2229        1139.00      4959.86
 1060.40        2956.25           2232        1185.00      5160.45
 1060.43        2956.50           2236        1150.00      5007.83
 1060.46        2956.75           2239        1146.00      4990.38
 1060.49        2957.00           2243        1196.00      5208.42
 1060.52        2957.25           2246        1215.00      5291.27
 1060.55        2957.50           2250        1147.00      4994.75
 1060.58        2957.75           2254        1191.00      5186.62
 1060.61        2958.00           2257        1208.00      5260.75
 1060.64        2958.25           2261        1232.00      5365.41
 1060.67        2958.50           2264        1260.00      5487.51
 1060.70        2958.75           2268        1228.00      5347.96
 1060.73        2959.00           2271        1257.00      5474.43
 1060.76        2959.25           2275        1300.00      5661.94
 1060.79        2959.50           2278        1295.00      5640.14
 1060.82        2959.75           2282        1291.00      5622.70
 1060.85        2960.00           2285        1339.00      5832.02
 1060.88        2960.25           2289        1361.00      5927.96
 1060.92        2960.50           2293        1344.00      5853.82
 1060.95        2960.75           2296        1393.00      6067.51
 1060.98        2961.00           2300        1457.00      6346.62
 1061.01        2961.25           2303        1678.00      7310.45
 1061.04        2961.50           2307        4559.00     19880.91
 1061.07        2961.75           2310       11744.00     51277.64
 1061.10        2962.00           2314       25369.00    111000.50
 1061.14        2962.25           2317       36677.00    160752.40
 1061.18        2962.50           2321       52081.00    228798.30
 1061.21        2962.75           2324       64960.00    285933.70
 1061.24        2963.00           2328       80249.00    354051.60
 1061.27        2963.25           2331       92858.00    410469.00
 1061.30        2963.50           2335      111043.00    492221.40
 1061.33        2963.75           2339      131658.00    585455.80
 1061.36        2964.00           2342      145604.00    648868.90
 1061.39        2964.25           2346      163464.00    730485.00
 1061.42        2964.50           2349      175782.00    787044.00
 1061.45        2964.75           2353      191852.00    861163.70
 1061.48        2965.00           2356      204084.00    917836.60
 1061.51        2965.25           2360      222335.00   1002811.00
 1061.54        2965.50           2363      235856.00   1066087.00
 1061.57        2965.75           2367      251372.00   1139043.00
 1061.60        2966.00           2370      263504.00   1196346.00
 1061.63        2966.25           2374      278250.00   1266304.00
 1061.66        2966.50           2378      290803.00   1326127.00
 1061.70        2966.75           2381      296821.00   1354895.00
 1061.73        2967.00           2385      299219.00   1366374.00
 1061.76        2967.25           2388      298991.00   1365282.00
 1061.79        2967.50           2392      299963.00   1369938.00
 1061.82        2967.75           2395      299161.00   1366096.00
 1061.85        2968.00           2399      297440.00   1357857.00
 1061.88        2968.25           2402      291249.00   1328257.00
 1061.91        2968.50           2406      278461.00   1267307.00
 1061.94        2968.75           2409      267017.00   1212981.00
 1061.97        2969.00           2413      248538.00   1125690.00
 1062.00        2969.25           2417      230222.00   1039687.00
 1062.03        2969.50           2420      216571.00    975920.70
 1062.06        2969.75           2424      198450.00    891705.70
 1062.09        2970.00           2427      185701.00    832748.60
 1062.12        2970.25           2431      169365.00    757552.40
 1062.15        2970.50           2434      155048.00    691968.70
 1062.18        2970.75           2438      136200.00    606078.00
 1062.22        2971.00           2441      121691.00    540304.00
 1062.25        2971.25           2445      103977.00    460401.10
 1062.28        2971.50           2449       87293.00    385542.20
 1062.31        2971.75           2452       74813.00    329796.00
 1062.34        2972.00           2456       57131.00    251175.20
 1062.37        2972.25           2459       43385.00    190345.60
 1062.40        2972.50           2463       25492.00    111540.80
 1062.43        2972.75           2466       14028.00     61272.24
 1062.46        2973.00           2470        4645.00     20256.32
 1062.49        2973.25           2473        2275.00      9914.41
 1062.52        2973.50           2477        1544.00      6726.04
 1062.55        2973.75           2481        1442.00      6281.20
 1062.58        2974.00           2484        1414.00      6159.09
 1062.61        2974.25           2488        1361.00      5927.96
 1062.64        2974.50           2491        1351.00      5884.35
 1062.67        2974.75           2495        1330.00      5792.77
 1062.70        2975.00           2498        1324.00      5766.61
 1062.74        2975.25           2502        1282.00      5583.45
 1062.77        2975.50           2505        1249.00      5439.54
 1062.80        2975.75           2509        1281.00      5579.09
 1062.83        2976.00           2512        1250.00      5443.90
 1062.86        2976.25           2516        1220.00      5313.08
 1062.89        2976.50           2520        1179.00      5134.29
 1062.92        2976.75           2523        1194.00      5199.70
 1062.95        2977.00           2527        1181.00      5143.01
 1062.98        2977.25           2530        1194.00      5199.70
 1063.01        2977.50           2534        1196.00      5208.42
 1063.04        2977.75           2537        1148.00      4999.11
 1063.07        2978.00           2541        1126.00      4903.17
 1063.10        2978.25           2544        1124.00      4894.45
 1063.13        2978.50           2548        1130.00      4920.61
 1063.16        2978.75           2552        1131.00      4924.97
 1063.19        2979.00           2555        1089.00      4741.83
 1063.22        2979.25           2559        1089.00      4741.83
 1063.25        2979.50           2562        1075.00      4680.78
 1063.29        2979.75           2566        1116.00      4859.57
 1063.32        2980.00           2569        1068.00      4650.26
 1063.35        2980.25           2573        1091.00      4750.55
 1063.38        2980.50           2577        1054.00      4589.21
 1063.41        2980.75           2580        1048.00      4563.04
 1063.44        2981.00           2584        1041.00      4532.52
 1063.47        2981.25           2587        1031.00      4488.92
 1063.50        2981.50           2591        1057.00      4602.29
 1063.53        2981.75           2594        1013.00      4410.43
 1063.56        2982.00           2598        1014.00      4414.79
 1063.59        2982.25           2601        1033.00      4497.64
 1063.62        2982.50           2605         991.00      4314.50
 1063.65        2982.75           2609        1019.00      4436.59
 1063.68        2983.00           2612        1023.00      4454.03
 1063.71        2983.25           2616        1003.00      4366.82
 1063.74        2983.50           2619        1032.00      4493.28
 1063.77        2983.75           2623        1035.00      4506.36
 1063.81        2984.00           2626        1003.00      4366.82
HS scan finished at 17:44:02
end
