************************************************************
  HS Scan of 
************************************************************
Integration time is 0.2294 seconds per sample
dh230117Reading 51.44 .94 2.25pr1000
************************************************************
Dead Time -------------------------  3.4E-08 
Number of Cycles Used -------------  4 
Starting Wavelength (Angstroms) ---  2950 
Final Wavelength (Angstoms) -------  2984 
Wavelength Increment (Angstroms) --  .25 
Filter Wheel #1 Position ---------- (1) Ground quartz diffuser (ND=2.32)
Filter Wheel #2 Position ---------- (1) Neutral Density 0.494



************************************************************
HS scan start time = 05:10:40
Dark Count =  .2 


Time (GMT)  Wavelength (Ang)  Step Number  Raw Counts  Counts/Second

  311.57        2950.00           2144         826.00      3600.27
  311.76        2950.25           2147         868.00      3783.40
  311.79        2950.50           2151         860.00      3748.52
  311.82        2950.75           2155         881.00      3840.08
  311.85        2951.00           2158         903.00      3936.01
  311.88        2951.25           2162         858.00      3739.80
  311.91        2951.50           2165         868.00      3783.40
  311.94        2951.75           2169         891.00      3883.69
  311.97        2952.00           2172         863.00      3761.60
  312.01        2952.25           2176         856.00      3731.07
  312.04        2952.50           2179         875.00      3813.92
  312.07        2952.75           2183         878.00      3827.00
  312.10        2953.00           2186         886.00      3861.88
  312.13        2953.25           2190         889.00      3874.97
  312.16        2953.50           2193         911.00      3970.89
  312.19        2953.75           2197         873.00      3805.20
  312.22        2954.00           2200         941.00      4101.71
  312.25        2954.25           2204         890.00      3879.33
  312.28        2954.50           2208         905.00      3944.73
  312.31        2954.75           2211         917.00      3997.06
  312.34        2955.00           2215         907.00      3953.45
  312.37        2955.25           2218         891.00      3883.69
  312.40        2955.50           2222         932.00      4062.46
  312.43        2955.75           2225         923.00      4023.22
  312.46        2956.00           2229         925.00      4031.94
  312.49        2956.25           2232         917.00      3997.06
  312.53        2956.50           2236         898.00      3914.21
  312.56        2956.75           2239         933.00      4066.82
  312.59        2957.00           2243         955.00      4162.75
  312.62        2957.25           2246         953.00      4154.03
  312.65        2957.50           2250         941.00      4101.71
  312.68        2957.75           2254         930.00      4053.74
  312.71        2958.00           2257         948.00      4132.23
  312.74        2958.25           2261         964.00      4202.00
  312.77        2958.50           2264         963.00      4197.64
  312.80        2958.75           2268         968.00      4219.44
  312.83        2959.00           2271         964.00      4202.00
  312.86        2959.25           2275        1003.00      4372.05
  312.89        2959.50           2278         973.00      4241.24
  312.92        2959.75           2282        1046.00      4559.56
  312.95        2960.00           2285        1034.00      4507.23
  312.98        2960.25           2289        1027.00      4476.71
  313.01        2960.50           2293        1047.00      4563.92
  313.05        2960.75           2296        1035.00      4511.59
  313.08        2961.00           2300        1113.00      4851.72
  313.11        2961.25           2303        1222.00      5327.03
  313.14        2961.50           2307        2961.00     12912.38
  313.17        2961.75           2310        7168.00     31279.11
  313.20        2962.00           2314       15217.00     66483.16
  313.23        2962.25           2317       21745.00     95096.88
  313.26        2962.50           2321       30893.00    135288.70
  313.29        2962.75           2324       37818.00    165787.20
  313.32        2963.00           2328       46890.00    205837.40
  313.35        2963.25           2331       53925.00    236970.50
  313.38        2963.50           2335       64676.00    284676.80
  313.41        2963.75           2339       74354.00    327755.10
  313.44        2964.00           2342       82295.00    363196.80
  313.47        2964.25           2346       91882.00    406099.60
  313.50        2964.50           2349       98825.00    437249.20
  313.53        2964.75           2353      108045.00    478717.40
  313.57        2965.00           2356      115349.00    511652.10
  313.60        2965.25           2360      124504.00    553038.50
  313.63        2965.50           2363      131455.00    584540.20
  313.66        2965.75           2367      140478.00    625534.10
  313.69        2966.00           2370      147040.00    655419.60
  313.72        2966.25           2374      155737.00    695123.60
  313.75        2966.50           2378      163061.00    728643.90
  313.78        2966.75           2381      165325.00    739021.40
  313.81        2967.00           2385      166264.00    743327.60
  313.84        2967.25           2388      166148.00    742795.60
  313.87        2967.50           2392      166357.00    743754.30
  313.90        2967.75           2395      166191.00    742992.80
  313.93        2968.00           2399      164522.00    735339.80
  313.96        2968.25           2402      160906.00    718773.00
  313.99        2968.50           2406      152757.00    681507.00
  314.02        2968.75           2409      145784.00    649694.60
  314.05        2969.00           2413      135635.00    603516.60
  314.08        2969.25           2417      125257.00    556447.80
  314.12        2969.50           2420      118068.00    523931.50
  314.15        2969.75           2424      108291.00    479825.50
  314.18        2970.00           2427      101828.00    450742.70
  314.21        2970.25           2431       91049.00    402366.90
  314.24        2970.50           2434       83276.00    367581.10
  314.27        2970.75           2438       73001.00    321725.00
  314.30        2971.00           2441       66234.00    291603.10
  314.33        2971.25           2445       56544.00    248577.70
  314.36        2971.50           2449       47487.00    208476.90
  314.39        2971.75           2452       39599.00    173641.10
  314.42        2972.00           2456       29937.00    131083.40
  314.45        2972.25           2459       23037.00    100766.60
  314.48        2972.50           2463       13619.00     59487.24
  314.51        2972.75           2466        7182.00     31340.26
  314.54        2973.00           2470        2420.00     10552.17
  314.57        2973.25           2473        1415.00      6168.69
  314.60        2973.50           2477        1157.00      5043.59
  314.64        2973.75           2481        1066.00      4646.77
  314.67        2974.00           2484        1067.00      4651.13
  314.70        2974.25           2488        1062.00      4629.33
  314.73        2974.50           2491        1020.00      4446.18
  314.76        2974.75           2495        1012.00      4411.30
  314.79        2975.00           2498         993.00      4328.45
  314.82        2975.25           2502         996.00      4341.53
  314.85        2975.50           2505         968.00      4219.44
  314.88        2975.75           2509         939.00      4092.98
  314.91        2976.00           2512         947.00      4127.87
  314.94        2976.25           2516         937.00      4084.26
  314.97        2976.50           2520         918.00      4001.42
  315.00        2976.75           2523         932.00      4062.46
  315.03        2977.00           2527         910.00      3966.53
  315.06        2977.25           2530         911.00      3970.89
  315.09        2977.50           2534         883.00      3848.80
  315.12        2977.75           2537         916.00      3992.70
  315.16        2978.00           2541         871.00      3796.48
  315.19        2978.25           2544         909.00      3962.17
  315.22        2978.50           2548         874.00      3809.56
  315.25        2978.75           2552         898.00      3914.21
  315.28        2979.00           2555         871.00      3796.48
  315.31        2979.25           2559         858.00      3739.80
  315.34        2979.50           2562         849.00      3700.55
  315.37        2979.75           2566         867.00      3779.04
  315.40        2980.00           2569         844.00      3678.75
  315.43        2980.25           2573         852.00      3713.63
  315.46        2980.50           2577         843.00      3674.39
  315.49        2980.75           2580         838.00      3652.59
  315.52        2981.00           2584         840.00      3661.31
  315.55        2981.25           2587         830.00      3617.71
  315.58        2981.50           2591         839.00      3656.95
  315.61        2981.75           2594         821.00      3578.47
  315.64        2982.00           2598         817.00      3561.02
  315.68        2982.25           2601         802.00      3495.62
  315.71        2982.50           2605         820.00      3574.10
  315.74        2982.75           2609         839.00      3656.95
  315.77        2983.00           2612         822.00      3582.83
  315.80        2983.25           2616         813.00      3543.58
  315.83        2983.50           2619         828.00      3608.99
  315.86        2983.75           2623         791.00      3447.66
  315.89        2984.00           2626         829.00      3613.35
HS scan finished at 05:16:07
end
************************************************************
  HS Scan of 
************************************************************
Integration time is 0.2294 seconds per sample
dh230117Reading 51.44 .94 2.92pr1000
************************************************************
Dead Time -------------------------  3.4E-08 
Number of Cycles Used -------------  4 
Starting Wavelength (Angstroms) ---  2950 
Final Wavelength (Angstoms) -------  2984 
Wavelength Increment (Angstroms) --  .25 
Filter Wheel #1 Position ---------- (1) Ground quartz diffuser (ND=2.32)
Filter Wheel #2 Position ---------- (1) Neutral Density 0.494



************************************************************
HS scan start time = 17:37:20
Dark Count =  .9 


Time (GMT)  Wavelength (Ang)  Step Number  Raw Counts  Counts/Second

 1058.24        2950.00           2144         641.00      2790.59
 1058.43        2950.25           2147         687.00      2991.15
 1058.46        2950.50           2151         639.00      2781.87
 1058.49        2950.75           2155         679.00      2956.27
 1058.52        2951.00           2158         630.00      2742.63
 1058.55        2951.25           2162         670.00      2917.03
 1058.59        2951.50           2165         672.00      2925.75
 1058.62        2951.75           2169         668.00      2908.31
 1058.65        2952.00           2172         664.00      2890.87
 1058.68        2952.25           2176         691.00      3008.59
 1058.71        2952.50           2179         682.00      2969.35
 1058.74        2952.75           2183         694.00      3021.67
 1058.77        2953.00           2186         663.00      2886.51
 1058.81        2953.25           2190         656.00      2855.99
 1058.84        2953.50           2193         702.00      3056.55
 1058.87        2953.75           2197         707.00      3078.35
 1058.90        2954.00           2200         688.00      2995.51
 1058.93        2954.25           2204         703.00      3060.91
 1058.96        2954.50           2208         719.00      3130.67
 1058.99        2954.75           2211         729.00      3174.27
 1059.02        2955.00           2215         700.00      3047.83
 1059.05        2955.25           2218         741.00      3226.60
 1059.08        2955.50           2222         713.00      3104.51
 1059.11        2955.75           2225         682.00      2969.35
 1059.14        2956.00           2229         693.00      3017.31
 1059.18        2956.25           2232         707.00      3078.35
 1059.21        2956.50           2236         705.00      3069.63
 1059.24        2956.75           2239         730.00      3178.63
 1059.27        2957.00           2243         730.00      3178.63
 1059.30        2957.25           2246         761.00      3313.80
 1059.33        2957.50           2250         735.00      3200.44
 1059.36        2957.75           2254         711.00      3095.79
 1059.39        2958.00           2257         737.00      3209.16
 1059.42        2958.25           2261         739.00      3217.88
 1059.45        2958.50           2264         757.00      3296.36
 1059.48        2958.75           2268         780.00      3396.64
 1059.51        2959.00           2271         728.00      3169.91
 1059.55        2959.25           2275         773.00      3366.12
 1059.58        2959.50           2278         797.00      3470.77
 1059.61        2959.75           2282         804.00      3501.29
 1059.64        2960.00           2285         767.00      3339.96
 1059.67        2960.25           2289         788.00      3431.53
 1059.70        2960.50           2293         808.00      3518.73
 1059.73        2960.75           2296         826.00      3597.21
 1059.76        2961.00           2300         858.00      3736.74
 1059.79        2961.25           2303         958.00      4172.78
 1059.82        2961.50           2307        2079.00      9061.64
 1059.85        2961.75           2310        5548.00     24200.81
 1059.88        2962.00           2314       12484.00     54517.26
 1059.91        2962.25           2317       18238.00     79714.90
 1059.94        2962.50           2321       26756.00    117096.00
 1059.97        2962.75           2324       32774.00    143563.50
 1060.00        2963.00           2328       39996.00    175389.40
 1060.03        2963.25           2331       45733.00    200720.40
 1060.07        2963.50           2335       54481.00    239430.80
 1060.10        2963.75           2339       63911.00    281273.90
 1060.13        2964.00           2342       70272.00    309566.90
 1060.16        2964.25           2346       78295.00    345330.40
 1060.19        2964.50           2349       84702.00    373953.40
 1060.22        2964.75           2353       92813.00    410269.50
 1060.25        2965.00           2356       98977.00    437928.70
 1060.28        2965.25           2360      107075.00    474346.00
 1060.31        2965.50           2363      112998.00    501039.90
 1060.34        2965.75           2367      120630.00    535508.10
 1060.37        2966.00           2370      126552.00    562309.80
 1060.40        2966.25           2374      133554.00    594063.00
 1060.43        2966.50           2378      138481.00    616448.00
 1060.46        2966.75           2381      140215.00    624334.30
 1060.49        2967.00           2385      140929.00    627582.80
 1060.52        2967.25           2388      140948.00    627669.30
 1060.55        2967.50           2392      141026.00    628024.20
 1060.59        2967.75           2395      140845.00    627200.70
 1060.62        2968.00           2399      139499.00    621077.40
 1060.65        2968.25           2402      135096.00    601065.10
 1060.68        2968.50           2406      128593.00    571558.30
 1060.71        2968.75           2409      123447.00    548251.10
 1060.74        2969.00           2413      115258.00    511238.20
 1060.77        2969.25           2417      107196.00    474890.80
 1060.80        2969.50           2420      101415.00    448883.00
 1060.83        2969.75           2424       93265.00    412296.00
 1060.86        2970.00           2427       87610.00    386963.30
 1060.89        2970.25           2431       79026.00    348593.30
 1060.92        2970.50           2434       73460.00    323767.30
 1060.96        2970.75           2438       64126.00    282229.30
 1060.99        2971.00           2441       57641.00    253439.10
 1061.02        2971.25           2445       48667.00    213692.20
 1061.06        2971.50           2449       40570.00    177921.80
 1061.09        2971.75           2452       34657.00    151854.80
 1061.12        2972.00           2456       26633.00    116555.60
 1061.15        2972.25           2459       20732.00     90649.92
 1061.18        2972.50           2463       13113.00     57269.65
 1061.21        2972.75           2466        7535.00     32879.37
 1061.24        2973.00           2470        2586.00     11273.28
 1061.27        2973.25           2473        1246.00      5428.64
 1061.30        2973.50           2477         891.00      3880.63
 1061.33        2973.75           2481         860.00      3745.46
 1061.36        2974.00           2484         813.00      3540.53
 1061.39        2974.25           2488         799.00      3479.49
 1061.42        2974.50           2491         815.00      3549.25
 1061.45        2974.75           2495         784.00      3414.08
 1061.48        2975.00           2498         793.00      3453.33
 1061.51        2975.25           2502         766.00      3335.60
 1061.54        2975.50           2505         735.00      3200.44
 1061.58        2975.75           2509         763.00      3322.52
 1061.61        2976.00           2512         741.00      3226.60
 1061.64        2976.25           2516         738.00      3213.52
 1061.67        2976.50           2520         723.00      3148.11
 1061.70        2976.75           2523         741.00      3226.60
 1061.73        2977.00           2527         698.00      3039.11
 1061.76        2977.25           2530         707.00      3078.35
 1061.79        2977.50           2534         716.00      3117.59
 1061.82        2977.75           2537         678.00      2951.91
 1061.85        2978.00           2541         702.00      3056.55
 1061.88        2978.25           2544         700.00      3047.83
 1061.91        2978.50           2548         679.00      2956.27
 1061.94        2978.75           2552         689.00      2999.87
 1061.97        2979.00           2555         685.00      2982.43
 1062.00        2979.25           2559         630.00      2742.63
 1062.03        2979.50           2562         685.00      2982.43
 1062.06        2979.75           2566         656.00      2855.99
 1062.10        2980.00           2569         684.00      2978.07
 1062.13        2980.25           2573         648.00      2821.11
 1062.16        2980.50           2577         645.00      2808.03
 1062.19        2980.75           2580         657.00      2860.35
 1062.22        2981.00           2584         665.00      2895.23
 1062.25        2981.25           2587         641.00      2790.59
 1062.28        2981.50           2591         641.00      2790.59
 1062.31        2981.75           2594         654.00      2847.27
 1062.34        2982.00           2598         640.00      2786.23
 1062.37        2982.25           2601         643.00      2799.31
 1062.40        2982.50           2605         631.00      2746.99
 1062.43        2982.75           2609         599.00      2607.47
 1062.46        2983.00           2612         668.00      2908.31
 1062.49        2983.25           2616         656.00      2855.99
 1062.52        2983.50           2619         634.00      2760.07
 1062.55        2983.75           2623         629.00      2738.27
 1062.58        2984.00           2626         633.00      2755.71
HS scan finished at 17:42:48
end
