************************************************************
  HS Scan of (1) Internal mercury lamp
************************************************************
Integration time is 0.2294 seconds per sample
dh220118Reading 51.44 .94 2.92pr1000
************************************************************
Dead Time -------------------------  3.4E-08 
Number of Cycles Used -------------  4 
Starting Wavelength (Angstroms) ---  2950 
Final Wavelength (Angstoms) -------  2984 
Wavelength Increment (Angstroms) --  .25 
Filter Wheel #1 Position ---------- (1) Ground quartz diffuser (ND=2.32)
Filter Wheel #2 Position ---------- (1) Neutral Density 0.494



************************************************************
HS scan start time = 05:08:44
Dark Count =  .9 


Time (GMT)  Wavelength (Ang)  Step Number  Raw Counts  Counts/Second

  309.64        2950.00           2144          77.00       331.74
  309.83        2950.25           2147          69.00       296.86
  309.86        2950.50           2151          76.00       327.38
  309.89        2950.75           2155          74.00       318.66
  309.92        2951.00           2158          79.00       340.46
  309.95        2951.25           2162          82.00       353.54
  309.98        2951.50           2165          78.00       336.10
  310.01        2951.75           2169          81.00       349.18
  310.04        2952.00           2172          85.00       366.61
  310.07        2952.25           2176          84.00       362.25
  310.10        2952.50           2179          74.00       318.66
  310.13        2952.75           2183          83.00       357.89
  310.16        2953.00           2186          91.00       392.77
  310.20        2953.25           2190          79.00       340.46
  310.23        2953.50           2193          79.00       340.46
  310.26        2953.75           2197          82.00       353.54
  310.29        2954.00           2200          80.00       344.82
  310.32        2954.25           2204          83.00       357.89
  310.35        2954.50           2208          81.00       349.18
  310.38        2954.75           2211          80.00       344.82
  310.41        2955.00           2215          98.00       423.28
  310.44        2955.25           2218          88.00       379.69
  310.47        2955.50           2222          95.00       410.21
  310.50        2955.75           2225          96.00       414.57
  310.53        2956.00           2229          91.00       392.77
  310.56        2956.25           2232         111.00       479.96
  310.59        2956.50           2236          85.00       366.61
  310.62        2956.75           2239          92.00       397.13
  310.65        2957.00           2243          93.00       401.49
  310.69        2957.25           2246          92.00       397.13
  310.72        2957.50           2250          91.00       392.77
  310.75        2957.75           2254          92.00       397.13
  310.78        2958.00           2257          88.00       379.69
  310.81        2958.25           2261          99.00       427.64
  310.84        2958.50           2264         109.00       471.24
  310.87        2958.75           2268          90.00       388.41
  310.90        2959.00           2271         100.00       432.00
  310.93        2959.25           2275         138.00       597.66
  310.96        2959.50           2278         114.00       493.03
  310.99        2959.75           2282          96.00       414.57
  311.02        2960.00           2285          92.00       397.13
  311.05        2960.25           2289         119.00       514.83
  311.08        2960.50           2293         140.00       606.38
  311.11        2960.75           2296         110.00       475.60
  311.14        2961.00           2300         152.00       658.69
  311.17        2961.25           2303         279.00      1212.34
  311.21        2961.50           2307        1052.00      4582.67
  311.24        2961.75           2310        1922.00      8376.84
  311.27        2962.00           2314        3194.00     13925.95
  311.30        2962.25           2317        4245.00     18512.52
  311.33        2962.50           2321        5815.00     25366.68
  311.36        2962.75           2324        6937.00     30266.97
  311.39        2963.00           2328        8539.00     37266.46
  311.42        2963.25           2331        9825.00     42887.69
  311.45        2963.50           2335       10901.00     47592.64
  311.48        2963.75           2339       12449.00     54364.13
  311.51        2964.00           2342       13657.00     59650.49
  311.54        2964.25           2346       15287.00     66786.62
  311.57        2964.50           2349       16157.00     70596.90
  311.60        2964.75           2353       17781.00     77712.04
  311.63        2965.00           2356       18565.00     81148.16
  311.66        2965.25           2360       20025.00     87549.22
  311.69        2965.50           2363       21052.00     92053.58
  311.72        2965.75           2367       22488.00     98354.07
  311.76        2966.00           2370       23642.00    103419.20
  311.79        2966.25           2374       24916.00    109013.20
  311.82        2966.50           2378       25146.00    110023.30
  311.85        2966.75           2381       25347.00    110906.10
  311.88        2967.00           2385       25211.00    110308.80
  311.91        2967.25           2388       25393.00    111108.10
  311.94        2967.50           2392       25261.00    110528.40
  311.97        2967.75           2395       24815.00    108569.60
  312.00        2968.00           2399       23847.00    104319.20
  312.03        2968.25           2402       22679.00     99192.30
  312.06        2968.50           2406       21287.00     93084.46
  312.09        2968.75           2409       20441.00     89373.61
  312.12        2969.00           2413       19189.00     83883.63
  312.15        2969.25           2417       17618.00     76997.73
  312.18        2969.50           2420       16274.00     71109.38
  312.21        2969.75           2424       14725.00     64325.80
  312.24        2970.00           2427       13793.00     60245.77
  312.28        2970.25           2431       12608.00     55059.82
  312.31        2970.50           2434       11346.00     49538.90
  312.34        2970.75           2438        9826.00     42892.06
  312.37        2971.00           2441        8823.00     38507.66
  312.40        2971.25           2445        7304.00     31870.18
  312.43        2971.50           2449        5885.00     25672.36
  312.46        2971.75           2452        4781.00     20852.18
  312.49        2972.00           2456        3371.00     14698.28
  312.52        2972.25           2459        2371.00     10335.37
  312.55        2972.50           2463        1254.00      5463.53
  312.58        2972.75           2466         641.00      2790.59
  312.61        2973.00           2470         215.00       933.33
  312.64        2973.25           2473         143.00       619.46
  312.67        2973.50           2477         119.00       514.83
  312.70        2973.75           2481         129.00       558.42
  312.73        2974.00           2484         105.00       453.80
  312.76        2974.25           2488         146.00       632.53
  312.80        2974.50           2491         103.00       445.08
  312.83        2974.75           2495         108.00       466.88
  312.86        2975.00           2498         123.00       532.27
  312.89        2975.25           2502          96.00       414.57
  312.92        2975.50           2505          96.00       414.57
  312.95        2975.75           2509         101.00       436.36
  312.98        2976.00           2512          93.00       401.49
  313.01        2976.25           2516          92.00       397.13
  313.04        2976.50           2520          93.00       401.49
  313.07        2976.75           2523          87.00       375.33
  313.10        2977.00           2527          86.00       370.97
  313.13        2977.25           2530          90.00       388.41
  313.16        2977.50           2534          82.00       353.54
  313.19        2977.75           2537          84.00       362.25
  313.22        2978.00           2541          88.00       379.69
  313.25        2978.25           2544          89.00       384.05
  313.28        2978.50           2548          82.00       353.54
  313.32        2978.75           2552          76.00       327.38
  313.35        2979.00           2555          90.00       388.41
  313.38        2979.25           2559          83.00       357.89
  313.41        2979.50           2562          90.00       388.41
  313.44        2979.75           2566          81.00       349.18
  313.47        2980.00           2569          77.00       331.74
  313.50        2980.25           2573          84.00       362.25
  313.53        2980.50           2577          75.00       323.02
  313.56        2980.75           2580          78.00       336.10
  313.59        2981.00           2584          91.00       392.77
  313.62        2981.25           2587          80.00       344.82
  313.65        2981.50           2591          84.00       362.25
  313.68        2981.75           2594          83.00       357.89
  313.71        2982.00           2598          74.00       318.66
  313.74        2982.25           2601          69.00       296.86
  313.77        2982.50           2605          78.00       336.10
  313.80        2982.75           2609          78.00       336.10
  313.84        2983.00           2612          78.00       336.10
  313.87        2983.25           2616          74.00       318.66
  313.90        2983.50           2619          69.00       296.86
  313.93        2983.75           2623          72.00       309.94
  313.96        2984.00           2626          76.00       327.38
HS scan finished at 05:14:11
end
************************************************************
  HS Scan of (1) Internal mercury lamp
************************************************************
Integration time is 0.2294 seconds per sample
dh220118Reading 51.44 .94 3.03pr1000
************************************************************
Dead Time -------------------------  3.4E-08 
Number of Cycles Used -------------  4 
Starting Wavelength (Angstroms) ---  2950 
Final Wavelength (Angstoms) -------  2984 
Wavelength Increment (Angstroms) --  .25 
Filter Wheel #1 Position ---------- (1) Ground quartz diffuser (ND=2.32)
Filter Wheel #2 Position ---------- (1) Neutral Density 0.494



************************************************************
HS scan start time = 17:37:18
Dark Count =  .7 


Time (GMT)  Wavelength (Ang)  Step Number  Raw Counts  Counts/Second

 1058.20        2950.00           2144          67.00       289.02
 1058.39        2950.25           2147          81.00       350.05
 1058.43        2950.50           2151          70.00       302.10
 1058.46        2950.75           2155          74.00       319.53
 1058.49        2951.00           2158          71.00       306.45
 1058.52        2951.25           2162          63.00       271.58
 1058.55        2951.50           2165          75.00       323.89
 1058.58        2951.75           2169          70.00       302.10
 1058.61        2952.00           2172          75.00       323.89
 1058.64        2952.25           2176          72.00       310.81
 1058.67        2952.50           2179          68.00       293.38
 1058.70        2952.75           2183          83.00       358.77
 1058.73        2953.00           2186          64.00       275.94
 1058.76        2953.25           2190          73.00       315.17
 1058.79        2953.50           2193          72.00       310.81
 1058.82        2953.75           2197          75.00       323.89
 1058.85        2954.00           2200          70.00       302.10
 1058.88        2954.25           2204          70.00       302.10
 1058.91        2954.50           2208          74.00       319.53
 1058.95        2954.75           2211          77.00       332.61
 1058.98        2955.00           2215          75.00       323.89
 1059.01        2955.25           2218          71.00       306.45
 1059.04        2955.50           2222          79.00       341.33
 1059.07        2955.75           2225          77.00       332.61
 1059.10        2956.00           2229          75.00       323.89
 1059.13        2956.25           2232          81.00       350.05
 1059.16        2956.50           2236          85.00       367.49
 1059.19        2956.75           2239          76.00       328.25
 1059.22        2957.00           2243          78.00       336.97
 1059.25        2957.25           2246          86.00       371.84
 1059.28        2957.50           2250          82.00       354.41
 1059.31        2957.75           2254          82.00       354.41
 1059.34        2958.00           2257          79.00       341.33
 1059.37        2958.25           2261          78.00       336.97
 1059.40        2958.50           2264          83.00       358.77
 1059.43        2958.75           2268          80.00       345.69
 1059.47        2959.00           2271          87.00       376.20
 1059.50        2959.25           2275          84.00       363.13
 1059.53        2959.50           2278          91.00       393.64
 1059.56        2959.75           2282          86.00       371.84
 1059.59        2960.00           2285          99.00       428.52
 1059.62        2960.25           2289          88.00       380.56
 1059.65        2960.50           2293         130.00       563.66
 1059.68        2960.75           2296         101.00       437.23
 1059.71        2961.00           2300         129.00       559.30
 1059.74        2961.25           2303         276.00      1200.14
 1059.77        2961.50           2307        1032.00      4496.33
 1059.80        2961.75           2310        1717.00      7483.60
 1059.83        2962.00           2314        2785.00     12142.33
 1059.86        2962.25           2317        3629.00     15824.99
 1059.89        2962.50           2321        4857.00     21184.83
 1059.92        2962.75           2324        5804.00     25319.52
 1059.95        2963.00           2328        7269.00     31718.15
 1059.98        2963.25           2331        8215.00     35851.43
 1060.02        2963.50           2335        9391.00     40991.27
 1060.05        2963.75           2339       10623.00     46377.78
 1060.08        2964.00           2342       11597.00     50637.67
 1060.11        2964.25           2346       12803.00     55913.96
 1060.14        2964.50           2349       13873.00     60596.82
 1060.17        2964.75           2353       15062.00     65802.25
 1060.20        2965.00           2356       16054.00     70146.62
 1060.23        2965.25           2360       16923.00     73953.38
 1060.26        2965.50           2363       17703.00     77371.10
 1060.29        2965.75           2367       18660.00     81565.48
 1060.32        2966.00           2370       19365.00     84656.14
 1060.36        2966.25           2374       20294.00     88729.79
 1060.39        2966.50           2378       20780.00     90861.35
 1060.42        2966.75           2381       20916.00     91457.89
 1060.45        2967.00           2385       20869.00     91251.74
 1060.48        2967.25           2388       20978.00     91729.85
 1060.51        2967.50           2392       20790.00     90905.21
 1060.54        2967.75           2395       20522.00     89729.74
 1060.57        2968.00           2399       20100.00     87879.02
 1060.60        2968.25           2402       19743.00     86313.53
 1060.63        2968.50           2406       18571.00     81175.35
 1060.66        2968.75           2409       17784.00     77726.06
 1060.70        2969.00           2413       16697.00     72963.27
 1060.73        2969.25           2417       15464.00     67562.61
 1060.76        2969.50           2420       14228.00     62150.82
 1060.79        2969.75           2424       12782.00     55822.07
 1060.82        2970.00           2427       11932.00     52103.12
 1060.85        2970.25           2431       10752.00     46941.90
 1060.88        2970.50           2434        9525.00     41577.04
 1060.91        2970.75           2438        8283.00     36148.58
 1060.94        2971.00           2441        7724.00     33706.00
 1060.97        2971.25           2445        6547.00     28564.35
 1061.00        2971.50           2449        5374.00     23441.96
 1061.03        2971.75           2452        4299.00     18749.09
 1061.06        2972.00           2456        3100.00     13516.67
 1061.09        2972.25           2459        2301.00     10030.88
 1061.12        2972.50           2463        1245.00      5425.15
 1061.15        2972.75           2466         613.00      2669.38
 1061.18        2973.00           2470         182.00       790.34
 1061.21        2973.25           2473         137.00       594.17
 1061.25        2973.50           2477         107.00       463.39
 1061.28        2973.75           2481         112.00       485.19
 1061.31        2974.00           2484          95.00       411.08
 1061.34        2974.25           2488          93.00       402.36
 1061.37        2974.50           2491          96.00       415.44
 1061.40        2974.75           2495          95.00       411.08
 1061.43        2975.00           2498          91.00       393.64
 1061.46        2975.25           2502         139.00       602.89
 1061.49        2975.50           2505         145.00       629.05
 1061.52        2975.75           2509         172.00       746.75
 1061.55        2976.00           2512         128.00       554.94
 1061.58        2976.25           2516         142.00       615.97
 1061.61        2976.50           2520         119.00       515.70
 1061.64        2976.75           2523         128.00       554.94
 1061.67        2977.00           2527         146.00       633.41
 1061.70        2977.25           2530         129.00       559.30
 1061.73        2977.50           2534         129.00       559.30
 1061.77        2977.75           2537         149.00       646.48
 1061.80        2978.00           2541         129.00       559.30
 1061.83        2978.25           2544         129.00       559.30
 1061.86        2978.50           2548         162.00       703.16
 1061.89        2978.75           2552         140.00       607.25
 1061.92        2979.00           2555         128.00       554.94
 1061.95        2979.25           2559         111.00       480.83
 1061.98        2979.50           2562         125.00       541.86
 1062.01        2979.75           2566         110.00       476.47
 1062.04        2980.00           2569         101.00       437.23
 1062.07        2980.25           2573         109.00       472.11
 1062.10        2980.50           2577          99.00       428.52
 1062.13        2980.75           2580         115.00       498.26
 1062.16        2981.00           2584         117.00       506.98
 1062.19        2981.25           2587         130.00       563.66
 1062.22        2981.50           2591         107.00       463.39
 1062.25        2981.75           2594         118.00       511.34
 1062.29        2982.00           2598          99.00       428.52
 1062.32        2982.25           2601          99.00       428.52
 1062.35        2982.50           2605         122.00       528.78
 1062.38        2982.75           2609          93.00       402.36
 1062.41        2983.00           2612         122.00       528.78
 1062.44        2983.25           2616         105.00       454.67
 1062.47        2983.50           2619         107.00       463.39
 1062.50        2983.75           2623          91.00       393.64
 1062.53        2984.00           2626          98.00       424.16
HS scan finished at 17:42:45
end
