************************************************************
  HS Scan of 
************************************************************
Integration time is 0.2294 seconds per sample
dh290117Reading 51.44 .94 2.45pr1000
************************************************************
Dead Time -------------------------  3.4E-08 
Number of Cycles Used -------------  4 
Starting Wavelength (Angstroms) ---  2950 
Final Wavelength (Angstoms) -------  2984 
Wavelength Increment (Angstroms) --  .25 
Filter Wheel #1 Position ---------- (1) Ground quartz diffuser (ND=2.32)
Filter Wheel #2 Position ---------- (1) Neutral Density 0.494



************************************************************
HS scan start time = 05:04:31
Dark Count =  .3 


Time (GMT)  Wavelength (Ang)  Step Number  Raw Counts  Counts/Second

  305.40        2950.00           2144         864.00      3765.52
  305.60        2950.25           2147         851.00      3708.84
  305.63        2950.50           2151         838.00      3652.15
  305.66        2950.75           2155         836.00      3643.43
  305.69        2951.00           2158         890.00      3878.89
  305.72        2951.25           2162         832.00      3625.99
  305.75        2951.50           2165         840.00      3660.87
  305.78        2951.75           2169         853.00      3717.56
  305.81        2952.00           2172         831.00      3621.63
  305.84        2952.25           2176         850.00      3704.48
  305.87        2952.50           2179         882.00      3844.01
  305.90        2952.75           2183         881.00      3839.65
  305.93        2953.00           2186         869.00      3787.32
  305.97        2953.25           2190         848.00      3695.76
  306.00        2953.50           2193         884.00      3852.73
  306.03        2953.75           2197         856.00      3730.64
  306.06        2954.00           2200         864.00      3765.52
  306.09        2954.25           2204         912.00      3974.82
  306.12        2954.50           2208         866.00      3774.24
  306.15        2954.75           2211         881.00      3839.65
  306.18        2955.00           2215         900.00      3922.49
  306.21        2955.25           2218         927.00      4040.22
  306.24        2955.50           2222         923.00      4022.78
  306.27        2955.75           2225         901.00      3926.85
  306.30        2956.00           2229         883.00      3848.37
  306.33        2956.25           2232         920.00      4009.70
  306.36        2956.50           2236         897.00      3909.41
  306.39        2956.75           2239         900.00      3922.49
  306.42        2957.00           2243         913.00      3979.18
  306.45        2957.25           2246         938.00      4088.19
  306.49        2957.50           2250         913.00      3979.18
  306.52        2957.75           2254         948.00      4131.79
  306.55        2958.00           2257         959.00      4179.76
  306.58        2958.25           2261         950.00      4140.51
  306.61        2958.50           2264         948.00      4131.79
  306.64        2958.75           2268         948.00      4131.79
  306.67        2959.00           2271         966.00      4210.28
  306.70        2959.25           2275         990.00      4314.93
  306.74        2959.50           2278         974.00      4245.16
  306.77        2959.75           2282        1018.00      4437.03
  306.80        2960.00           2285         982.00      4280.05
  306.83        2960.25           2289        1043.00      4546.04
  306.86        2960.50           2293        1046.00      4559.12
  306.89        2960.75           2296        1076.00      4689.94
  306.92        2961.00           2300        1132.00      4934.13
  306.95        2961.25           2303        1175.00      5121.64
  306.98        2961.50           2307        2849.00     12423.29
  307.01        2961.75           2310        7379.00     32200.45
  307.04        2962.00           2314       14959.00     65352.99
  307.07        2962.25           2317       21268.00     93003.74
  307.10        2962.50           2321       30548.00    133770.50
  307.13        2962.75           2324       38206.00    167497.40
  307.16        2963.00           2328       49332.00    216636.50
  307.20        2963.25           2331       57014.00    250661.20
  307.23        2963.50           2335       67608.00    297713.70
  307.26        2963.75           2339       78352.00    345587.50
  307.29        2964.00           2342       85737.00    378585.20
  307.32        2964.25           2346       96476.00    426702.60
  307.35        2964.50           2349      103940.00    460239.70
  307.38        2964.75           2353      114265.00    506759.00
  307.41        2965.00           2356      122447.00    543728.90
  307.44        2965.25           2360      132761.00    590466.10
  307.47        2965.50           2363      139417.00    620707.20
  307.50        2965.75           2367      148221.00    660804.40
  307.53        2966.00           2370      154056.00    687440.50
  307.56        2966.25           2374      163523.00    730760.60
  307.59        2966.50           2378      171352.00    766683.10
  307.62        2966.75           2381      173921.00    778490.10
  307.65        2967.00           2385      174280.00    780140.80
  307.68        2967.25           2388      174220.00    779864.80
  307.72        2967.50           2392      174197.00    779759.10
  307.75        2967.75           2395      174002.00    778862.50
  307.78        2968.00           2399      171160.00    765801.00
  307.81        2968.25           2402      165842.00    741391.80
  307.84        2968.50           2406      156986.00    700834.10
  307.87        2968.75           2409      150369.00    670604.10
  307.90        2969.00           2413      141839.00    631727.00
  307.93        2969.25           2417      132369.00    588687.10
  307.96        2969.50           2420      125166.00    556035.30
  307.99        2969.75           2424      115880.00    514048.90
  308.02        2970.00           2427      107628.00    476838.90
  308.05        2970.25           2431       96376.00    426253.80
  308.08        2970.50           2434       88720.00    391935.00
  308.11        2970.75           2438       78950.00    348256.70
  308.14        2971.00           2441       72009.00    317305.00
  308.17        2971.25           2445       62174.00    273560.10
  308.20        2971.50           2449       51934.00    228152.30
  308.23        2971.75           2452       44316.00    194462.40
  308.27        2972.00           2456       33630.00    147334.70
  308.30        2972.25           2459       26116.00    114286.70
  308.33        2972.50           2463       16906.00     73880.65
  308.36        2972.75           2466       10321.00     45058.96
  308.39        2973.00           2470        3620.00     15787.46
  308.42        2973.25           2473        1703.00      7424.28
  308.45        2973.50           2477        1136.00      4951.57
  308.48        2973.75           2481        1092.00      4759.71
  308.51        2974.00           2484        1045.00      4554.76
  308.54        2974.25           2488        1048.00      4567.84
  308.57        2974.50           2491         998.00      4349.82
  308.60        2974.75           2495        1004.00      4375.98
  308.63        2975.00           2498         984.00      4288.77
  308.66        2975.25           2502         956.00      4166.68
  308.69        2975.50           2505         998.00      4349.82
  308.72        2975.75           2509         931.00      4057.67
  308.75        2976.00           2512         953.00      4153.59
  308.79        2976.25           2516         921.00      4014.06
  308.82        2976.50           2520         925.00      4031.50
  308.85        2976.75           2523         930.00      4053.30
  308.88        2977.00           2527         924.00      4027.14
  308.91        2977.25           2530         908.00      3957.38
  308.94        2977.50           2534         872.00      3800.40
  308.97        2977.75           2537         894.00      3896.33
  309.00        2978.00           2541         887.00      3865.81
  309.03        2978.25           2544         868.00      3782.96
  309.06        2978.50           2548         855.00      3726.28
  309.09        2978.75           2552         882.00      3844.01
  309.12        2979.00           2555         850.00      3704.48
  309.15        2979.25           2559         852.00      3713.20
  309.18        2979.50           2562         836.00      3643.43
  309.21        2979.75           2566         858.00      3739.36
  309.24        2980.00           2569         867.00      3778.60
  309.27        2980.25           2573         823.00      3586.75
  309.31        2980.50           2577         821.00      3578.03
  309.34        2980.75           2580         828.00      3608.55
  309.37        2981.00           2584         837.00      3647.79
  309.40        2981.25           2587         827.00      3604.19
  309.43        2981.50           2591         825.00      3595.47
  309.46        2981.75           2594         817.00      3560.59
  309.49        2982.00           2598         814.00      3547.51
  309.52        2982.25           2601         803.00      3499.54
  309.55        2982.50           2605         805.00      3508.27
  309.58        2982.75           2609         804.00      3503.90
  309.61        2983.00           2612         806.00      3512.63
  309.64        2983.25           2616         802.00      3495.18
  309.67        2983.50           2619         802.00      3495.18
  309.70        2983.75           2623         760.00      3312.06
  309.73        2984.00           2626         744.00      3242.29
HS scan finished at 05:09:57
end
************************************************************
  HS Scan of 
************************************************************
Integration time is 0.2294 seconds per sample
dh290117Reading 51.44 .94 2.84pr1000
************************************************************
Dead Time -------------------------  3.4E-08 
Number of Cycles Used -------------  4 
Starting Wavelength (Angstroms) ---  2950 
Final Wavelength (Angstoms) -------  2984 
Wavelength Increment (Angstroms) --  .25 
Filter Wheel #1 Position ---------- (1) Ground quartz diffuser (ND=2.32)
Filter Wheel #2 Position ---------- (1) Neutral Density 0.494



************************************************************
HS scan start time = 17:37:17
Dark Count =  .5 


Time (GMT)  Wavelength (Ang)  Step Number  Raw Counts  Counts/Second

 1058.18        2950.00           2144         717.00      3123.70
 1058.37        2950.25           2147         747.00      3254.50
 1058.40        2950.50           2151         727.00      3167.30
 1058.43        2950.75           2155         735.00      3202.18
 1058.46        2951.00           2158         721.00      3141.14
 1058.49        2951.25           2162         722.00      3145.50
 1058.52        2951.50           2165         730.00      3180.38
 1058.55        2951.75           2169         735.00      3202.18
 1058.58        2952.00           2172         747.00      3254.50
 1058.62        2952.25           2176         720.00      3136.78
 1058.65        2952.50           2179         772.00      3363.51
 1058.68        2952.75           2183         751.00      3271.94
 1058.71        2953.00           2186         731.00      3184.74
 1058.74        2953.25           2190         745.00      3245.78
 1058.77        2953.50           2193         733.00      3193.46
 1058.80        2953.75           2197         763.00      3324.26
 1058.83        2954.00           2200         747.00      3254.50
 1058.86        2954.25           2204         783.00      3411.47
 1058.89        2954.50           2208         760.00      3311.18
 1058.92        2954.75           2211         753.00      3280.66
 1058.95        2955.00           2215         759.00      3306.82
 1058.98        2955.25           2218         771.00      3359.15
 1059.01        2955.50           2222         758.00      3302.46
 1059.04        2955.75           2225         774.00      3372.23
 1059.07        2956.00           2229         772.00      3363.51
 1059.10        2956.25           2232         788.00      3433.27
 1059.14        2956.50           2236         781.00      3402.75
 1059.17        2956.75           2239         798.00      3476.87
 1059.20        2957.00           2243         777.00      3385.31
 1059.23        2957.25           2246         794.00      3459.43
 1059.26        2957.50           2250         805.00      3507.39
 1059.29        2957.75           2254         784.00      3415.83
 1059.32        2958.00           2257         780.00      3398.39
 1059.35        2958.25           2261         785.00      3420.19
 1059.38        2958.50           2264         845.00      3681.80
 1059.41        2958.75           2268         831.00      3620.76
 1059.44        2959.00           2271         849.00      3699.24
 1059.47        2959.25           2275         825.00      3594.60
 1059.50        2959.50           2278         833.00      3629.48
 1059.53        2959.75           2282         844.00      3677.44
 1059.56        2960.00           2285         873.00      3803.89
 1059.59        2960.25           2289         859.00      3742.85
 1059.62        2960.50           2293         888.00      3869.30
 1059.66        2960.75           2296         875.00      3812.61
 1059.69        2961.00           2300         918.00      4000.11
 1059.72        2961.25           2303        1003.00      4370.75
 1059.75        2961.50           2307        2221.00      9682.79
 1059.78        2961.75           2310        5994.00     26150.10
 1059.81        2962.00           2314       13181.00     57568.98
 1059.84        2962.25           2317       18668.00     81601.41
 1059.87        2962.50           2321       26278.00    114997.60
 1059.90        2962.75           2324       32219.00    141122.40
 1059.93        2963.00           2328       41427.00    181705.40
 1059.96        2963.25           2331       48515.00    213021.60
 1059.99        2963.50           2335       57656.00    253507.40
 1060.02        2963.75           2339       66476.00    292677.90
 1060.05        2964.00           2342       73185.00    322543.60
 1060.08        2964.25           2346       81501.00    359647.80
 1060.11        2964.50           2349       88415.00    390568.50
 1060.14        2964.75           2353       97338.00    430570.90
 1060.18        2965.00           2356      103860.00    459878.80
 1060.21        2965.25           2360      112281.00    497807.70
 1060.24        2965.50           2363      118404.00    525448.20
 1060.27        2965.75           2367      126659.00    562796.30
 1060.30        2966.00           2370      132473.00    589158.10
 1060.33        2966.25           2374      140026.00    623476.40
 1060.36        2966.50           2378      145831.00    649907.40
 1060.39        2966.75           2381      148272.00    661036.00
 1060.42        2967.00           2385      148501.00    662080.50
 1060.45        2967.25           2388      148876.00    663791.10
 1060.48        2967.50           2392      148981.00    664270.00
 1060.51        2967.75           2395      148871.00    663768.30
 1060.54        2968.00           2399      147237.00    656316.40
 1060.57        2968.25           2402      142589.00    635140.10
 1060.60        2968.50           2406      135545.00    603106.50
 1060.63        2968.75           2409      128797.00    572484.80
 1060.66        2969.00           2413      120645.00    535577.70
 1060.70        2969.25           2417      113034.00    501204.10
 1060.73        2969.50           2420      107274.00    475243.90
 1060.76        2969.75           2424       98677.00    436583.20
 1060.79        2970.00           2427       91795.00    405708.40
 1060.82        2970.25           2431       82310.00    363262.50
 1060.85        2970.50           2434       75926.00    334763.00
 1060.88        2970.75           2438       67083.00    295377.50
 1060.91        2971.00           2441       61137.00    268954.40
 1060.94        2971.25           2445       53052.00    233102.20
 1060.97        2971.50           2449       44407.00    194863.50
 1061.00        2971.75           2452       37886.00    166085.60
 1061.03        2972.00           2456       30009.00    131398.70
 1061.06        2972.25           2459       23831.00    104250.70
 1061.09        2972.50           2463       15181.00     66324.21
 1061.12        2972.75           2466        8600.00     37534.79
 1061.15        2973.00           2470        3056.00     13325.57
 1061.18        2973.25           2473        1565.00      6821.55
 1061.21        2973.50           2477        1007.00      4388.19
 1061.25        2973.75           2481         925.00      4030.63
 1061.28        2974.00           2484         888.00      3869.30
 1061.31        2974.25           2488         887.00      3864.94
 1061.34        2974.50           2491         850.00      3703.60
 1061.37        2974.75           2495         831.00      3620.76
 1061.40        2975.00           2498         824.00      3590.24
 1061.44        2975.25           2502         836.00      3642.56
 1061.47        2975.50           2505         830.00      3616.40
 1061.50        2975.75           2509         834.00      3633.84
 1061.53        2976.00           2512         837.00      3646.92
 1061.56        2976.25           2516         789.00      3437.63
 1061.59        2976.50           2520         808.00      3520.47
 1061.62        2976.75           2523         783.00      3411.47
 1061.65        2977.00           2527         805.00      3507.39
 1061.68        2977.25           2530         792.00      3450.71
 1061.71        2977.50           2534         756.00      3293.74
 1061.74        2977.75           2537         761.00      3315.54
 1061.77        2978.00           2541         770.00      3354.79
 1061.80        2978.25           2544         780.00      3398.39
 1061.83        2978.50           2548         747.00      3254.50
 1061.86        2978.75           2552         735.00      3202.18
 1061.89        2979.00           2555         753.00      3280.66
 1061.92        2979.25           2559         713.00      3106.26
 1061.96        2979.50           2562         736.00      3206.54
 1061.99        2979.75           2566         726.00      3162.94
 1062.02        2980.00           2569         718.00      3128.06
 1062.05        2980.25           2573         712.00      3101.90
 1062.08        2980.50           2577         716.00      3119.34
 1062.11        2980.75           2580         713.00      3106.26
 1062.14        2981.00           2584         705.00      3071.38
 1062.17        2981.25           2587         697.00      3036.49
 1062.20        2981.50           2591         704.00      3067.02
 1062.23        2981.75           2594         705.00      3071.38
 1062.26        2982.00           2598         690.00      3005.97
 1062.29        2982.25           2601         693.00      3019.05
 1062.32        2982.50           2605         687.00      2992.89
 1062.35        2982.75           2609         691.00      3010.33
 1062.38        2983.00           2612         670.00      2918.77
 1062.41        2983.25           2616         690.00      3005.97
 1062.44        2983.50           2619         677.00      2949.29
 1062.48        2983.75           2623         695.00      3027.78
 1062.51        2984.00           2626         673.00      2931.85
HS scan finished at 17:42:44
end
