************************************************************
  HS Scan of 
************************************************************
Integration time is 0.2294 seconds per sample
dh240117Reading 51.44 .94 2.41pr1000
************************************************************
Dead Time -------------------------  3.4E-08 
Number of Cycles Used -------------  4 
Starting Wavelength (Angstroms) ---  2950 
Final Wavelength (Angstoms) -------  2984 
Wavelength Increment (Angstroms) --  .25 
Filter Wheel #1 Position ---------- (1) Ground quartz diffuser (ND=2.32)
Filter Wheel #2 Position ---------- (1) Neutral Density 0.494



************************************************************
HS scan start time = 05:09:48
Dark Count =  .3 


Time (GMT)  Wavelength (Ang)  Step Number  Raw Counts  Counts/Second

  310.71        2950.00           2144         856.00      3730.64
  310.90        2950.25           2147         845.00      3682.68
  310.93        2950.50           2151         847.00      3691.40
  310.96        2950.75           2155         835.00      3639.07
  310.99        2951.00           2158         836.00      3643.43
  311.02        2951.25           2162         838.00      3652.15
  311.05        2951.50           2165         836.00      3643.43
  311.08        2951.75           2169         837.00      3647.79
  311.11        2952.00           2172         844.00      3678.32
  311.14        2952.25           2176         898.00      3913.77
  311.17        2952.50           2179         818.00      3564.95
  311.21        2952.75           2183         851.00      3708.84
  311.24        2953.00           2186         851.00      3708.84
  311.27        2953.25           2190         874.00      3809.12
  311.30        2953.50           2193         839.00      3656.51
  311.33        2953.75           2197         866.00      3774.24
  311.37        2954.00           2200         881.00      3839.65
  311.40        2954.25           2204         868.00      3782.96
  311.44        2954.50           2208         897.00      3909.41
  311.47        2954.75           2211         867.00      3778.60
  311.50        2955.00           2215         853.00      3717.56
  311.53        2955.25           2218         859.00      3743.72
  311.56        2955.50           2222         915.00      3987.90
  311.59        2955.75           2225         899.00      3918.13
  311.62        2956.00           2229         898.00      3913.77
  311.65        2956.25           2232         898.00      3913.77
  311.68        2956.50           2236         907.00      3953.02
  311.71        2956.75           2239         931.00      4057.67
  311.74        2957.00           2243         934.00      4070.75
  311.77        2957.25           2246         936.00      4079.47
  311.80        2957.50           2250         963.00      4197.20
  311.83        2957.75           2254         940.00      4096.91
  311.86        2958.00           2257         936.00      4079.47
  311.89        2958.25           2261         938.00      4088.19
  311.92        2958.50           2264         945.00      4118.71
  311.95        2958.75           2268         974.00      4245.16
  311.99        2959.00           2271         953.00      4153.59
  312.02        2959.25           2275        1004.00      4375.98
  312.05        2959.50           2278         976.00      4253.89
  312.08        2959.75           2282        1015.00      4423.94
  312.11        2960.00           2285        1012.00      4410.86
  312.14        2960.25           2289        1028.00      4480.63
  312.17        2960.50           2293        1056.00      4602.73
  312.20        2960.75           2296        1072.00      4672.49
  312.23        2961.00           2300        1093.00      4764.07
  312.26        2961.25           2303        1324.00      5771.40
  312.29        2961.50           2307        3749.00     16350.41
  312.32        2961.75           2310        8782.00     38331.10
  312.35        2962.00           2314       17059.00     74550.98
  312.38        2962.25           2317       24164.00    105713.60
  312.41        2962.50           2321       34903.00    152941.00
  312.44        2962.75           2324       43257.00    189785.20
  312.48        2963.00           2328       54275.00    238520.70
  312.51        2963.25           2331       62104.00    273249.20
  312.54        2963.50           2335       72523.00    319594.80
  312.57        2963.75           2339       82590.00    364514.60
  312.60        2964.00           2342       91201.00    403047.50
  312.63        2964.25           2346      103584.00    458638.30
  312.66        2964.50           2349      111632.00    494881.90
  312.69        2964.75           2353      122171.00    542480.30
  312.72        2965.00           2356      129944.00    577686.10
  312.76        2965.25           2360      139196.00    619702.10
  312.79        2965.50           2363      146189.00    651540.00
  312.82        2965.75           2367      156657.00    699329.60
  312.85        2966.00           2370      164016.00    733020.00
  312.88        2966.25           2374      173929.00    778526.90
  312.91        2966.50           2378      180669.00    809549.40
  312.94        2966.75           2381      182300.00    817066.50
  312.97        2967.00           2385      182792.00    819334.80
  313.00        2967.25           2388      182931.00    819975.70
  313.03        2967.50           2392      182844.00    819574.50
  313.06        2967.75           2395      182466.00    817831.70
  313.09        2968.00           2399      180746.00    809904.20
  313.12        2968.25           2402      174896.00    782973.60
  313.15        2968.50           2406      164797.00    736600.00
  313.19        2968.75           2409      157996.00    705453.90
  313.22        2969.00           2413      149320.00    665817.40
  313.25        2969.25           2417      139596.00    621521.30
  313.28        2969.50           2420      132131.00    587607.00
  313.31        2969.75           2424      120818.00    536360.90
  313.34        2970.00           2427      112738.00    499869.80
  313.37        2970.25           2431      101506.00    449294.70
  313.40        2970.50           2434       93659.00    414065.30
  313.43        2970.75           2438       82766.00    365301.20
  313.46        2971.00           2441       74272.00    327389.10
  313.49        2971.25           2445       63250.00    278339.60
  313.52        2971.50           2449       51341.00    225527.00
  313.55        2971.75           2452       43070.00    188959.40
  313.58        2972.00           2456       31551.00    138183.40
  313.61        2972.25           2459       23803.00    104128.70
  313.64        2972.50           2463       14228.00     62152.57
  313.67        2972.75           2466        8042.00     35097.22
  313.71        2973.00           2470        2764.00     12052.45
  313.74        2973.25           2473        1436.00      6259.83
  313.77        2973.50           2477        1144.00      4986.46
  313.80        2973.75           2481        1109.00      4833.84
  313.83        2974.00           2484        1084.00      4724.82
  313.86        2974.25           2488        1024.00      4463.19
  313.89        2974.50           2491        1020.00      4445.75
  313.92        2974.75           2495        1014.00      4419.58
  313.95        2975.00           2498        1010.00      4402.14
  313.98        2975.25           2502         984.00      4288.77
  314.01        2975.50           2505         956.00      4166.68
  314.04        2975.75           2509         964.00      4201.56
  314.07        2976.00           2512         932.00      4062.03
  314.10        2976.25           2516         959.00      4179.76
  314.13        2976.50           2520         944.00      4114.35
  314.16        2976.75           2523         949.00      4136.15
  314.19        2977.00           2527         919.00      4005.34
  314.23        2977.25           2530         935.00      4075.11
  314.26        2977.50           2534         897.00      3909.41
  314.29        2977.75           2537         919.00      4005.34
  314.32        2978.00           2541         905.00      3944.30
  314.35        2978.25           2544         843.00      3673.96
  314.38        2978.50           2548         884.00      3852.73
  314.41        2978.75           2552         892.00      3887.61
  314.44        2979.00           2555         895.00      3900.69
  314.47        2979.25           2559         863.00      3761.16
  314.50        2979.50           2562         864.00      3765.52
  314.53        2979.75           2566         846.00      3687.04
  314.56        2980.00           2569         855.00      3726.28
  314.59        2980.25           2573         829.00      3612.91
  314.62        2980.50           2577         839.00      3656.51
  314.65        2980.75           2580         840.00      3660.87
  314.68        2981.00           2584         833.00      3630.35
  314.71        2981.25           2587         863.00      3761.16
  314.75        2981.50           2591         838.00      3652.15
  314.78        2981.75           2594         843.00      3673.96
  314.81        2982.00           2598         794.00      3460.30
  314.84        2982.25           2601         794.00      3460.30
  314.87        2982.50           2605         816.00      3556.23
  314.90        2982.75           2609         800.00      3486.46
  314.93        2983.00           2612         834.00      3634.71
  314.96        2983.25           2616         824.00      3591.11
  314.99        2983.50           2619         769.00      3351.30
  315.02        2983.75           2623         800.00      3486.46
  315.05        2984.00           2626         803.00      3499.54
HS scan finished at 05:15:16
end
************************************************************
  HS Scan of 
************************************************************
Integration time is 0.2294 seconds per sample
dh240117Reading 51.44 .94 2.9pr1000
************************************************************
Dead Time -------------------------  3.4E-08 
Number of Cycles Used -------------  4 
Starting Wavelength (Angstroms) ---  2950 
Final Wavelength (Angstoms) -------  2984 
Wavelength Increment (Angstroms) --  .25 
Filter Wheel #1 Position ---------- (1) Ground quartz diffuser (ND=2.32)
Filter Wheel #2 Position ---------- (1) Neutral Density 0.494



************************************************************
HS scan start time = 17:37:23
Dark Count =  .5 


Time (GMT)  Wavelength (Ang)  Step Number  Raw Counts  Counts/Second

 1058.28        2950.00           2144         714.00      3110.62
 1058.47        2950.25           2147         744.00      3241.42
 1058.50        2950.50           2151         739.00      3219.62
 1058.53        2950.75           2155         785.00      3420.19
 1058.56        2951.00           2158         767.00      3341.70
 1058.59        2951.25           2162         720.00      3136.78
 1058.63        2951.50           2165         732.00      3189.10
 1058.66        2951.75           2169         740.00      3223.98
 1058.69        2952.00           2172         737.00      3210.90
 1058.72        2952.25           2176         747.00      3254.50
 1058.75        2952.50           2179         777.00      3385.31
 1058.78        2952.75           2183         807.00      3516.11
 1058.81        2953.00           2186         787.00      3428.91
 1058.84        2953.25           2190         768.00      3346.07
 1058.87        2953.50           2193         771.00      3359.15
 1058.90        2953.75           2197         777.00      3385.31
 1058.93        2954.00           2200         787.00      3428.91
 1058.96        2954.25           2204         803.00      3498.67
 1058.99        2954.50           2208         768.00      3346.07
 1059.03        2954.75           2211         780.00      3398.39
 1059.06        2955.00           2215         807.00      3516.11
 1059.09        2955.25           2218         776.00      3380.95
 1059.13        2955.50           2222         777.00      3385.31
 1059.16        2955.75           2225         822.00      3581.52
 1059.19        2956.00           2229         828.00      3607.68
 1059.22        2956.25           2232         816.00      3555.36
 1059.25        2956.50           2236         839.00      3655.64
 1059.28        2956.75           2239         811.00      3533.55
 1059.31        2957.00           2243         825.00      3594.60
 1059.34        2957.25           2246         829.00      3612.04
 1059.37        2957.50           2250         824.00      3590.24
 1059.40        2957.75           2254         831.00      3620.76
 1059.43        2958.00           2257         853.00      3716.69
 1059.46        2958.25           2261         836.00      3642.56
 1059.49        2958.50           2264         857.00      3734.13
 1059.52        2958.75           2268         862.00      3755.93
 1059.55        2959.00           2271         854.00      3721.05
 1059.58        2959.25           2275         875.00      3812.61
 1059.61        2959.50           2278         877.00      3821.33
 1059.65        2959.75           2282         863.00      3760.29
 1059.68        2960.00           2285         880.00      3834.41
 1059.71        2960.25           2289         914.00      3982.67
 1059.74        2960.50           2293         919.00      4004.47
 1059.77        2960.75           2296         895.00      3899.82
 1059.80        2961.00           2300         998.00      4348.94
 1059.83        2961.25           2303        1038.00      4523.36
 1059.86        2961.50           2307        2434.00     10611.94
 1059.90        2961.75           2310        5768.00     25163.19
 1059.93        2962.00           2314       12973.00     56658.74
 1059.96        2962.25           2317       19464.00     85091.07
 1059.99        2962.50           2321       28796.00    126064.50
 1060.02        2962.75           2324       35760.00    156715.60
 1060.05        2963.00           2328       44390.00    194788.40
 1060.08        2963.25           2331       51330.00    225477.40
 1060.11        2963.50           2335       60361.00    265509.40
 1060.14        2963.75           2339       69780.00    307378.30
 1060.17        2964.00           2342       76885.00    339040.60
 1060.20        2964.25           2346       86114.00    380270.80
 1060.23        2964.50           2349       93283.00    412378.50
 1060.26        2964.75           2353      102833.00    455259.90
 1060.29        2965.00           2356      109995.00    487501.60
 1060.32        2965.25           2360      118434.00    525583.80
 1060.36        2965.50           2363      124650.00    553698.20
 1060.39        2965.75           2367      132854.00    590887.30
 1060.42        2966.00           2370      139053.00    619050.80
 1060.45        2966.25           2374      147543.00    657711.60
 1060.48        2966.50           2378      153317.00    684063.50
 1060.51        2966.75           2381      155068.00    692064.30
 1060.54        2967.00           2385      155484.00    693965.70
 1060.57        2967.25           2388      155155.00    692461.90
 1060.60        2967.50           2392      155170.00    692530.50
 1060.63        2967.75           2395      155012.00    691808.30
 1060.66        2968.00           2399      152397.00    679861.50
 1060.69        2968.25           2402      147290.00    656558.10
 1060.72        2968.50           2406      140147.00    624026.80
 1060.75        2968.75           2409      133838.00    595354.30
 1060.78        2969.00           2413      125103.00    555749.10
 1060.81        2969.25           2417      116542.00    517037.20
 1060.84        2969.50           2420      109649.00    485942.30
 1060.88        2969.75           2424      100388.00    444269.30
 1060.91        2970.00           2427       93630.00    413934.40
 1060.94        2970.25           2431       84374.00    372488.50
 1060.97        2970.50           2434       77776.00    343016.00
 1061.00        2970.75           2438       69670.00    306888.70
 1061.03        2971.00           2441       63025.00    277339.20
 1061.06        2971.25           2445       53880.00    236769.80
 1061.09        2971.50           2449       44189.00    193900.50
 1061.12        2971.75           2452       36447.00    159742.80
 1061.15        2972.00           2456       28451.00    124547.70
 1061.18        2972.25           2459       22522.00     98505.04
 1061.21        2972.50           2463       14712.00     64270.64
 1061.24        2972.75           2466        8240.00     35961.56
 1061.27        2973.00           2470        2689.00     11724.38
 1061.30        2973.25           2473        1355.00      5905.72
 1061.33        2973.50           2477         980.00      4270.45
 1061.36        2973.75           2481         926.00      4034.99
 1061.40        2974.00           2484         909.00      3960.86
 1061.43        2974.25           2488         928.00      4043.71
 1061.46        2974.50           2491         920.00      4008.83
 1061.49        2974.75           2495         884.00      3851.86
 1061.52        2975.00           2498         850.00      3703.60
 1061.55        2975.25           2502         840.00      3660.00
 1061.58        2975.50           2505         889.00      3873.66
 1061.61        2975.75           2509         823.00      3585.88
 1061.64        2976.00           2512         852.00      3712.33
 1061.67        2976.25           2516         831.00      3620.76
 1061.70        2976.50           2520         806.00      3511.75
 1061.73        2976.75           2523         821.00      3577.16
 1061.76        2977.00           2527         824.00      3590.24
 1061.79        2977.25           2530         784.00      3415.83
 1061.82        2977.50           2534         791.00      3446.35
 1061.85        2977.75           2537         796.00      3468.15
 1061.88        2978.00           2541         782.00      3407.11
 1061.92        2978.25           2544         763.00      3324.26
 1061.95        2978.50           2548         759.00      3306.82
 1061.98        2978.75           2552         754.00      3285.02
 1062.01        2979.00           2555         763.00      3324.26
 1062.04        2979.25           2559         745.00      3245.78
 1062.07        2979.50           2562         740.00      3223.98
 1062.10        2979.75           2566         708.00      3084.46
 1062.13        2980.00           2569         748.00      3258.86
 1062.16        2980.25           2573         716.00      3119.34
 1062.19        2980.50           2577         734.00      3197.82
 1062.22        2980.75           2580         717.00      3123.70
 1062.25        2981.00           2584         744.00      3241.42
 1062.28        2981.25           2587         730.00      3180.38
 1062.31        2981.50           2591         700.00      3049.58
 1062.34        2981.75           2594         716.00      3119.34
 1062.37        2982.00           2598         719.00      3132.42
 1062.40        2982.25           2601         712.00      3101.90
 1062.43        2982.50           2605         705.00      3071.38
 1062.47        2982.75           2609         709.00      3088.82
 1062.50        2983.00           2612         686.00      2988.53
 1062.53        2983.25           2616         710.00      3093.18
 1062.56        2983.50           2619         714.00      3110.62
 1062.59        2983.75           2623         701.00      3053.94
 1062.62        2984.00           2626         701.00      3053.94
HS scan finished at 17:42:51
end
