************************************************************
  HS Scan of (1) Internal mercury lamp
************************************************************
Integration time is 0.2294 seconds per sample
dh200119Reading 51.44 .94 2.39pr1000
************************************************************
Dead Time -------------------------  3.4E-08 
Number of Cycles Used -------------  4 
Starting Wavelength (Angstroms) ---  2950 
Final Wavelength (Angstoms) -------  2984 
Wavelength Increment (Angstroms) --  .25 
Filter Wheel #1 Position ---------- (1) Ground quartz diffuser (ND=2.32)
Filter Wheel #2 Position ---------- (1) Neutral Density 0.494



************************************************************
HS scan start time = 05:13:28
Dark Count =  .2 


Time (GMT)  Wavelength (Ang)  Step Number  Raw Counts  Counts/Second

  314.37        2950.00           2144        1656.00      7219.73
  314.56        2950.25           2147        1654.00      7211.01
  314.59        2950.50           2151        1613.00      7032.20
  314.62        2950.75           2155        1607.00      7006.03
  314.65        2951.00           2158        1622.00      7071.45
  314.68        2951.25           2162        1655.00      7215.37
  314.71        2951.50           2165        1585.00      6910.08
  314.75        2951.75           2169        1616.00      7045.28
  314.78        2952.00           2172        1654.00      7211.01
  314.81        2952.25           2176        1614.00      7036.56
  314.84        2952.50           2179        1611.00      7023.47
  314.87        2952.75           2183        1620.00      7062.73
  314.90        2953.00           2186        1670.00      7280.79
  314.93        2953.25           2190        1608.00      7010.39
  314.96        2953.50           2193        1656.00      7219.73
  314.99        2953.75           2197        1661.00      7241.54
  315.02        2954.00           2200        1662.00      7245.90
  315.05        2954.25           2204        1679.00      7320.04
  315.08        2954.50           2208        1684.00      7341.85
  315.11        2954.75           2211        1686.00      7350.57
  315.14        2955.00           2215        1693.00      7381.10
  315.17        2955.25           2218        1676.00      7306.96
  315.20        2955.50           2222        1693.00      7381.10
  315.23        2955.75           2225        1719.00      7494.50
  315.27        2956.00           2229        1704.00      7429.08
  315.30        2956.25           2232        1724.00      7516.31
  315.33        2956.50           2236        1730.00      7542.47
  315.36        2956.75           2239        1747.00      7616.62
  315.39        2957.00           2243        1756.00      7655.87
  315.42        2957.25           2246        1748.00      7620.98
  315.45        2957.50           2250        1813.00      7904.48
  315.48        2957.75           2254        1808.00      7882.67
  315.51        2958.00           2257        1786.00      7786.72
  315.54        2958.25           2261        1842.00      8030.96
  315.57        2958.50           2264        1802.00      7856.50
  315.60        2958.75           2268        1839.00      8017.88
  315.63        2959.00           2271        1937.00      8445.32
  315.66        2959.25           2275        1897.00      8270.85
  315.69        2959.50           2278        1925.00      8392.98
  315.72        2959.75           2282        1926.00      8397.34
  315.75        2960.00           2285        1911.00      8331.92
  315.79        2960.25           2289        1965.00      8567.45
  315.82        2960.50           2293        2001.00      8724.47
  315.85        2960.75           2296        2017.00      8794.26
  315.88        2961.00           2300        2160.00      9418.01
  315.91        2961.25           2303        2872.00     12524.08
  315.94        2961.50           2307        7754.00     33839.26
  315.97        2961.75           2310       15777.00     68935.58
  316.00        2962.00           2314       31655.00    138641.60
  316.03        2962.25           2317       46876.00    205775.60
  316.06        2962.50           2321       67722.00    298221.30
  316.09        2962.75           2324       83233.00    367388.90
  316.12        2963.00           2328      103077.00    456358.50
  316.15        2963.25           2331      118409.00    525472.10
  316.18        2963.50           2335      138660.00    617265.10
  316.21        2963.75           2339      161003.00    719217.00
  316.24        2964.00           2342      177106.00    793142.00
  316.27        2964.25           2346      199601.00    897045.80
  316.31        2964.50           2349      214947.00    968358.90
  316.34        2964.75           2353      233856.00   1056716.00
  316.37        2965.00           2356      248057.00   1123431.00
  316.40        2965.25           2360      267531.00   1215423.00
  316.43        2965.50           2363      283046.00   1289136.00
  316.46        2965.75           2367      302625.00   1382701.00
  316.49        2966.00           2370      316611.00   1449912.00
  316.52        2966.25           2374      333426.00   1531139.00
  316.55        2966.50           2378      343320.00   1579149.00
  316.58        2966.75           2381      346921.00   1596663.00
  316.61        2967.00           2385      348045.00   1602134.00
  316.65        2967.25           2388      348576.00   1604720.00
  316.68        2967.50           2392      348270.00   1603230.00
  316.71        2967.75           2395      347782.00   1600854.00
  316.74        2968.00           2399      341266.00   1569169.00
  316.77        2968.25           2402      330810.00   1518472.00
  316.80        2968.50           2406      316012.00   1447028.00
  316.83        2968.75           2409      303878.00   1388709.00
  316.86        2969.00           2413      285141.00   1299119.00
  316.89        2969.25           2417      264421.00   1200692.00
  316.92        2969.50           2420      249043.00   1128074.00
  316.95        2969.75           2424      228512.00   1031690.00
  316.99        2970.00           2427      214444.00    966016.00
  317.02        2970.25           2431      193474.00    868671.40
  317.05        2970.50           2434      178476.00    799448.60
  317.08        2970.75           2438      158198.00    706378.40
  317.11        2971.00           2441      141380.00    629638.40
  317.14        2971.25           2445      120443.00    534665.70
  317.17        2971.50           2449       99189.00    438884.10
  317.20        2971.75           2452       83601.00    369033.80
  317.23        2972.00           2456       64012.00    281725.80
  317.26        2972.25           2459       48853.00    214518.00
  317.29        2972.50           2463       29459.00    128981.10
  317.32        2972.75           2466       15985.00     69846.58
  317.35        2973.00           2470        5051.00     22033.94
  317.38        2973.25           2473        2693.00     11743.14
  317.41        2973.50           2477        2070.00      9025.44
  317.44        2973.75           2481        2013.00      8776.81
  317.47        2974.00           2484        1996.00      8702.66
  317.51        2974.25           2488        1937.00      8445.32
  317.54        2974.50           2491        1934.00      8432.23
  317.57        2974.75           2495        1881.00      8201.07
  317.60        2975.00           2498        1881.00      8201.07
  317.63        2975.25           2502        1863.00      8122.56
  317.66        2975.50           2505        1797.00      7834.69
  317.69        2975.75           2509        1794.00      7821.61
  317.72        2976.00           2512        1800.00      7847.78
  317.75        2976.25           2516        1756.00      7655.87
  317.78        2976.50           2520        1743.00      7599.17
  317.81        2976.75           2523        1758.00      7664.60
  317.84        2977.00           2527        1741.00      7590.45
  317.87        2977.25           2530        1707.00      7442.16
  317.90        2977.50           2534        1733.00      7555.56
  317.93        2977.75           2537        1675.00      7302.60
  317.96        2978.00           2541        1686.00      7350.57
  317.99        2978.25           2544        1711.00      7459.61
  318.02        2978.50           2548        1659.00      7232.82
  318.06        2978.75           2552        1627.00      7093.25
  318.09        2979.00           2555        1635.00      7128.14
  318.12        2979.25           2559        1607.00      7006.03
  318.15        2979.50           2562        1612.00      7027.84
  318.18        2979.75           2566        1642.00      7158.67
  318.21        2980.00           2569        1597.00      6962.42
  318.24        2980.25           2573        1586.00      6914.44
  318.27        2980.50           2577        1598.00      6966.78
  318.30        2980.75           2580        1573.00      6857.75
  318.33        2981.00           2584        1543.00      6726.91
  318.36        2981.25           2587        1564.00      6818.49
  318.39        2981.50           2591        1533.00      6683.30
  318.42        2981.75           2594        1506.00      6565.55
  318.45        2982.00           2598        1502.00      6548.10
  318.48        2982.25           2601        1529.00      6665.85
  318.51        2982.50           2605        1537.00      6700.74
  318.54        2982.75           2609        1541.00      6718.19
  318.58        2983.00           2612        1505.00      6561.19
  318.61        2983.25           2616        1491.00      6500.13
  318.64        2983.50           2619        1522.00      6635.32
  318.67        2983.75           2623        1503.00      6552.46
  318.70        2984.00           2626        1494.00      6513.21
HS scan finished at 05:18:55
end
************************************************************
  HS Scan of (1) Internal mercury lamp
************************************************************
Integration time is 0.2294 seconds per sample
dh200119Reading 51.44 .94 2.6pr1000
************************************************************
Dead Time -------------------------  3.4E-08 
Number of Cycles Used -------------  4 
Starting Wavelength (Angstroms) ---  2950 
Final Wavelength (Angstoms) -------  2984 
Wavelength Increment (Angstroms) --  .25 
Filter Wheel #1 Position ---------- (1) Ground quartz diffuser (ND=2.32)
Filter Wheel #2 Position ---------- (1) Neutral Density 0.494



************************************************************
HS scan start time = 17:37:24
Dark Count =  .4 


Time (GMT)  Wavelength (Ang)  Step Number  Raw Counts  Counts/Second

 1058.29        2950.00           2144         942.00      4105.19
 1058.49        2950.25           2147         981.00      4275.25
 1058.52        2950.50           2151         976.00      4253.45
 1058.55        2950.75           2155         965.00      4205.48
 1058.58        2951.00           2158         954.00      4157.52
 1058.61        2951.25           2162         964.00      4201.12
 1058.64        2951.50           2165         983.00      4283.97
 1058.67        2951.75           2169         944.00      4113.91
 1058.70        2952.00           2172         956.00      4166.24
 1058.73        2952.25           2176         947.00      4127.00
 1058.76        2952.50           2179         972.00      4236.01
 1058.79        2952.75           2183         967.00      4214.20
 1058.82        2953.00           2186         994.00      4331.94
 1058.85        2953.25           2190         967.00      4214.20
 1058.89        2953.50           2193         961.00      4188.04
 1058.92        2953.75           2197         984.00      4288.33
 1058.95        2954.00           2200         974.00      4244.73
 1058.98        2954.25           2204        1013.00      4414.79
 1059.01        2954.50           2208         996.00      4340.66
 1059.04        2954.75           2211         967.00      4214.20
 1059.07        2955.00           2215         983.00      4283.97
 1059.10        2955.25           2218         998.00      4349.38
 1059.13        2955.50           2222         977.00      4257.81
 1059.16        2955.75           2225        1024.00      4462.75
 1059.19        2956.00           2229        1045.00      4554.32
 1059.22        2956.25           2232        1027.00      4475.83
 1059.25        2956.50           2236        1027.00      4475.83
 1059.28        2956.75           2239        1008.00      4392.98
 1059.31        2957.00           2243        1024.00      4462.75
 1059.34        2957.25           2246        1045.00      4554.32
 1059.37        2957.50           2250        1020.00      4445.31
 1059.41        2957.75           2254        1070.00      4663.34
 1059.44        2958.00           2257        1064.00      4637.17
 1059.47        2958.25           2261        1092.00      4759.27
 1059.50        2958.50           2264        1074.00      4680.78
 1059.53        2958.75           2268        1127.00      4911.89
 1059.56        2959.00           2271        1098.00      4785.43
 1059.59        2959.25           2275        1122.00      4890.09
 1059.62        2959.50           2278        1162.00      5064.52
 1059.65        2959.75           2282        1134.00      4942.42
 1059.68        2960.00           2285        1158.00      5047.07
 1059.71        2960.25           2289        1155.00      5033.99
 1059.74        2960.50           2293        1180.00      5143.01
 1059.77        2960.75           2296        1193.00      5199.70
 1059.80        2961.00           2300        1261.00      5496.23
 1059.83        2961.25           2303        1286.00      5605.25
 1059.86        2961.50           2307        2455.00     10703.98
 1059.89        2961.75           2310        6481.00     28277.39
 1059.93        2962.00           2314       15532.00     67861.71
 1059.96        2962.25           2317       23992.00    104958.00
 1059.99        2962.50           2321       35516.00    155641.00
 1060.02        2962.75           2324       45207.00    198398.30
 1060.05        2963.00           2328       59521.00    261781.80
 1060.08        2963.25           2331       69799.00    307463.30
 1060.11        2963.50           2335       82741.00    365189.00
 1060.14        2963.75           2339       95348.00    421640.50
 1060.17        2964.00           2342      105654.00    467951.30
 1060.20        2964.25           2346      120387.00    534411.60
 1060.23        2964.50           2349      130605.00    580683.50
 1060.26        2964.75           2353      144568.00    644153.10
 1060.29        2965.00           2356      153341.00    684173.50
 1060.32        2965.25           2360      164585.00    735627.60
 1060.35        2965.50           2363      173734.00    777629.80
 1060.38        2965.75           2367      186289.00    835467.10
 1060.41        2966.00           2370      196431.00    882357.60
 1060.45        2966.25           2374      208417.00    937970.00
 1060.48        2966.50           2378      218763.00    986145.80
 1060.51        2966.75           2381      222534.00   1003745.00
 1060.54        2967.00           2385      224247.00   1011747.00
 1060.57        2967.25           2388      225072.00   1015602.00
 1060.60        2967.50           2392      224917.00   1014878.00
 1060.63        2967.75           2395      224694.00   1013836.00
 1060.66        2968.00           2399      223377.00   1007683.00
 1060.69        2968.25           2402      219416.00    989191.80
 1060.72        2968.50           2406      208767.00    939597.20
 1060.75        2968.75           2409      201315.00    904992.50
 1060.79        2969.00           2413      189426.00    849954.60
 1060.82        2969.25           2417      177689.00    795824.50
 1060.85        2969.50           2420      168639.00    754224.10
 1060.88        2969.75           2424      154727.00    690506.20
 1060.91        2970.00           2427      143763.00    640486.40
 1060.94        2970.25           2431      130952.00    582257.40
 1060.97        2970.50           2434      121440.00    539173.30
 1061.00        2970.75           2438      108325.00    479977.70
 1061.03        2971.00           2441       97949.00    433314.50
 1061.06        2971.25           2445       84581.00    373414.60
 1061.09        2971.50           2449       69194.00    304770.40
 1061.12        2971.75           2452       58013.00    255091.30
 1061.16        2972.00           2456       44679.00    196065.60
 1061.19        2972.25           2459       34685.00    151980.40
 1061.22        2972.50           2463       22274.00     97417.16
 1061.25        2972.75           2466       13901.00     60720.69
 1061.28        2973.00           2470        5300.00     23120.18
 1061.31        2973.25           2473        2402.00     10472.78
 1061.34        2973.50           2477        1375.00      5993.38
 1061.37        2973.75           2481        1205.00      5252.03
 1061.40        2974.00           2484        1229.00      5356.69
 1061.43        2974.25           2488        1204.00      5247.67
 1061.46        2974.50           2491        1163.00      5068.88
 1061.49        2974.75           2495        1147.00      4999.11
 1061.52        2975.00           2498        1130.00      4924.97
 1061.55        2975.25           2502        1093.00      4763.63
 1061.58        2975.50           2505        1152.00      5020.91
 1061.61        2975.75           2509        1069.00      4658.98
 1061.64        2976.00           2512        1047.00      4563.04
 1061.68        2976.25           2516        1071.00      4667.70
 1061.71        2976.50           2520        1078.00      4698.22
 1061.74        2976.75           2523        1052.00      4584.85
 1061.77        2977.00           2527        1044.00      4549.96
 1061.80        2977.25           2530        1029.00      4484.55
 1061.83        2977.50           2534        1007.00      4388.62
 1061.86        2977.75           2537         992.00      4323.22
 1061.89        2978.00           2541         963.00      4196.76
 1061.92        2978.25           2544         993.00      4327.58
 1061.95        2978.50           2548        1037.00      4519.44
 1061.98        2978.75           2552         978.00      4262.17
 1062.01        2979.00           2555         979.00      4266.53
 1062.04        2979.25           2559         997.00      4345.02
 1062.07        2979.50           2562         947.00      4127.00
 1062.10        2979.75           2566         967.00      4214.20
 1062.13        2980.00           2569         940.00      4096.47
 1062.16        2980.25           2573         918.00      4000.54
 1062.19        2980.50           2577         930.00      4052.87
 1062.23        2980.75           2580         910.00      3965.66
 1062.26        2981.00           2584         917.00      3996.18
 1062.29        2981.25           2587         940.00      4096.47
 1062.32        2981.50           2591         910.00      3965.66
 1062.35        2981.75           2594         942.00      4105.19
 1062.38        2982.00           2598         920.00      4009.27
 1062.41        2982.25           2601         935.00      4074.67
 1062.44        2982.50           2605         870.00      3791.25
 1062.47        2982.75           2609         906.00      3948.22
 1062.50        2983.00           2612         909.00      3961.30
 1062.53        2983.25           2616         893.00      3891.54
 1062.56        2983.50           2619         870.00      3791.25
 1062.59        2983.75           2623         907.00      3952.58
 1062.62        2984.00           2626         923.00      4022.35
HS scan finished at 17:42:51
end
