************************************************************
  HS Scan of (1) Internal mercury lamp
************************************************************
Integration time is 0.2294 seconds per sample
dh290119Reading 51.44 .94 2.41pr1000
************************************************************
Dead Time -------------------------  3.4E-08 
Number of Cycles Used -------------  4 
Starting Wavelength (Angstroms) ---  2950 
Final Wavelength (Angstoms) -------  2984 
Wavelength Increment (Angstroms) --  .25 
Filter Wheel #1 Position ---------- (1) Ground quartz diffuser (ND=2.32)
Filter Wheel #2 Position ---------- (1) Neutral Density 0.494



************************************************************
HS scan start time = 05:05:07
Dark Count =  .2 


Time (GMT)  Wavelength (Ang)  Step Number  Raw Counts  Counts/Second

  306.02        2950.00           2144        1583.00      6901.36
  306.21        2950.25           2147        1620.00      7062.73
  306.24        2950.50           2151        1664.00      7254.62
  306.28        2950.75           2155        1620.00      7062.73
  306.31        2951.00           2158        1630.00      7106.34
  306.34        2951.25           2162        1663.00      7250.26
  306.37        2951.50           2165        1655.00      7215.37
  306.40        2951.75           2169        1687.00      7354.93
  306.43        2952.00           2172        1649.00      7189.20
  306.46        2952.25           2176        1647.00      7180.48
  306.49        2952.50           2179        1675.00      7302.60
  306.52        2952.75           2183        1685.00      7346.21
  306.55        2953.00           2186        1665.00      7258.98
  306.58        2953.25           2190        1729.00      7538.11
  306.61        2953.50           2193        1714.00      7472.69
  306.64        2953.75           2197        1653.00      7206.65
  306.67        2954.00           2200        1696.00      7394.19
  306.70        2954.25           2204        1675.00      7302.60
  306.74        2954.50           2208        1689.00      7363.66
  306.77        2954.75           2211        1725.00      7520.67
  306.80        2955.00           2215        1692.00      7376.74
  306.83        2955.25           2218        1776.00      7743.10
  306.86        2955.50           2222        1761.00      7677.68
  306.89        2955.75           2225        1764.00      7690.76
  306.92        2956.00           2229        1771.00      7721.29
  306.95        2956.25           2232        1769.00      7712.57
  306.98        2956.50           2236        1752.00      7638.43
  307.02        2956.75           2239        1745.00      7607.90
  307.05        2957.00           2243        1740.00      7586.09
  307.08        2957.25           2246        1783.00      7773.63
  307.11        2957.50           2250        1792.00      7812.89
  307.14        2957.75           2254        1828.00      7969.90
  307.17        2958.00           2257        1832.00      7987.35
  307.20        2958.25           2261        1851.00      8070.22
  307.23        2958.50           2264        1843.00      8035.33
  307.26        2958.75           2268        1865.00      8131.28
  307.29        2959.00           2271        1846.00      8048.41
  307.32        2959.25           2275        1878.00      8187.98
  307.35        2959.50           2278        1955.00      8523.83
  307.39        2959.75           2282        1939.00      8454.04
  307.42        2960.00           2285        1958.00      8536.92
  307.46        2960.25           2289        2021.00      8811.71
  307.49        2960.50           2293        2029.00      8846.60
  307.52        2960.75           2296        2025.00      8829.15
  307.55        2961.00           2300        2111.00      9204.28
  307.58        2961.25           2303        2494.00     10874.99
  307.61        2961.50           2307        6075.00     26505.13
  307.64        2961.75           2310       13908.00     60752.21
  307.68        2962.00           2314       30697.00    134426.40
  307.71        2962.25           2317       44677.00    196057.60
  307.74        2962.50           2321       64270.00    282872.30
  307.77        2962.75           2324       78299.00    345351.40
  307.80        2963.00           2328       97964.00    433382.70
  307.83        2963.25           2331      113174.00    501836.90
  307.86        2963.50           2335      136101.00    605633.70
  307.89        2963.75           2339      158265.00    706684.90
  307.92        2964.00           2342      174725.00    782187.60
  307.95        2964.25           2346      193195.00    867380.80
  307.98        2964.50           2349      208477.00    938249.90
  308.01        2964.75           2353      228772.00   1032906.00
  308.04        2965.00           2356      244099.00   1104806.00
  308.07        2965.25           2360      264266.00   1199958.00
  308.10        2965.50           2363      278740.00   1268640.00
  308.13        2965.75           2367      297647.00   1358854.00
  308.16        2966.00           2370      311386.00   1424766.00
  308.20        2966.25           2374      330349.00   1516241.00
  308.23        2966.50           2378      345126.00   1587930.00
  308.26        2966.75           2381      350589.00   1614525.00
  308.29        2967.00           2385      354080.00   1631545.00
  308.32        2967.25           2388      354239.00   1632321.00
  308.35        2967.50           2392      354144.00   1631858.00
  308.38        2967.75           2395      353196.00   1627234.00
  308.41        2968.00           2399      350570.00   1614432.00
  308.44        2968.25           2402      344441.00   1584599.00
  308.47        2968.50           2406      329332.00   1511320.00
  308.50        2968.75           2409      315966.00   1446806.00
  308.53        2969.00           2413      293838.00   1340634.00
  308.56        2969.25           2417      272487.00   1238928.00
  308.59        2969.50           2420      256436.00   1162940.00
  308.62        2969.75           2424      236957.00   1071258.00
  308.65        2970.00           2427      222247.00   1002406.00
  308.68        2970.25           2431      198477.00    891836.50
  308.72        2970.50           2434      182021.00    815780.80
  308.75        2970.75           2438      160608.00    717408.50
  308.78        2971.00           2441      144653.00    644541.30
  308.81        2971.25           2445      124316.00    552187.50
  308.84        2971.50           2449      102684.00    454591.20
  308.87        2971.75           2452       86848.00    383556.20
  308.90        2972.00           2456       66156.00    291256.20
  308.93        2972.25           2459       50208.00    220512.90
  308.96        2972.50           2463       29834.00    130630.40
  308.99        2972.75           2466       16353.00     71458.50
  309.02        2973.00           2470        5895.00     25719.08
  309.05        2973.25           2473        3236.00     14112.26
  309.08        2973.50           2477        2253.00      9823.68
  309.11        2973.75           2481        2054.00      8955.65
  309.14        2974.00           2484        2024.00      8824.79
  309.17        2974.25           2488        2003.00      8733.19
  309.20        2974.50           2491        1974.00      8606.70
  309.24        2974.75           2495        1950.00      8502.02
  309.27        2975.00           2498        1898.00      8275.21
  309.30        2975.25           2502        1882.00      8205.43
  309.33        2975.50           2505        1869.00      8148.73
  309.36        2975.75           2509        1857.00      8096.39
  309.39        2976.00           2512        1815.00      7913.20
  309.42        2976.25           2516        1822.00      7943.73
  309.45        2976.50           2520        1817.00      7921.93
  309.48        2976.75           2523        1764.00      7690.76
  309.51        2977.00           2527        1721.00      7503.22
  309.54        2977.25           2530        1690.00      7368.02
  309.57        2977.50           2534        1729.00      7538.11
  309.60        2977.75           2537        1725.00      7520.67
  309.63        2978.00           2541        1689.00      7363.66
  309.66        2978.25           2544        1692.00      7376.74
  309.69        2978.50           2548        1694.00      7385.46
  309.72        2978.75           2552        1631.00      7110.70
  309.76        2979.00           2555        1655.00      7215.37
  309.79        2979.25           2559        1643.00      7163.03
  309.82        2979.50           2562        1646.00      7176.12
  309.85        2979.75           2566        1630.00      7106.34
  309.88        2980.00           2569        1553.00      6770.52
  309.91        2980.25           2573        1567.00      6831.58
  309.94        2980.50           2577        1611.00      7023.47
  309.97        2980.75           2580        1573.00      6857.75
  310.00        2981.00           2584        1577.00      6875.19
  310.03        2981.25           2587        1577.00      6875.19
  310.06        2981.50           2591        1614.00      7036.56
  310.09        2981.75           2594        1600.00      6975.50
  310.12        2982.00           2598        1543.00      6726.91
  310.15        2982.25           2601        1528.00      6661.49
  310.18        2982.50           2605        1525.00      6648.41
  310.21        2982.75           2609        1529.00      6665.85
  310.24        2983.00           2612        1550.00      6757.44
  310.27        2983.25           2616        1530.00      6670.21
  310.31        2983.50           2619        1525.00      6648.41
  310.34        2983.75           2623        1513.00      6596.07
  310.37        2984.00           2626        1499.00      6535.02
HS scan finished at 05:10:35
end
