************************************************************
  HS Scan of (1) Internal mercury lamp
************************************************************
Integration time is 0.2294 seconds per sample
dh280119Reading 51.44 .94 2.35pr1000
************************************************************
Dead Time -------------------------  3.4E-08 
Number of Cycles Used -------------  4 
Starting Wavelength (Angstroms) ---  2950 
Final Wavelength (Angstoms) -------  2984 
Wavelength Increment (Angstroms) --  .25 
Filter Wheel #1 Position ---------- (1) Ground quartz diffuser (ND=2.32)
Filter Wheel #2 Position ---------- (1) Neutral Density 0.494



************************************************************
HS scan start time = 05:08:40
Dark Count =  .3 


Time (GMT)  Wavelength (Ang)  Step Number  Raw Counts  Counts/Second

  309.57        2950.00           2144        1608.00      7009.95
  309.77        2950.25           2147        1627.00      7092.82
  309.80        2950.50           2151        1667.00      7267.27
  309.83        2950.75           2155        1633.00      7118.99
  309.86        2951.00           2158        1679.00      7319.61
  309.89        2951.25           2162        1649.00      7188.77
  309.92        2951.50           2165        1622.00      7071.01
  309.95        2951.75           2169        1653.00      7206.21
  309.98        2952.00           2172        1652.00      7201.85
  310.01        2952.25           2176        1662.00      7245.46
  310.04        2952.50           2179        1678.00      7315.25
  310.07        2952.75           2183        1646.00      7175.68
  310.10        2953.00           2186        1670.00      7280.36
  310.13        2953.25           2190        1689.00      7363.22
  310.16        2953.50           2193        1685.00      7345.78
  310.19        2953.75           2197        1654.00      7210.57
  310.22        2954.00           2200        1706.00      7437.36
  310.25        2954.25           2204        1725.00      7520.23
  310.29        2954.50           2208        1677.00      7310.88
  310.32        2954.75           2211        1707.00      7441.73
  310.35        2955.00           2215        1693.00      7380.67
  310.38        2955.25           2218        1698.00      7402.47
  310.41        2955.50           2222        1736.00      7568.21
  310.44        2955.75           2225        1725.00      7520.23
  310.47        2956.00           2229        1725.00      7520.23
  310.50        2956.25           2232        1745.00      7607.46
  310.53        2956.50           2236        1761.00      7677.24
  310.56        2956.75           2239        1722.00      7507.15
  310.59        2957.00           2243        1746.00      7611.82
  310.62        2957.25           2246        1755.00      7651.07
  310.65        2957.50           2250        1774.00      7733.94
  310.68        2957.75           2254        1790.00      7803.73
  310.71        2958.00           2257        1831.00      7982.55
  310.74        2958.25           2261        1849.00      8061.06
  310.77        2958.50           2264        1888.00      8231.16
  310.81        2958.75           2268        1844.00      8039.25
  310.84        2959.00           2271        1895.00      8261.69
  310.87        2959.25           2275        1930.00      8414.35
  310.90        2959.50           2278        1913.00      8340.20
  310.93        2959.75           2282        1872.00      8161.38
  310.96        2960.00           2285        1950.00      8501.59
  310.99        2960.25           2289        2020.00      8806.91
  311.02        2960.50           2293        1974.00      8606.27
  311.05        2960.75           2296        2038.00      8885.42
  311.08        2961.00           2300        2139.00      9325.97
  311.11        2961.25           2303        2310.00     10071.89
  311.14        2961.50           2307        4586.00     20003.57
  311.17        2961.75           2310       10891.00     47551.54
  311.20        2962.00           2314       26062.00    114049.50
  311.23        2962.25           2317       38941.00    170738.50
  311.26        2962.50           2321       57189.00    251437.20
  311.29        2962.75           2324       71216.00    313773.00
  311.32        2963.00           2328       91761.00    405556.90
  311.36        2963.25           2331      106997.00    473997.50
  311.39        2963.50           2335      127958.00    568683.00
  311.42        2963.75           2339      147274.00    656486.00
  311.45        2964.00           2342      162747.00    727204.80
  311.48        2964.25           2346      184871.00    828923.80
  311.51        2964.50           2349      201588.00    906259.20
  311.54        2964.75           2353      222290.00   1002606.00
  311.57        2965.00           2356      236337.00   1068349.00
  311.60        2965.25           2360      254235.00   1152551.00
  311.63        2965.50           2363      268516.00   1220091.00
  311.66        2965.75           2367      288657.00   1315887.00
  311.69        2966.00           2370      302725.00   1383179.00
  311.72        2966.25           2374      321143.00   1471759.00
  311.75        2966.50           2378      337629.00   1551514.00
  311.78        2966.75           2381      343221.00   1578668.00
  311.81        2967.00           2385      346903.00   1596575.00
  311.84        2967.25           2388      346809.00   1596118.00
  311.88        2967.50           2392      347156.00   1597806.00
  311.91        2967.75           2395      346252.00   1593407.00
  311.94        2968.00           2399      341882.00   1572161.00
  311.97        2968.25           2402      333628.00   1532117.00
  312.00        2968.50           2406      317089.00   1452215.00
  312.03        2968.75           2409      304248.00   1390483.00
  312.06        2969.00           2413      287544.00   1310577.00
  312.09        2969.25           2417      268131.00   1218266.00
  312.12        2969.50           2420      253274.00   1148017.00
  312.15        2969.75           2424      231521.00   1045775.00
  312.19        2970.00           2427      215269.00    969858.60
  312.22        2970.25           2431      194922.00    875371.80
  312.25        2970.50           2434      180640.00    809415.80
  312.28        2970.75           2438      160546.00    717124.10
  312.31        2971.00           2441      143625.00    639858.40
  312.34        2971.25           2445      120523.00    535027.00
  312.37        2971.50           2449      100523.00    444876.90
  312.40        2971.75           2452       84354.00    372400.00
  312.43        2972.00           2456       64445.00    283649.60
  312.46        2972.25           2459       49606.00    217848.70
  312.49        2972.50           2463       30166.00    132090.20
  312.52        2972.75           2466       17590.00     76877.66
  312.55        2973.00           2470        6085.00     26548.36
  312.59        2973.25           2473        3137.00     13679.86
  312.62        2973.50           2477        2176.00      9487.37
  312.65        2973.75           2481        2053.00      8950.85
  312.68        2974.00           2484        2059.00      8977.02
  312.71        2974.25           2488        1985.00      8654.25
  312.74        2974.50           2491        1956.00      8527.76
  312.77        2974.75           2495        1892.00      8248.61
  312.80        2975.00           2498        1901.00      8287.86
  312.83        2975.25           2502        1904.00      8300.95
  312.86        2975.50           2505        1857.00      8095.95
  312.89        2975.75           2509        1858.00      8100.31
  312.92        2976.00           2512        1801.00      7851.70
  312.95        2976.25           2516        1821.00      7938.93
  312.98        2976.50           2520        1777.00      7747.03
  313.01        2976.75           2523        1780.00      7760.11
  313.04        2977.00           2527        1749.00      7624.91
  313.07        2977.25           2530        1739.00      7581.29
  313.11        2977.50           2534        1712.00      7463.53
  313.14        2977.75           2537        1715.00      7476.62
  313.17        2978.00           2541        1668.00      7271.63
  313.20        2978.25           2544        1674.00      7297.80
  313.23        2978.50           2548        1709.00      7450.45
  313.26        2978.75           2552        1684.00      7341.41
  313.29        2979.00           2555        1629.00      7101.54
  313.32        2979.25           2559        1628.00      7097.18
  313.35        2979.50           2562        1635.00      7127.71
  313.38        2979.75           2566        1598.00      6966.34
  313.41        2980.00           2569        1615.00      7040.48
  313.44        2980.25           2573        1575.00      6866.03
  313.47        2980.50           2577        1616.00      7044.84
  313.50        2980.75           2580        1589.00      6927.09
  313.53        2981.00           2584        1539.00      6709.03
  313.56        2981.25           2587        1600.00      6975.06
  313.59        2981.50           2591        1497.00      6525.86
  313.62        2981.75           2594        1564.00      6818.06
  313.66        2982.00           2598        1573.00      6857.31
  313.69        2982.25           2601        1544.00      6730.83
  313.72        2982.50           2605        1554.00      6774.45
  313.75        2982.75           2609        1586.00      6914.01
  313.78        2983.00           2612        1524.00      6643.61
  313.81        2983.25           2616        1511.00      6586.92
  313.84        2983.50           2619        1491.00      6499.69
  313.87        2983.75           2623        1497.00      6525.86
  313.90        2984.00           2626        1448.00      6312.17
HS scan finished at 05:14:07
end
************************************************************
  HS Scan of (1) Internal mercury lamp
************************************************************
Integration time is 0.2294 seconds per sample
dh280119Reading 51.44 .94 2.66pr1000
************************************************************
Dead Time -------------------------  3.4E-08 
Number of Cycles Used -------------  4 
Starting Wavelength (Angstroms) ---  2950 
Final Wavelength (Angstoms) -------  2984 
Wavelength Increment (Angstroms) --  .25 
Filter Wheel #1 Position ---------- (1) Ground quartz diffuser (ND=2.32)
Filter Wheel #2 Position ---------- (1) Neutral Density 0.494



************************************************************
HS scan start time = 17:37:34
Dark Count =  .4 


Time (GMT)  Wavelength (Ang)  Step Number  Raw Counts  Counts/Second

 1058.46        2950.00           2144        1575.00      6865.60
 1058.66        2950.25           2147        1559.00      6795.82
 1058.69        2950.50           2151        1507.00      6569.04
 1058.72        2950.75           2155        1527.00      6656.26
 1058.75        2951.00           2158        1595.00      6952.82
 1058.78        2951.25           2162        1578.00      6878.68
 1058.81        2951.50           2165        1578.00      6878.68
 1058.84        2951.75           2169        1587.00      6917.93
 1058.87        2952.00           2172        1576.00      6869.96
 1058.90        2952.25           2176        1580.00      6887.40
 1058.93        2952.50           2179        1601.00      6978.99
 1058.96        2952.75           2183        1609.00      7013.88
 1058.99        2953.00           2186        1574.00      6861.23
 1059.02        2953.25           2190        1558.00      6791.45
 1059.06        2953.50           2193        1598.00      6965.90
 1059.09        2953.75           2197        1590.00      6931.01
 1059.12        2954.00           2200        1641.00      7153.44
 1059.15        2954.25           2204        1588.00      6922.29
 1059.18        2954.50           2208        1587.00      6917.93
 1059.21        2954.75           2211        1606.00      7000.79
 1059.24        2955.00           2215        1626.00      7088.02
 1059.27        2955.25           2218        1686.00      7349.70
 1059.31        2955.50           2222        1612.00      7026.96
 1059.34        2955.75           2225        1648.00      7183.97
 1059.37        2956.00           2229        1622.00      7070.58
 1059.40        2956.25           2232        1677.00      7310.45
 1059.43        2956.50           2236        1707.00      7441.29
 1059.46        2956.75           2239        1693.00      7380.23
 1059.49        2957.00           2243        1664.00      7253.75
 1059.52        2957.25           2246        1734.00      7559.05
 1059.55        2957.50           2250        1731.00      7545.96
 1059.58        2957.75           2254        1726.00      7524.16
 1059.61        2958.00           2257        1726.00      7524.16
 1059.64        2958.25           2261        1766.00      7698.61
 1059.68        2958.50           2264        1755.00      7650.64
 1059.71        2958.75           2268        1784.00      7777.12
 1059.74        2959.00           2271        1793.00      7816.38
 1059.77        2959.25           2275        1808.00      7881.80
 1059.80        2959.50           2278        1785.00      7781.48
 1059.83        2959.75           2282        1831.00      7982.11
 1059.86        2960.00           2285        1880.00      8195.83
 1059.89        2960.25           2289        1878.00      8187.11
 1059.92        2960.50           2293        1955.00      8522.96
 1059.95        2960.75           2296        1967.00      8575.30
 1059.98        2961.00           2300        2084.00      9085.63
 1060.01        2961.25           2303        2340.00     10202.32
 1060.04        2961.50           2307        5310.00     23163.83
 1060.07        2961.75           2310       12359.00     53972.54
 1060.10        2962.00           2314       28212.00    123497.40
 1060.13        2962.25           2317       41427.00    181705.90
 1060.16        2962.50           2321       61321.00    269771.80
 1060.20        2962.75           2324       77705.00    342699.60
 1060.23        2963.00           2328       98984.00    437962.40
 1060.26        2963.25           2331      112715.00    499765.60
 1060.29        2963.50           2335      132717.00    590266.00
 1060.32        2963.75           2339      155461.00    693861.00
 1060.36        2964.00           2342      173899.00    778388.40
 1060.39        2964.25           2346      195743.00    879171.90
 1060.42        2964.50           2349      210969.00    949838.40
 1060.46        2964.75           2353      229970.00   1038512.00
 1060.49        2965.00           2356      244742.00   1107829.00
 1060.52        2965.25           2360      263386.00   1195792.00
 1060.55        2965.50           2363      279118.00   1270437.00
 1060.58        2965.75           2367      299605.00   1368228.00
 1060.61        2966.00           2370      314828.00   1441325.00
 1060.64        2966.25           2374      331313.00   1520906.00
 1060.67        2966.50           2378      345195.00   1588265.00
 1060.70        2966.75           2381      350159.00   1612429.00
 1060.73        2967.00           2385      352105.00   1621913.00
 1060.76        2967.25           2388      352666.00   1624648.00
 1060.79        2967.50           2392      352472.00   1623702.00
 1060.82        2967.75           2395      352363.00   1623171.00
 1060.85        2968.00           2399      349175.00   1607636.00
 1060.88        2968.25           2402      340694.00   1566390.00
 1060.91        2968.50           2406      326017.00   1495291.00
 1060.94        2968.75           2409      313223.00   1433601.00
 1060.98        2969.00           2413      294801.00   1345237.00
 1061.01        2969.25           2417      273521.00   1243836.00
 1061.04        2969.50           2420      259352.00   1176714.00
 1061.07        2969.75           2424      238888.00   1080319.00
 1061.10        2970.00           2427      223751.00   1009430.00
 1061.13        2970.25           2431      202567.00    910800.60
 1061.16        2970.50           2434      188227.00    844415.60
 1061.19        2970.75           2438      165846.00    741409.60
 1061.22        2971.00           2441      149089.00    664763.10
 1061.25        2971.25           2445      126329.00    561301.90
 1061.28        2971.50           2449      104952.00    464792.20
 1061.31        2971.75           2452       88958.00    393000.20
 1061.34        2972.00           2456       69530.00    306265.90
 1061.37        2972.25           2459       53598.00    235521.00
 1061.40        2972.50           2463       33970.00    148831.40
 1061.43        2972.75           2466       19985.00     87376.02
 1061.46        2973.00           2470        7007.00     30574.93
 1061.50        2973.25           2473        3306.00     14416.83
 1061.53        2973.50           2477        2119.00      9238.30
 1061.56        2973.75           2481        1999.00      8714.88
 1061.59        2974.00           2484        1996.00      8701.79
 1061.62        2974.25           2488        1913.00      8339.77
 1061.65        2974.50           2491        1873.00      8165.30
 1061.68        2974.75           2495        1830.00      7977.75
 1061.71        2975.00           2498        1842.00      8030.09
 1061.74        2975.25           2502        1775.00      7737.87
 1061.77        2975.50           2505        1801.00      7851.27
 1061.80        2975.75           2509        1766.00      7698.61
 1061.83        2976.00           2512        1758.00      7663.72
 1061.86        2976.25           2516        1711.00      7458.74
 1061.89        2976.50           2520        1686.00      7349.70
 1061.92        2976.75           2523        1695.00      7388.95
 1061.95        2977.00           2527        1680.00      7323.53
 1061.98        2977.25           2530        1697.00      7397.68
 1062.02        2977.50           2534        1648.00      7183.97
 1062.05        2977.75           2537        1650.00      7192.69
 1062.08        2978.00           2541        1598.00      6965.90
 1062.11        2978.25           2544        1621.00      7066.21
 1062.14        2978.50           2548        1598.00      6965.90
 1062.17        2978.75           2552        1601.00      6978.99
 1062.20        2979.00           2555        1582.00      6896.12
 1062.23        2979.25           2559        1581.00      6891.76
 1062.26        2979.50           2562        1546.00      6739.12
 1062.29        2979.75           2566        1587.00      6917.93
 1062.32        2980.00           2569        1513.00      6595.20
 1062.35        2980.25           2573        1487.00      6481.81
 1062.38        2980.50           2577        1535.00      6691.15
 1062.41        2980.75           2580        1524.00      6643.17
 1062.44        2981.00           2584        1456.00      6346.62
 1062.47        2981.25           2587        1509.00      6577.76
 1062.50        2981.50           2591        1498.00      6529.78
 1062.54        2981.75           2594        1497.00      6525.42
 1062.57        2982.00           2598        1491.00      6499.26
 1062.60        2982.25           2601        1486.00      6477.45
 1062.63        2982.50           2605        1440.00      6276.84
 1062.66        2982.75           2609        1451.00      6324.81
 1062.69        2983.00           2612        1427.00      6220.15
 1062.72        2983.25           2616        1445.00      6298.65
 1062.75        2983.50           2619        1459.00      6359.70
 1062.78        2983.75           2623        1439.00      6272.48
 1062.81        2984.00           2626        1456.00      6346.62
HS scan finished at 17:43:02
end
