************************************************************
  HS Scan of (1) Internal mercury lamp
************************************************************
Integration time is 0.2294 seconds per sample
dh240119Reading 51.44 .94 2.31pr1000
************************************************************
Dead Time -------------------------  3.4E-08 
Number of Cycles Used -------------  4 
Starting Wavelength (Angstroms) ---  2950 
Final Wavelength (Angstoms) -------  2984 
Wavelength Increment (Angstroms) --  .25 
Filter Wheel #1 Position ---------- (1) Ground quartz diffuser (ND=2.32)
Filter Wheel #2 Position ---------- (1) Neutral Density 0.494



************************************************************
HS scan start time = 05:10:13
Dark Count =  .3 


Time (GMT)  Wavelength (Ang)  Step Number  Raw Counts  Counts/Second

  311.11        2950.00           2144        1769.00      7712.14
  311.30        2950.25           2147        1753.00      7642.35
  311.33        2950.50           2151        1818.00      7925.85
  311.36        2950.75           2155        1773.00      7729.58
  311.39        2951.00           2158        1775.00      7738.30
  311.42        2951.25           2162        1769.00      7712.14
  311.45        2951.50           2165        1839.00      8017.44
  311.48        2951.75           2169        1773.00      7729.58
  311.52        2952.00           2172        1798.00      7838.62
  311.55        2952.25           2176        1815.00      7912.76
  311.58        2952.50           2179        1783.00      7773.20
  311.61        2952.75           2183        1802.00      7856.07
  311.64        2953.00           2186        1819.00      7930.21
  311.67        2953.25           2190        1819.00      7930.21
  311.70        2953.50           2193        1798.00      7838.62
  311.73        2953.75           2197        1844.00      8039.25
  311.76        2954.00           2200        1835.00      8000.00
  311.79        2954.25           2204        1847.00      8052.34
  311.82        2954.50           2208        1843.00      8034.89
  311.85        2954.75           2211        1882.00      8204.99
  311.88        2955.00           2215        1941.00      8462.33
  311.91        2955.25           2218        1887.00      8226.80
  311.94        2955.50           2222        1889.00      8235.52
  311.97        2955.75           2225        1882.00      8204.99
  312.00        2956.00           2229        1936.00      8440.52
  312.04        2956.25           2232        1959.00      8540.84
  312.07        2956.50           2236        1963.00      8558.29
  312.10        2956.75           2239        1929.00      8409.99
  312.13        2957.00           2243        1997.00      8706.59
  312.16        2957.25           2246        2003.00      8732.76
  312.19        2957.50           2250        2028.00      8841.80
  312.22        2957.75           2254        1995.00      8697.86
  312.25        2958.00           2257        2053.00      8950.85
  312.28        2958.25           2261        2019.00      8802.55
  312.31        2958.50           2264        2080.00      9068.62
  312.34        2958.75           2268        2115.00      9221.29
  312.37        2959.00           2271        2082.00      9077.34
  312.40        2959.25           2275        2127.00      9273.63
  312.43        2959.50           2278        2212.00      9644.40
  312.46        2959.75           2282        2158.00      9408.85
  312.49        2960.00           2285        2202.00      9600.78
  312.53        2960.25           2289        2213.00      9648.76
  312.56        2960.50           2293        2268.00      9888.68
  312.59        2960.75           2296        2338.00     10194.03
  312.62        2961.00           2300        2439.00     10634.62
  312.65        2961.25           2303        2793.00     12178.97
  312.68        2961.50           2307        6078.00     26517.80
  312.71        2961.75           2310       14186.00     61968.71
  312.74        2962.00           2314       34548.00    151377.40
  312.77        2962.25           2317       51213.00    224960.40
  312.80        2962.50           2321       75009.00    330674.70
  312.83        2962.75           2324       93012.00    411164.40
  312.86        2963.00           2328      118014.00    523687.00
  312.89        2963.25           2331      136896.00    609245.80
  312.92        2963.50           2335      163911.00    732538.70
  312.95        2963.75           2339      190441.00    854645.70
  312.98        2964.00           2342      211264.00    951211.40
  313.01        2964.25           2346      237984.00   1076077.00
  313.05        2964.50           2349      257169.00   1166401.00
  313.08        2964.75           2353      284693.00   1296983.00
  313.11        2965.00           2356      304000.00   1389294.00
  313.14        2965.25           2360      327977.00   1504766.00
  313.17        2965.50           2363      342908.00   1577146.00
  313.20        2965.75           2367      366115.00   1690378.00
  313.23        2966.00           2370      387370.00   1794880.00
  313.26        2966.25           2374      410710.00   1910523.00
  313.29        2966.50           2378      427617.00   1994884.00
  313.32        2966.75           2381      433327.00   2023489.00
  313.35        2967.00           2385      435597.00   2034877.00
  313.38        2967.25           2388      436164.00   2037723.00
  313.41        2967.50           2392      434647.00   2030110.00
  313.44        2967.75           2395      433940.00   2026564.00
  313.47        2968.00           2399      427186.00   1992728.00
  313.50        2968.25           2402      416500.00   1939357.00
  313.53        2968.50           2406      395447.00   1834793.00
  313.57        2968.75           2409      377510.00   1746307.00
  313.60        2969.00           2413      353566.00   1629038.00
  313.63        2969.25           2417      330804.00   1518442.00
  313.66        2969.50           2420      313040.00   1432721.00
  313.69        2969.75           2424      285505.00   1300853.00
  313.72        2970.00           2427      265222.00   1204484.00
  313.75        2970.25           2431      237321.00   1072965.00
  313.78        2970.50           2434      217574.00    980601.60
  313.81        2970.75           2438      193383.00    868250.00
  313.84        2971.00           2441      174522.00    781253.60
  313.87        2971.25           2445      145907.00    650254.70
  313.90        2971.50           2449      118583.00    526258.00
  313.93        2971.75           2452       98951.00    437814.70
  313.96        2972.00           2456       75157.00    331334.60
  313.99        2972.25           2459       58707.00    258170.40
  314.02        2972.50           2463       39306.00    172348.30
  314.05        2972.75           2466       22835.00     99879.58
  314.08        2973.00           2470        6859.00     29928.87
  314.12        2973.25           2473        3379.00     14735.80
  314.15        2973.50           2477        2369.00     10329.26
  314.18        2973.75           2481        2254.00      9827.61
  314.21        2974.00           2484        2166.00      9443.75
  314.24        2974.25           2488        2114.00      9216.93
  314.27        2974.50           2491        2067.00      9011.92
  314.30        2974.75           2495        2027.00      8837.44
  314.33        2975.00           2498        2032.00      8859.25
  314.36        2975.25           2502        2054.00      8955.21
  314.39        2975.50           2505        1914.00      8344.56
  314.42        2975.75           2509        1878.00      8187.55
  314.45        2976.00           2512        1861.00      8113.40
  314.48        2976.25           2516        1846.00      8047.97
  314.51        2976.50           2520        1789.00      7799.37
  314.54        2976.75           2523        1765.00      7694.69
  314.57        2977.00           2527        1778.00      7751.39
  314.60        2977.25           2530        1715.00      7476.62
  314.64        2977.50           2534        1713.00      7467.89
  314.67        2977.75           2537        1689.00      7363.22
  314.70        2978.00           2541        1662.00      7245.46
  314.73        2978.25           2544        1666.00      7262.91
  314.76        2978.50           2548        1654.00      7210.57
  314.79        2978.75           2552        1620.00      7062.29
  314.82        2979.00           2555        1648.00      7184.41
  314.85        2979.25           2559        1611.00      7023.04
  314.88        2979.50           2562        1637.00      7136.43
  314.91        2979.75           2566        1590.00      6931.45
  314.94        2980.00           2569        1594.00      6948.90
  314.97        2980.25           2573        1596.00      6957.62
  315.00        2980.50           2577        1574.00      6861.67
  315.03        2980.75           2580        1532.00      6678.50
  315.06        2981.00           2584        1533.00      6682.86
  315.09        2981.25           2587        1529.00      6665.42
  315.12        2981.50           2591        1565.00      6822.42
  315.16        2981.75           2594        1562.00      6809.34
  315.19        2982.00           2598        1518.00      6617.44
  315.22        2982.25           2601        1583.00      6900.92
  315.25        2982.50           2605        1497.00      6525.86
  315.28        2982.75           2609        1475.00      6429.91
  315.31        2983.00           2612        1512.00      6591.28
  315.34        2983.25           2616        1505.00      6560.75
  315.37        2983.50           2619        1505.00      6560.75
  315.40        2983.75           2623        1498.00      6530.22
  315.43        2984.00           2626        1493.00      6508.41
HS scan finished at 05:15:39
end
************************************************************
  HS Scan of (1) Internal mercury lamp
************************************************************
Integration time is 0.2294 seconds per sample
dh240119Reading 51.44 .94 2.82pr1000
************************************************************
Dead Time -------------------------  3.4E-08 
Number of Cycles Used -------------  4 
Starting Wavelength (Angstroms) ---  2950 
Final Wavelength (Angstoms) -------  2984 
Wavelength Increment (Angstroms) --  .25 
Filter Wheel #1 Position ---------- (1) Ground quartz diffuser (ND=2.32)
Filter Wheel #2 Position ---------- (1) Neutral Density 0.494



************************************************************
HS scan start time = 17:39:53
Dark Count =  .7 


Time (GMT)  Wavelength (Ang)  Step Number  Raw Counts  Counts/Second

 1060.77        2950.00           2144        1427.00      6218.84
 1060.97        2950.25           2147        1434.00      6249.37
 1061.00        2950.50           2151        1478.00      6441.25
 1061.03        2950.75           2155        1470.00      6406.36
 1061.06        2951.00           2158        1464.00      6380.20
 1061.09        2951.25           2162        1460.00      6362.75
 1061.12        2951.50           2165        1456.00      6345.31
 1061.15        2951.75           2169        1459.00      6358.39
 1061.18        2952.00           2172        1496.00      6519.75
 1061.21        2952.25           2176        1480.00      6449.98
 1061.24        2952.50           2179        1512.00      6589.53
 1061.27        2952.75           2183        1469.00      6402.00
 1061.30        2953.00           2186        1480.00      6449.98
 1061.33        2953.25           2190        1513.00      6593.89
 1061.36        2953.50           2193        1489.00      6489.23
 1061.39        2953.75           2197        1510.00      6580.81
 1061.43        2954.00           2200        1503.00      6550.28
 1061.46        2954.25           2204        1508.00      6572.09
 1061.49        2954.50           2208        1541.00      6716.01
 1061.52        2954.75           2211        1579.00      6881.73
 1061.55        2955.00           2215        1528.00      6659.31
 1061.58        2955.25           2218        1550.00      6755.26
 1061.61        2955.50           2222        1542.00      6720.37
 1061.64        2955.75           2225        1563.00      6811.95
 1061.67        2956.00           2229        1566.00      6825.04
 1061.70        2956.25           2232        1572.00      6851.20
 1061.73        2956.50           2236        1593.00      6942.79
 1061.76        2956.75           2239        1609.00      7012.57
 1061.79        2957.00           2243        1586.00      6912.26
 1061.82        2957.25           2246        1624.00      7077.99
 1061.85        2957.50           2250        1640.00      7147.77
 1061.88        2957.75           2254        1673.00      7291.70
 1061.91        2958.00           2257        1682.00      7330.95
 1061.95        2958.25           2261        1682.00      7330.95
 1061.98        2958.50           2264        1671.00      7282.97
 1062.01        2958.75           2268        1675.00      7300.42
 1062.04        2959.00           2271        1686.00      7348.39
 1062.07        2959.25           2275        1712.00      7461.79
 1062.10        2959.50           2278        1776.00      7740.92
 1062.13        2959.75           2282        1792.00      7810.71
 1062.16        2960.00           2285        1787.00      7788.90
 1062.19        2960.25           2289        1848.00      8054.95
 1062.22        2960.50           2293        1832.00      7985.17
 1062.25        2960.75           2296        1880.00      8194.52
 1062.28        2961.00           2300        1938.00      8447.50
 1062.31        2961.25           2303        2227.00      9708.09
 1062.34        2961.50           2307        5362.00     23389.56
 1062.37        2961.75           2310       12585.00     54960.06
 1062.40        2962.00           2314       26963.00    118006.50
 1062.44        2962.25           2317       41428.00    181709.00
 1062.47        2962.50           2321       62657.00    275703.60
 1062.50        2962.75           2324       79571.00    351027.30
 1062.53        2963.00           2328      101063.00    447301.80
 1062.56        2963.25           2331      116763.00    518034.30
 1062.59        2963.50           2335      137553.00    612230.10
 1062.62        2963.75           2339      159877.00    714059.60
 1062.65        2964.00           2342      178063.00    797544.90
 1062.68        2964.25           2346      201394.00    905357.60
 1062.71        2964.50           2349      217462.00    980077.50
 1062.74        2964.75           2353      238099.00   1076614.00
 1062.77        2965.00           2356      252839.00   1145964.00
 1062.80        2965.25           2360      270280.00   1228454.00
 1062.83        2965.50           2363      285127.00   1299049.00
 1062.86        2965.75           2367      305770.00   1397785.00
 1062.89        2966.00           2370      321455.00   1473262.00
 1062.92        2966.25           2374      340290.00   1564427.00
 1062.95        2966.50           2378      355104.00   1636540.00
 1062.99        2966.75           2381      360260.00   1661724.00
 1063.02        2967.00           2385      362134.00   1670888.00
 1063.05        2967.25           2388      362662.00   1673472.00
 1063.08        2967.50           2392      362909.00   1674680.00
 1063.11        2967.75           2395      362735.00   1673829.00
 1063.14        2968.00           2399      359407.00   1657554.00
 1063.17        2968.25           2402      350153.00   1612398.00
 1063.20        2968.50           2406      334203.00   1534901.00
 1063.23        2968.75           2409      320895.00   1470561.00
 1063.26        2969.00           2413      303289.00   1385882.00
 1063.29        2969.25           2417      282878.00   1288334.00
 1063.32        2969.50           2420      267089.00   1213326.00
 1063.35        2969.75           2424      246520.00   1116193.00
 1063.38        2970.00           2427      231236.00   1044439.00
 1063.41        2970.25           2431      211320.00    951470.10
 1063.44        2970.50           2434      195122.00    876295.60
 1063.47        2970.75           2438      173945.00    778598.60
 1063.51        2971.00           2441      156045.00    696529.50
 1063.54        2971.25           2445      132023.00    587115.00
 1063.57        2971.50           2449      108835.00    482273.70
 1063.60        2971.75           2452       92802.00    410221.10
 1063.63        2972.00           2456       72425.00    319156.40
 1063.66        2972.25           2459       56280.00    247405.00
 1063.69        2972.50           2463       34942.00    153111.00
 1063.72        2972.75           2466       20959.00     91646.52
 1063.75        2973.00           2470        7657.00     33413.27
 1063.78        2973.25           2473        3455.00     15065.69
 1063.81        2973.50           2477        2107.00      9184.65
 1063.84        2973.75           2481        1949.00      8495.48
 1063.87        2974.00           2484        1887.00      8225.06
 1063.90        2974.25           2488        1816.00      7915.38
 1063.93        2974.50           2491        1838.00      8011.34
 1063.96        2974.75           2495        1777.00      7745.28
 1063.99        2975.00           2498        1737.00      7570.82
 1064.03        2975.25           2502        1749.00      7623.16
 1064.06        2975.50           2505        1731.00      7544.66
 1064.09        2975.75           2509        1662.00      7243.72
 1064.12        2976.00           2512        1702.00      7418.17
 1064.15        2976.25           2516        1724.00      7514.13
 1064.18        2976.50           2520        1649.00      7187.02
 1064.21        2976.75           2523        1627.00      7091.07
 1064.24        2977.00           2527        1670.00      7278.61
 1064.27        2977.25           2530        1615.00      7038.74
 1064.30        2977.50           2534        1590.00      6929.71
 1064.33        2977.75           2537        1592.00      6938.43
 1064.36        2978.00           2541        1541.00      6716.01
 1064.39        2978.25           2544        1500.00      6537.20
 1064.42        2978.50           2548        1544.00      6729.09
 1064.45        2978.75           2552        1537.00      6698.56
 1064.48        2979.00           2555        1504.00      6554.64
 1064.51        2979.25           2559        1511.00      6585.17
 1064.54        2979.50           2562        1524.00      6641.87
 1064.58        2979.75           2566        1467.00      6393.28
 1064.61        2980.00           2569        1482.00      6458.70
 1064.64        2980.25           2573        1463.00      6375.84
 1064.67        2980.50           2577        1425.00      6210.12
 1064.70        2980.75           2580        1455.00      6340.95
 1064.73        2981.00           2584        1427.00      6218.84
 1064.76        2981.25           2587        1415.00      6166.51
 1064.79        2981.50           2591        1429.00      6227.56
 1064.82        2981.75           2594        1412.00      6153.42
 1064.85        2982.00           2598        1391.00      6061.84
 1064.88        2982.25           2601        1394.00      6074.93
 1064.91        2982.50           2605        1378.00      6005.15
 1064.94        2982.75           2609        1387.00      6044.40
 1064.97        2983.00           2612        1393.00      6070.56
 1065.00        2983.25           2616        1447.00      6306.06
 1065.03        2983.50           2619        1365.00      5948.46
 1065.06        2983.75           2623        1392.00      6066.20
 1065.10        2984.00           2626        1379.00      6009.51
HS scan finished at 17:45:19
end
