************************************************************
  HS Scan of (1) Internal mercury lamp
************************************************************
Integration time is 0.2294 seconds per sample
dh080219Reading 51.44 .94 2.86pr1000
************************************************************
Dead Time -------------------------  3.4E-08 
Number of Cycles Used -------------  4 
Starting Wavelength (Angstroms) ---  2950 
Final Wavelength (Angstoms) -------  2984 
Wavelength Increment (Angstroms) --  .25 
Filter Wheel #1 Position ---------- (1) Ground quartz diffuser (ND=2.32)
Filter Wheel #2 Position ---------- (1) Neutral Density 0.494



************************************************************
HS scan start time = 04:48:28
Dark Count =  .5 


Time (GMT)  Wavelength (Ang)  Step Number  Raw Counts  Counts/Second

  289.36        2950.00           2144        1629.00      7100.67
  289.55        2950.25           2147        1633.00      7118.11
  289.58        2950.50           2151        1623.00      7074.50
  289.61        2950.75           2155        1644.00      7166.09
  289.64        2951.00           2158        1611.00      7022.16
  289.67        2951.25           2162        1629.00      7100.67
  289.70        2951.50           2165        1646.00      7174.81
  289.73        2951.75           2169        1673.00      7292.57
  289.77        2952.00           2172        1636.00      7131.20
  289.80        2952.25           2176        1650.00      7192.26
  289.83        2952.50           2179        1660.00      7235.87
  289.86        2952.75           2183        1661.00      7240.23
  289.89        2953.00           2186        1664.00      7253.31
  289.92        2953.25           2190        1658.00      7227.15
  289.95        2953.50           2193        1675.00      7301.29
  289.98        2953.75           2197        1676.00      7305.65
  290.01        2954.00           2200        1631.00      7109.39
  290.04        2954.25           2204        1671.00      7283.84
  290.07        2954.50           2208        1709.00      7449.58
  290.10        2954.75           2211        1707.00      7440.85
  290.13        2955.00           2215        1716.00      7480.11
  290.16        2955.25           2218        1702.00      7419.05
  290.19        2955.50           2222        1741.00      7589.14
  290.22        2955.75           2225        1728.00      7532.44
  290.25        2956.00           2229        1740.00      7584.78
  290.29        2956.25           2232        1764.00      7689.46
  290.32        2956.50           2236        1719.00      7493.19
  290.35        2956.75           2239        1789.00      7798.49
  290.38        2957.00           2243        1790.00      7802.85
  290.41        2957.25           2246        1784.00      7776.69
  290.44        2957.50           2250        1797.00      7833.39
  290.47        2957.75           2254        1834.00      7994.76
  290.50        2958.00           2257        1875.00      8173.59
  290.53        2958.25           2261        1896.00      8265.18
  290.56        2958.50           2264        1855.00      8086.36
  290.59        2958.75           2268        1920.00      8369.86
  290.62        2959.00           2271        1849.00      8060.19
  290.65        2959.25           2275        1958.00      8535.61
  290.68        2959.50           2278        1946.00      8483.27
  290.71        2959.75           2282        1985.00      8653.37
  290.74        2960.00           2285        2050.00      8936.89
  290.77        2960.25           2289        2011.00      8766.78
  290.80        2960.50           2293        2116.00      9224.78
  290.84        2960.75           2296        2127.00      9272.76
  290.87        2961.00           2300        2189.00      9543.20
  290.90        2961.25           2303        2480.00     10812.61
  290.93        2961.50           2307        6210.00     27093.39
  290.96        2961.75           2310       15364.00     67125.56
  290.99        2962.00           2314       31671.00    138710.60
  291.02        2962.25           2317       44859.00    196860.30
  291.05        2962.50           2321       66128.00    291130.40
  291.08        2962.75           2324       84218.00    371791.00
  291.11        2963.00           2328      110164.00    488263.20
  291.14        2963.25           2331      129757.00    576837.20
  291.17        2963.50           2335      156390.00    698107.80
  291.20        2963.75           2339      181928.00    815350.70
  291.23        2964.00           2342      200857.00    902868.00
  291.26        2964.25           2346      226834.00   1023839.00
  291.29        2964.50           2349      244893.00   1108539.00
  291.32        2964.75           2353      269053.00   1222636.00
  291.36        2965.00           2356      288145.00   1313443.00
  291.39        2965.25           2360      313230.00   1433634.00
  291.42        2965.50           2363      331402.00   1521336.00
  291.45        2965.75           2367      354087.00   1631578.00
  291.48        2966.00           2370      369792.00   1708401.00
  291.51        2966.25           2374      389427.00   1805033.00
  291.54        2966.50           2378      404071.00   1877532.00
  291.57        2966.75           2381      408164.00   1897862.00
  291.60        2967.00           2385      410383.00   1908896.00
  291.63        2967.25           2388      410608.00   1910015.00
  291.66        2967.50           2392      410712.00   1910533.00
  291.69        2967.75           2395      409278.00   1903400.00
  291.72        2968.00           2399      403722.00   1875800.00
  291.75        2968.25           2402      393250.00   1823925.00
  291.78        2968.50           2406      372634.00   1722347.00
  291.81        2968.75           2409      355898.00   1640416.00
  291.84        2969.00           2413      332749.00   1527858.00
  291.88        2969.25           2417      310460.00   1420313.00
  291.91        2969.50           2420      293751.00   1340216.00
  291.94        2969.75           2424      272237.00   1237740.00
  291.97        2970.00           2427      255197.00   1157089.00
  292.00        2970.25           2431      228641.00   1032292.00
  292.03        2970.50           2434      208662.00    939108.60
  292.06        2970.75           2438      181243.00    812193.50
  292.09        2971.00           2441      162793.00    727414.60
  292.12        2971.25           2445      138611.00    617041.00
  292.15        2971.50           2449      115283.00    511352.80
  292.18        2971.75           2452       96851.00    428384.80
  292.21        2972.00           2456       71670.00    315794.10
  292.24        2972.25           2459       54930.00    241422.10
  292.27        2972.50           2463       32764.00    143521.20
  292.30        2972.75           2466       17208.00     75202.94
  292.33        2973.00           2470        5899.00     25735.24
  292.36        2973.25           2473        3105.00     13539.36
  292.40        2973.50           2477        2296.00     10009.94
  292.43        2973.75           2481        2169.00      9455.96
  292.46        2974.00           2484        2084.00      9085.20
  292.49        2974.25           2488        2055.00      8958.70
  292.52        2974.50           2491        1985.00      8653.37
  292.55        2974.75           2495        2029.00      8845.29
  292.58        2975.00           2498        1920.00      8369.86
  292.61        2975.25           2502        1946.00      8483.27
  292.64        2975.50           2505        1892.00      8247.74
  292.67        2975.75           2509        1895.00      8260.82
  292.70        2976.00           2512        1892.00      8247.74
  292.73        2976.25           2516        1830.00      7977.32
  292.76        2976.50           2520        1842.00      8029.66
  292.79        2976.75           2523        1785.00      7781.05
  292.82        2977.00           2527        1797.00      7833.39
  292.85        2977.25           2530        1759.00      7667.65
  292.88        2977.50           2534        1759.00      7667.65
  292.92        2977.75           2537        1724.00      7515.00
  292.95        2978.00           2541        1701.00      7414.69
  292.98        2978.25           2544        1699.00      7405.96
  293.01        2978.50           2548        1698.00      7401.60
  293.04        2978.75           2552        1668.00      7270.76
  293.07        2979.00           2555        1689.00      7362.35
  293.10        2979.25           2559        1657.00      7222.79
  293.13        2979.50           2562        1641.00      7153.00
  293.16        2979.75           2566        1619.00      7057.05
  293.19        2980.00           2569        1652.00      7200.98
  293.22        2980.25           2573        1627.00      7091.95
  293.25        2980.50           2577        1577.00      6873.88
  293.28        2980.75           2580        1607.00      7004.72
  293.31        2981.00           2584        1596.00      6956.75
  293.34        2981.25           2587        1617.00      7048.33
  293.37        2981.50           2591        1580.00      6886.97
  293.40        2981.75           2594        1593.00      6943.66
  293.44        2982.00           2598        1579.00      6882.60
  293.47        2982.25           2601        1542.00      6721.24
  293.50        2982.50           2605        1500.00      6538.07
  293.53        2982.75           2609        1555.00      6777.94
  293.56        2983.00           2612        1525.00      6647.10
  293.59        2983.25           2616        1514.00      6599.13
  293.62        2983.50           2619        1528.00      6660.18
  293.65        2983.75           2623        1497.00      6524.99
  293.68        2984.00           2626        1488.00      6485.74
HS scan finished at 04:53:54
end
************************************************************
  HS Scan of (1) Internal mercury lamp
************************************************************
Integration time is 0.2294 seconds per sample
dh080219Reading 51.44 .94 2.98pr1000
************************************************************
Dead Time -------------------------  3.4E-08 
Number of Cycles Used -------------  4 
Starting Wavelength (Angstroms) ---  2950 
Final Wavelength (Angstoms) -------  2984 
Wavelength Increment (Angstroms) --  .25 
Filter Wheel #1 Position ---------- (1) Ground quartz diffuser (ND=2.32)
Filter Wheel #2 Position ---------- (1) Neutral Density 0.494



************************************************************
HS scan start time = 18:07:29
Dark Count =  .7 


Time (GMT)  Wavelength (Ang)  Step Number  Raw Counts  Counts/Second

 1088.38        2950.00           2144        1249.00      5442.59
 1088.58        2950.25           2147        1279.00      5573.42
 1088.61        2950.50           2151        1247.00      5433.87
 1088.64        2950.75           2155        1271.00      5538.53
 1088.67        2951.00           2158        1264.00      5508.01
 1088.70        2951.25           2162        1275.00      5555.98
 1088.73        2951.50           2165        1275.00      5555.98
 1088.76        2951.75           2169        1298.00      5656.28
 1088.79        2952.00           2172        1272.00      5542.89
 1088.82        2952.25           2176        1290.00      5621.39
 1088.85        2952.50           2179        1294.00      5638.83
 1088.88        2952.75           2183        1273.00      5547.25
 1088.91        2953.00           2186        1296.00      5647.55
 1088.94        2953.25           2190        1309.00      5704.25
 1088.97        2953.50           2193        1310.00      5708.61
 1089.00        2953.75           2197        1337.00      5826.35
 1089.03        2954.00           2200        1300.00      5665.00
 1089.07        2954.25           2204        1294.00      5638.83
 1089.10        2954.50           2208        1288.00      5612.67
 1089.13        2954.75           2211        1333.00      5808.91
 1089.16        2955.00           2215        1361.00      5931.01
 1089.19        2955.25           2218        1370.00      5970.26
 1089.22        2955.50           2222        1367.00      5957.18
 1089.25        2955.75           2225        1364.00      5944.10
 1089.28        2956.00           2229        1346.00      5865.60
 1089.31        2956.25           2232        1345.00      5861.24
 1089.34        2956.50           2236        1362.00      5935.37
 1089.37        2956.75           2239        1393.00      6070.56
 1089.40        2957.00           2243        1374.00      5987.71
 1089.43        2957.25           2246        1440.00      6275.53
 1089.46        2957.50           2250        1441.00      6279.89
 1089.49        2957.75           2254        1422.00      6197.03
 1089.52        2958.00           2257        1423.00      6201.40
 1089.55        2958.25           2261        1487.00      6480.50
 1089.59        2958.50           2264        1466.00      6388.92
 1089.62        2958.75           2268        1494.00      6511.03
 1089.65        2959.00           2271        1491.00      6497.95
 1089.68        2959.25           2275        1531.00      6672.39
 1089.71        2959.50           2278        1498.00      6528.48
 1089.74        2959.75           2282        1552.00      6763.98
 1089.78        2960.00           2285        1579.00      6881.73
 1089.81        2960.25           2289        1596.00      6955.87
 1089.84        2960.50           2293        1577.00      6873.01
 1089.87        2960.75           2296        1672.00      7287.33
 1089.90        2961.00           2300        1651.00      7195.75
 1089.93        2961.25           2303        1812.00      7897.94
 1089.96        2961.50           2307        3058.00     13333.42
 1089.99        2961.75           2310        7442.00     32473.93
 1090.02        2962.00           2314       20546.00     89835.00
 1090.05        2962.25           2317       34130.00    149534.70
 1090.08        2962.50           2321       53145.00    233513.20
 1090.11        2962.75           2324       68084.00    299829.60
 1090.14        2963.00           2328       87743.00    387559.50
 1090.17        2963.25           2331      102955.00    455807.60
 1090.20        2963.50           2335      122779.00    545229.20
 1090.23        2963.75           2339      144571.00    644165.50
 1090.26        2964.00           2342      160314.00    716060.20
 1090.30        2964.25           2346      180123.00    807032.00
 1090.33        2964.50           2349      194602.00    873888.80
 1090.36        2964.75           2353      213977.00    963838.60
 1090.39        2965.00           2356      228798.00   1033026.00
 1090.42        2965.25           2360      246667.00   1116885.00
 1090.45        2965.50           2363      259332.00   1176618.00
 1090.48        2965.75           2367      277846.00   1264386.00
 1090.51        2966.00           2370      292167.00   1332645.00
 1090.54        2966.25           2374      310199.00   1419057.00
 1090.57        2966.50           2378      324428.00   1487614.00
 1090.60        2966.75           2381      328859.00   1509030.00
 1090.63        2967.00           2385      331182.00   1520270.00
 1090.66        2967.25           2388      331283.00   1520759.00
 1090.69        2967.50           2392      330673.00   1517806.00
 1090.72        2967.75           2395      331446.00   1521548.00
 1090.75        2968.00           2399      327441.00   1502173.00
 1090.78        2968.25           2402      318719.00   1460068.00
 1090.82        2968.50           2406      304466.00   1391527.00
 1090.85        2968.75           2409      292324.00   1333396.00
 1090.88        2969.00           2413      274705.00   1249458.00
 1090.91        2969.25           2417      255113.00   1156692.00
 1090.94        2969.50           2420      241356.00   1091909.00
 1090.97        2969.75           2424      220610.00    994761.80
 1091.00        2970.00           2427      205745.00    925552.60
 1091.03        2970.25           2431      186488.00    836384.50
 1091.06        2970.50           2434      172907.00    773826.80
 1091.09        2970.75           2438      153757.00    686072.60
 1091.12        2971.00           2441      138294.00    615598.70
 1091.15        2971.25           2445      117945.00    523373.50
 1091.18        2971.50           2449       97394.00    430821.30
 1091.21        2971.75           2452       81940.00    361608.30
 1091.24        2972.00           2456       62813.00    276396.50
 1091.27        2972.25           2459       50014.00    219652.20
 1091.30        2972.50           2463       32771.00    143551.20
 1091.33        2972.75           2466       19120.00     83582.01
 1091.38        2973.00           2470        6451.00     28145.06
 1091.41        2973.25           2473        2959.00     12901.47
 1091.44        2973.50           2477        1858.00      8098.57
 1091.47        2973.75           2481        1737.00      7570.82
 1091.50        2974.00           2484        1683.00      7335.31
 1091.53        2974.25           2488        1632.00      7112.88
 1091.56        2974.50           2491        1598.00      6964.60
 1091.59        2974.75           2495        1581.00      6890.45
 1091.63        2975.00           2498        1555.00      6777.06
 1091.66        2975.25           2502        1513.00      6593.89
 1091.69        2975.50           2505        1518.00      6615.70
 1091.72        2975.75           2509        1505.00      6559.00
 1091.75        2976.00           2512        1446.00      6301.70
 1091.78        2976.25           2516        1471.00      6410.73
 1091.81        2976.50           2520        1478.00      6441.25
 1091.84        2976.75           2523        1452.00      6327.87
 1091.87        2977.00           2527        1400.00      6101.09
 1091.90        2977.25           2530        1386.00      6040.04
 1091.93        2977.50           2534        1391.00      6061.84
 1091.96        2977.75           2537        1340.00      5839.43
 1091.99        2978.00           2541        1378.00      6005.15
 1092.02        2978.25           2544        1344.00      5856.88
 1092.05        2978.50           2548        1361.00      5931.01
 1092.08        2978.75           2552        1341.00      5843.79
 1092.12        2979.00           2555        1331.00      5800.19
 1092.15        2979.25           2559        1329.00      5791.46
 1092.18        2979.50           2562        1279.00      5573.42
 1092.21        2979.75           2566        1280.00      5577.78
 1092.24        2980.00           2569        1300.00      5665.00
 1092.27        2980.25           2573        1269.00      5529.81
 1092.30        2980.50           2577        1299.00      5660.64
 1092.33        2980.75           2580        1241.00      5407.71
 1092.36        2981.00           2584        1272.00      5542.89
 1092.39        2981.25           2587        1276.00      5560.34
 1092.42        2981.50           2591        1238.00      5394.63
 1092.45        2981.75           2594        1210.00      5272.52
 1092.48        2982.00           2598        1210.00      5272.52
 1092.51        2982.25           2601        1226.00      5342.30
 1092.54        2982.50           2605        1208.00      5263.80
 1092.57        2982.75           2609        1216.00      5298.69
 1092.60        2983.00           2612        1185.00      5163.51
 1092.64        2983.25           2616        1196.00      5211.47
 1092.67        2983.50           2619        1190.00      5185.31
 1092.70        2983.75           2623        1180.00      5141.70
 1092.73        2984.00           2626        1208.00      5263.80
HS scan finished at 18:12:57
end
