************************************************************
  HS Scan of (1) Internal mercury lamp
************************************************************
Integration time is 0.2294 seconds per sample
dh060219Reading 51.44 .94 2.96pr1000
************************************************************
Dead Time -------------------------  3.4E-08 
Number of Cycles Used -------------  4 
Starting Wavelength (Angstroms) ---  2950 
Final Wavelength (Angstoms) -------  2984 
Wavelength Increment (Angstroms) --  .25 
Filter Wheel #1 Position ---------- (1) Ground quartz diffuser (ND=2.32)
Filter Wheel #2 Position ---------- (1) Neutral Density 0.494



************************************************************
HS scan start time = 04:51:32
Dark Count =  1 


Time (GMT)  Wavelength (Ang)  Step Number  Raw Counts  Counts/Second

  292.43        2950.00           2144        1594.00      6945.84
  292.62        2950.25           2147        1596.00      6954.57
  292.66        2950.50           2151        1599.00      6967.65
  292.69        2950.75           2155        1595.00      6950.20
  292.72        2951.00           2158        1599.00      6967.65
  292.75        2951.25           2162        1605.00      6993.82
  292.78        2951.50           2165        1605.00      6993.82
  292.81        2951.75           2169        1604.00      6989.46
  292.84        2952.00           2172        1637.00      7133.38
  292.87        2952.25           2176        1614.00      7033.07
  292.90        2952.50           2179        1634.00      7120.29
  292.93        2952.75           2183        1637.00      7133.38
  292.96        2953.00           2186        1665.00      7255.50
  292.99        2953.25           2190        1635.00      7124.66
  293.02        2953.50           2193        1633.00      7115.93
  293.05        2953.75           2197        1652.00      7198.80
  293.08        2954.00           2200        1660.00      7233.69
  293.11        2954.25           2204        1680.00      7320.92
  293.14        2954.50           2208        1682.00      7329.64
  293.19        2954.75           2211        1679.00      7316.55
  293.22        2955.00           2215        1651.00      7194.44
  293.25        2955.25           2218        1671.00      7281.66
  293.28        2955.50           2222        1773.00      7726.53
  293.31        2955.75           2225        1712.00      7460.48
  293.34        2956.00           2229        1745.00      7604.41
  293.37        2956.25           2232        1770.00      7713.44
  293.40        2956.50           2236        1774.00      7730.89
  293.44        2956.75           2239        1778.00      7748.34
  293.47        2957.00           2243        1792.00      7809.40
  293.50        2957.25           2246        1776.00      7739.61
  293.53        2957.50           2250        1793.00      7813.76
  293.56        2957.75           2254        1834.00      7992.58
  293.59        2958.00           2257        1856.00      8088.54
  293.62        2958.25           2261        1897.00      8267.36
  293.65        2958.50           2264        1859.00      8101.62
  293.68        2958.75           2268        1901.00      8284.81
  293.71        2959.00           2271        1894.00      8254.28
  293.74        2959.25           2275        1973.00      8598.85
  293.77        2959.50           2278        1934.00      8428.75
  293.80        2959.75           2282        1948.00      8489.81
  293.83        2960.00           2285        2036.00      8873.64
  293.86        2960.25           2289        2042.00      8899.82
  293.89        2960.50           2293        2095.00      9131.00
  293.93        2960.75           2296        2123.00      9253.13
  293.96        2961.00           2300        2280.00      9937.97
  293.99        2961.25           2303        2882.00     12564.22
  294.02        2961.50           2307        8158.00     35601.04
  294.05        2961.75           2310       18400.00     80424.50
  294.08        2962.00           2314       39744.00    174277.20
  294.11        2962.25           2317       56739.00    249438.70
  294.14        2962.50           2321       80435.00    354884.10
  294.17        2962.75           2324       97740.00    432373.40
  294.20        2963.00           2328      120435.00    534625.90
  294.23        2963.25           2331      137773.00    613228.80
  294.26        2963.50           2335      164062.00    733227.60
  294.29        2963.75           2339      191786.00    860860.40
  294.32        2964.00           2342      211143.00    950645.30
  294.35        2964.25           2346      235634.00   1065048.00
  294.38        2964.50           2349      253696.00   1150004.00
  294.41        2964.75           2353      278372.00   1266886.00
  294.45        2965.00           2356      298427.00   1362584.00
  294.48        2965.25           2360      321118.00   1471635.00
  294.51        2965.50           2363      337152.00   1549197.00
  294.54        2965.75           2367      359745.00   1659205.00
  294.57        2966.00           2370      377927.00   1748355.00
  294.60        2966.25           2374      399944.00   1857061.00
  294.63        2966.50           2378      415775.00   1935740.00
  294.66        2966.75           2381      420495.00   1959283.00
  294.69        2967.00           2385      422062.00   1967108.00
  294.72        2967.25           2388      421852.00   1966059.00
  294.75        2967.50           2392      421858.00   1966089.00
  294.78        2967.75           2395      421015.00   1961879.00
  294.81        2968.00           2399      414757.00   1930668.00
  294.84        2968.25           2402      402856.00   1871501.00
  294.87        2968.50           2406      382341.00   1770082.00
  294.90        2968.75           2409      365453.00   1687132.00
  294.93        2969.00           2413      341268.00   1569175.00
  294.96        2969.25           2417      319148.00   1462134.00
  295.00        2969.50           2420      303006.00   1384523.00
  295.03        2969.75           2424      280177.00   1275473.00
  295.06        2970.00           2427      260195.00   1180696.00
  295.09        2970.25           2431      231406.00   1045233.00
  295.12        2970.50           2434      211878.00    954065.40
  295.15        2970.75           2438      185822.00    833309.00
  295.18        2971.00           2441      166571.00    744732.20
  295.21        2971.25           2445      142858.00    636362.60
  295.24        2971.50           2449      115993.00    514555.90
  295.27        2971.75           2452       96968.00    428907.70
  295.30        2972.00           2456       73831.00    325420.30
  295.33        2972.25           2459       55709.00    244872.50
  295.36        2972.50           2463       30883.00    135241.20
  295.39        2972.75           2466       15933.00     69615.32
  295.42        2973.00           2470        5459.00     23811.77
  295.45        2973.25           2473        2973.00     12961.25
  295.48        2973.50           2477        2288.00      9972.87
  295.52        2973.75           2481        2093.00      9122.27
  295.55        2974.00           2484        2134.00      9301.11
  295.58        2974.25           2488        2037.00      8878.01
  295.61        2974.50           2491        2015.00      8782.05
  295.64        2974.75           2495        1956.00      8524.70
  295.67        2975.00           2498        1938.00      8446.19
  295.71        2975.25           2502        1928.00      8402.58
  295.74        2975.50           2505        1903.00      8293.53
  295.77        2975.75           2509        1869.00      8145.24
  295.80        2976.00           2512        1824.00      7948.97
  295.83        2976.25           2516        1864.00      8123.43
  295.86        2976.50           2520        1739.00      7578.24
  295.89        2976.75           2523        1814.00      7905.35
  295.92        2977.00           2527        1798.00      7835.57
  295.95        2977.25           2530        1761.00      7674.19
  295.98        2977.50           2534        1746.00      7608.77
  296.01        2977.75           2537        1755.00      7648.02
  296.04        2978.00           2541        1736.00      7565.15
  296.07        2978.25           2544        1698.00      7399.42
  296.10        2978.50           2548        1682.00      7329.64
  296.13        2978.75           2552        1710.00      7451.76
  296.16        2979.00           2555        1716.00      7477.93
  296.19        2979.25           2559        1668.00      7268.58
  296.23        2979.50           2562        1656.00      7216.24
  296.26        2979.75           2566        1595.00      6950.20
  296.29        2980.00           2569        1633.00      7115.93
  296.32        2980.25           2573        1594.00      6945.84
  296.35        2980.50           2577        1606.00      6998.18
  296.38        2980.75           2580        1623.00      7072.32
  296.41        2981.00           2584        1597.00      6958.93
  296.44        2981.25           2587        1575.00      6862.98
  296.47        2981.50           2591        1554.00      6771.39
  296.50        2981.75           2594        1562.00      6806.28
  296.53        2982.00           2598        1547.00      6740.87
  296.56        2982.25           2601        1577.00      6871.70
  296.59        2982.50           2605        1574.00      6858.62
  296.62        2982.75           2609        1527.00      6653.64
  296.65        2983.00           2612        1555.00      6775.76
  296.68        2983.25           2616        1512.00      6588.22
  296.71        2983.50           2619        1542.00      6719.06
  296.75        2983.75           2623        1488.00      6483.56
  296.78        2984.00           2626        1529.00      6662.36
HS scan finished at 04:57:00
end
************************************************************
  HS Scan of (1) Internal mercury lamp
************************************************************
Integration time is 0.2294 seconds per sample
dh060219Reading 51.44 .94 3.11pr1000
************************************************************
Dead Time -------------------------  3.4E-08 
Number of Cycles Used -------------  4 
Starting Wavelength (Angstroms) ---  2950 
Final Wavelength (Angstoms) -------  2984 
Wavelength Increment (Angstroms) --  .25 
Filter Wheel #1 Position ---------- (1) Ground quartz diffuser (ND=2.32)
Filter Wheel #2 Position ---------- (1) Neutral Density 0.494



************************************************************
HS scan start time = 18:07:21
Dark Count =  1 


Time (GMT)  Wavelength (Ang)  Step Number  Raw Counts  Counts/Second

 1088.24        2950.00           2144        1195.00      5205.80
 1088.44        2950.25           2147        1226.00      5340.99
 1088.47        2950.50           2151        1218.00      5306.10
 1088.50        2950.75           2155        1222.00      5323.54
 1088.53        2951.00           2158        1229.00      5354.07
 1088.56        2951.25           2162        1221.00      5319.18
 1088.59        2951.50           2165        1263.00      5502.34
 1088.62        2951.75           2169        1193.00      5197.08
 1088.65        2952.00           2172        1291.00      5624.44
 1088.68        2952.25           2176        1222.00      5323.54
 1088.71        2952.50           2179        1256.00      5471.81
 1088.74        2952.75           2183        1246.00      5428.20
 1088.77        2953.00           2186        1219.00      5310.46
 1088.80        2953.25           2190        1214.00      5288.66
 1088.83        2953.50           2193        1277.00      5563.39
 1088.86        2953.75           2197        1287.00      5607.00
 1088.90        2954.00           2200        1288.00      5611.36
 1088.93        2954.25           2204        1264.00      5506.70
 1088.96        2954.50           2208        1311.00      5711.66
 1088.99        2954.75           2211        1296.00      5646.25
 1089.02        2955.00           2215        1287.00      5607.00
 1089.05        2955.25           2218        1298.00      5654.97
 1089.08        2955.50           2222        1292.00      5628.80
 1089.11        2955.75           2225        1303.00      5676.77
 1089.14        2956.00           2229        1310.00      5707.30
 1089.17        2956.25           2232        1337.00      5825.04
 1089.20        2956.50           2236        1377.00      5999.48
 1089.23        2956.75           2239        1352.00      5890.46
 1089.26        2957.00           2243        1348.00      5873.01
 1089.29        2957.25           2246        1351.00      5886.10
 1089.32        2957.50           2250        1399.00      6095.42
 1089.35        2957.75           2254        1402.00      6108.50
 1089.38        2958.00           2257        1371.00      5973.31
 1089.42        2958.25           2261        1473.00      6418.14
 1089.45        2958.50           2264        1427.00      6217.53
 1089.48        2958.75           2268        1438.00      6265.50
 1089.51        2959.00           2271        1473.00      6418.14
 1089.54        2959.25           2275        1520.00      6623.11
 1089.57        2959.50           2278        1483.00      6461.75
 1089.60        2959.75           2282        1524.00      6640.56
 1089.63        2960.00           2285        1549.00      6749.59
 1089.66        2960.25           2289        1525.00      6644.92
 1089.69        2960.50           2293        1598.00      6963.29
 1089.72        2960.75           2296        1617.00      7046.15
 1089.75        2961.00           2300        1701.00      7412.50
 1089.78        2961.25           2303        1860.00      8105.98
 1089.81        2961.50           2307        4609.00     20100.92
 1089.84        2961.75           2310       11430.00     49905.89
 1089.87        2962.00           2314       25651.00    112241.00
 1089.90        2962.25           2317       38953.00    170788.40
 1089.94        2962.50           2321       58392.00    256769.90
 1089.97        2962.75           2324       73906.00    325754.60
 1090.00        2963.00           2328       93489.00    413299.90
 1090.03        2963.25           2331      107039.00    474183.50
 1090.06        2963.50           2335      126067.00    560112.50
 1090.09        2963.75           2339      148559.00    662342.80
 1090.12        2964.00           2342      164478.00    735134.50
 1090.15        2964.25           2346      185487.00    831763.00
 1090.18        2964.50           2349      200796.00    902582.80
 1090.21        2964.75           2353      220861.00    995931.80
 1090.24        2965.00           2356      236110.00   1067281.00
 1090.27        2965.25           2360      255086.00   1156563.00
 1090.30        2965.50           2363      268559.00   1220291.00
 1090.33        2965.75           2367      285780.00   1302161.00
 1090.36        2966.00           2370      298498.00   1362924.00
 1090.39        2966.25           2374      316258.00   1448208.00
 1090.42        2966.50           2378      331292.00   1520801.00
 1090.46        2966.75           2381      335581.00   1541578.00
 1090.49        2967.00           2385      336691.00   1546961.00
 1090.52        2967.25           2388      338307.00   1554800.00
 1090.55        2967.50           2392      337100.00   1548944.00
 1090.58        2967.75           2395      337309.00   1549958.00
 1090.61        2968.00           2399      330292.00   1515961.00
 1090.64        2968.25           2402      323059.00   1481002.00
 1090.67        2968.50           2406      308429.00   1410550.00
 1090.70        2968.75           2409      295603.00   1349070.00
 1090.73        2969.00           2413      276463.00   1257810.00
 1090.76        2969.25           2417      257515.00   1168032.00
 1090.79        2969.50           2420      243512.00   1102041.00
 1090.82        2969.75           2424      223555.00   1008511.00
 1090.85        2970.00           2427      208845.00    939957.00
 1090.88        2970.25           2431      189051.00    848219.20
 1090.91        2970.50           2434      174067.00    779158.10
 1090.94        2970.75           2438      155865.00    695705.10
 1090.97        2971.00           2441      141837.00    631714.70
 1091.01        2971.25           2445      121443.00    539184.10
 1091.04        2971.50           2449       99741.00    441360.20
 1091.07        2971.75           2452       84053.00    371051.00
 1091.10        2972.00           2456       63384.00    278931.90
 1091.13        2972.25           2459       49818.00    218783.60
 1091.16        2972.50           2463       32144.00    140790.00
 1091.19        2972.75           2466       19623.00     85786.03
 1091.22        2973.00           2470        6740.00     29406.02
 1091.25        2973.25           2473        2981.00     12996.15
 1091.28        2973.50           2477        1865.00      8127.79
 1091.31        2973.75           2481        1747.00      7613.13
 1091.35        2974.00           2484        1668.00      7268.58
 1091.38        2974.25           2488        1587.00      6915.31
 1091.41        2974.50           2491        1592.00      6937.12
 1091.44        2974.75           2495        1564.00      6815.01
 1091.47        2975.00           2498        1478.00      6439.95
 1091.50        2975.25           2502        1513.00      6592.58
 1091.53        2975.50           2505        1472.00      6413.78
 1091.56        2975.75           2509        1474.00      6422.50
 1091.59        2976.00           2512        1454.00      6335.28
 1091.62        2976.25           2516        1421.00      6191.36
 1091.65        2976.50           2520        1411.00      6147.75
 1091.68        2976.75           2523        1382.00      6021.29
 1091.72        2977.00           2527        1397.00      6086.70
 1091.75        2977.25           2530        1322.00      5759.63
 1091.78        2977.50           2534        1356.00      5907.90
 1091.81        2977.75           2537        1305.00      5685.49
 1091.84        2978.00           2541        1328.00      5785.79
 1091.87        2978.25           2544        1294.00      5637.52
 1091.90        2978.50           2548        1305.00      5685.49
 1091.93        2978.75           2552        1276.00      5559.03
 1091.96        2979.00           2555        1279.00      5572.11
 1091.99        2979.25           2559        1328.00      5785.79
 1092.02        2979.50           2562        1286.00      5602.64
 1092.05        2979.75           2566        1258.00      5480.53
 1092.08        2980.00           2569        1277.00      5563.39
 1092.11        2980.25           2573        1229.00      5354.07
 1092.14        2980.50           2577        1238.00      5393.32
 1092.17        2980.75           2580        1242.00      5410.76
 1092.20        2981.00           2584        1189.00      5179.64
 1092.24        2981.25           2587        1227.00      5345.35
 1092.27        2981.50           2591        1180.00      5140.39
 1092.30        2981.75           2594        1208.00      5262.49
 1092.33        2982.00           2598        1177.00      5127.31
 1092.36        2982.25           2601        1164.00      5070.62
 1092.39        2982.50           2605        1214.00      5288.66
 1092.42        2982.75           2609        1208.00      5262.49
 1092.45        2983.00           2612        1186.00      5166.56
 1092.48        2983.25           2616        1132.00      4931.08
 1092.51        2983.50           2619        1142.00      4974.69
 1092.54        2983.75           2623        1190.00      5184.00
 1092.57        2984.00           2626        1127.00      4909.28
HS scan finished at 18:12:48
end
