************************************************************
  HS Scan of 
************************************************************
Integration time is 0.2294 seconds per sample
dh310117Reading 51.44 .94 2.76pr1000
************************************************************
Dead Time -------------------------  3.4E-08 
Number of Cycles Used -------------  4 
Starting Wavelength (Angstroms) ---  2950 
Final Wavelength (Angstoms) -------  2984 
Wavelength Increment (Angstroms) --  .25 
Filter Wheel #1 Position ---------- (1) Ground quartz diffuser (ND=2.32)
Filter Wheel #2 Position ---------- (1) Neutral Density 0.494



************************************************************
HS scan start time = 04:59:07
Dark Count =  .5 


Time (GMT)  Wavelength (Ang)  Step Number  Raw Counts  Counts/Second

  300.01        2950.00           2144         757.00      3298.10
  300.21        2950.25           2147         777.00      3385.31
  300.24        2950.50           2151         762.00      3319.90
  300.27        2950.75           2155         745.00      3245.78
  300.30        2951.00           2158         767.00      3341.70
  300.33        2951.25           2162         769.00      3350.43
  300.36        2951.50           2165         771.00      3359.15
  300.39        2951.75           2169         791.00      3446.35
  300.42        2952.00           2172         785.00      3420.19
  300.45        2952.25           2176         774.00      3372.23
  300.48        2952.50           2179         781.00      3402.75
  300.51        2952.75           2183         783.00      3411.47
  300.54        2953.00           2186         787.00      3428.91
  300.57        2953.25           2190         754.00      3285.02
  300.60        2953.50           2193         789.00      3437.63
  300.64        2953.75           2197         765.00      3332.98
  300.67        2954.00           2200         792.00      3450.71
  300.70        2954.25           2204         803.00      3498.67
  300.73        2954.50           2208         812.00      3537.91
  300.76        2954.75           2211         802.00      3494.31
  300.79        2955.00           2215         812.00      3537.91
  300.83        2955.25           2218         813.00      3542.28
  300.86        2955.50           2222         826.00      3598.96
  300.89        2955.75           2225         836.00      3642.56
  300.92        2956.00           2229         808.00      3520.47
  300.95        2956.25           2232         789.00      3437.63
  300.98        2956.50           2236         843.00      3673.08
  301.01        2956.75           2239         850.00      3703.60
  301.04        2957.00           2243         843.00      3673.08
  301.07        2957.25           2246         845.00      3681.80
  301.10        2957.50           2250         862.00      3755.93
  301.13        2957.75           2254         849.00      3699.24
  301.16        2958.00           2257         874.00      3808.25
  301.19        2958.25           2261         857.00      3734.13
  301.22        2958.50           2264         865.00      3769.01
  301.25        2958.75           2268         862.00      3755.93
  301.28        2959.00           2271         903.00      3934.70
  301.31        2959.25           2275         932.00      4061.15
  301.35        2959.50           2278         909.00      3960.86
  301.38        2959.75           2282         945.00      4117.84
  301.41        2960.00           2285         944.00      4113.48
  301.44        2960.25           2289         962.00      4191.97
  301.47        2960.50           2293         962.00      4191.97
  301.50        2960.75           2296         968.00      4218.13
  301.53        2961.00           2300        1056.00      4601.85
  301.56        2961.25           2303        1123.00      4894.01
  301.59        2961.50           2307        2665.00     11619.67
  301.62        2961.75           2310        7301.00     31858.81
  301.65        2962.00           2314       16628.00     72661.85
  301.68        2962.25           2317       24389.00    106700.70
  301.71        2962.50           2321       34774.00    152371.90
  301.74        2962.75           2324       42352.00    185788.50
  301.77        2963.00           2328       52798.00    231977.20
  301.80        2963.25           2331       61924.00    272449.00
  301.83        2963.50           2335       73471.00    323818.10
  301.87        2963.75           2339       84529.00    373181.50
  301.90        2964.00           2342       92487.00    408810.00
  301.93        2964.25           2346      104417.00    462384.60
  301.96        2964.50           2349      112530.00    498930.70
  301.99        2964.75           2353      123177.00    547031.00
  302.02        2965.00           2356      131361.00    584112.40
  302.05        2965.25           2360      142574.00    635071.90
  302.08        2965.50           2363      150593.00    671625.50
  302.11        2965.75           2367      160238.00    715713.10
  302.14        2966.00           2370      167275.00    747964.20
  302.17        2966.25           2374      176645.00    791019.00
  302.20        2966.50           2378      183955.00    824697.10
  302.23        2966.75           2381      186132.00    834742.10
  302.26        2967.00           2385      187422.00    840697.50
  302.29        2967.25           2388      187544.00    841260.90
  302.32        2967.50           2392      187326.00    840254.20
  302.35        2967.75           2395      186913.00    838347.40
  302.39        2968.00           2399      184354.00    826537.80
  302.42        2968.25           2402      180093.00    806894.60
  302.45        2968.50           2406      170850.00    764376.10
  302.48        2968.75           2409      162644.00    726732.00
  302.51        2969.00           2413      152378.00    679774.70
  302.54        2969.25           2417      142273.00    633701.60
  302.58        2969.50           2420      134637.00    598982.30
  302.61        2969.75           2424      124269.00    551973.30
  302.64        2970.00           2427      116374.00    516278.60
  302.67        2970.25           2431      105116.00    465529.70
  302.70        2970.50           2434       96153.00    425252.10
  302.73        2970.75           2438       84613.00    373557.20
  302.76        2971.00           2441       76714.00    338277.80
  302.79        2971.25           2445       65856.00    289921.00
  302.82        2971.50           2449       55035.00    241887.50
  302.85        2971.75           2452       46661.00    204823.80
  302.88        2972.00           2456       35825.00    157002.00
  302.91        2972.25           2459       27437.00    120090.50
  302.94        2972.50           2463       16729.00     73104.32
  302.97        2972.75           2466       10156.00     44336.62
  303.00        2973.00           2470        3559.00     15520.40
  303.03        2973.25           2473        1553.00      6769.21
  303.07        2973.50           2477        1095.00      4771.92
  303.10        2973.75           2481        1034.00      4505.92
  303.13        2974.00           2484        1018.00      4436.15
  303.16        2974.25           2488         981.00      4274.82
  303.19        2974.50           2491         925.00      4030.63
  303.22        2974.75           2495         966.00      4209.41
  303.25        2975.00           2498         959.00      4178.89
  303.28        2975.25           2502         887.00      3864.94
  303.31        2975.50           2505         920.00      4008.83
  303.34        2975.75           2509         884.00      3851.86
  303.37        2976.00           2512         911.00      3969.59
  303.40        2976.25           2516         905.00      3943.42
  303.43        2976.50           2520         868.00      3782.09
  303.46        2976.75           2523         890.00      3878.02
  303.49        2977.00           2527         835.00      3638.20
  303.52        2977.25           2530         832.00      3625.12
  303.55        2977.50           2534         847.00      3690.52
  303.59        2977.75           2537         882.00      3843.14
  303.62        2978.00           2541         817.00      3559.72
  303.65        2978.25           2544         799.00      3481.23
  303.68        2978.50           2548         835.00      3638.20
  303.71        2978.75           2552         814.00      3546.64
  303.74        2979.00           2555         785.00      3420.19
  303.77        2979.25           2559         808.00      3520.47
  303.80        2979.50           2562         805.00      3507.39
  303.83        2979.75           2566         831.00      3620.76
  303.86        2980.00           2569         802.00      3494.31
  303.89        2980.25           2573         810.00      3529.19
  303.92        2980.50           2577         786.00      3424.55
  303.95        2980.75           2580         779.00      3394.03
  303.98        2981.00           2584         769.00      3350.43
  304.01        2981.25           2587         756.00      3293.74
  304.04        2981.50           2591         765.00      3332.98
  304.07        2981.75           2594         748.00      3258.86
  304.11        2982.00           2598         762.00      3319.90
  304.14        2982.25           2601         758.00      3302.46
  304.17        2982.50           2605         744.00      3241.42
  304.20        2982.75           2609         761.00      3315.54
  304.23        2983.00           2612         736.00      3206.54
  304.26        2983.25           2616         747.00      3254.50
  304.29        2983.50           2619         732.00      3189.10
  304.32        2983.75           2623         748.00      3258.86
  304.35        2984.00           2626         725.00      3158.58
HS scan finished at 05:04:34
end
************************************************************
  HS Scan of 
************************************************************
Integration time is 0.2294 seconds per sample
dh310117Reading 51.44 .94 2.98pr1000
************************************************************
Dead Time -------------------------  3.4E-08 
Number of Cycles Used -------------  4 
Starting Wavelength (Angstroms) ---  2950 
Final Wavelength (Angstoms) -------  2984 
Wavelength Increment (Angstroms) --  .25 
Filter Wheel #1 Position ---------- (1) Ground quartz diffuser (ND=2.32)
Filter Wheel #2 Position ---------- (1) Neutral Density 0.494



************************************************************
HS scan start time = 17:37:20
Dark Count =  .7 


Time (GMT)  Wavelength (Ang)  Step Number  Raw Counts  Counts/Second

 1058.22        2950.00           2144         659.00      2869.94
 1058.42        2950.25           2147         672.00      2926.62
 1058.45        2950.50           2151         655.00      2852.50
 1058.48        2950.75           2155         673.00      2930.98
 1058.51        2951.00           2158         666.00      2900.46
 1058.54        2951.25           2162         698.00      3039.98
 1058.57        2951.50           2165         679.00      2957.14
 1058.60        2951.75           2169         672.00      2926.62
 1058.63        2952.00           2172         683.00      2974.58
 1058.66        2952.25           2176         668.00      2909.18
 1058.69        2952.50           2179         684.00      2978.94
 1058.72        2952.75           2183         713.00      3105.38
 1058.75        2953.00           2186         678.00      2952.78
 1058.78        2953.25           2190         694.00      3022.54
 1058.82        2953.50           2193         720.00      3135.91
 1058.85        2953.75           2197         695.00      3026.90
 1058.88        2954.00           2200         707.00      3079.22
 1058.91        2954.25           2204         719.00      3131.55
 1058.94        2954.50           2208         702.00      3057.42
 1058.97        2954.75           2211         703.00      3061.78
 1059.00        2955.00           2215         729.00      3175.15
 1059.03        2955.25           2218         709.00      3087.94
 1059.06        2955.50           2222         713.00      3105.38
 1059.09        2955.75           2225         688.00      2996.38
 1059.12        2956.00           2229         715.00      3114.10
 1059.15        2956.25           2232         711.00      3096.66
 1059.18        2956.50           2236         695.00      3026.90
 1059.21        2956.75           2239         742.00      3231.83
 1059.24        2957.00           2243         755.00      3288.51
 1059.27        2957.25           2246         723.00      3148.99
 1059.30        2957.50           2250         753.00      3279.79
 1059.34        2957.75           2254         714.00      3109.74
 1059.37        2958.00           2257         744.00      3240.55
 1059.40        2958.25           2261         755.00      3288.51
 1059.43        2958.50           2264         744.00      3240.55
 1059.46        2958.75           2268         757.00      3297.23
 1059.49        2959.00           2271         771.00      3358.27
 1059.52        2959.25           2275         806.00      3510.88
 1059.55        2959.50           2278         791.00      3445.48
 1059.58        2959.75           2282         788.00      3432.40
 1059.61        2960.00           2285         797.00      3471.64
 1059.64        2960.25           2289         804.00      3502.16
 1059.67        2960.50           2293         817.00      3558.84
 1059.70        2960.75           2296         855.00      3724.53
 1059.73        2961.00           2300         937.00      4082.08
 1059.76        2961.25           2303        1038.00      4522.49
 1059.79        2961.50           2307        2988.00     13028.00
 1059.82        2961.75           2310        7071.00     30853.19
 1059.86        2962.00           2314       14375.00     62794.35
 1059.89        2962.25           2317       20200.00     88317.55
 1059.92        2962.50           2321       28121.00    123096.10
 1059.95        2962.75           2324       34732.00    152186.10
 1059.98        2963.00           2328       43736.00    191898.80
 1060.01        2963.25           2331       50676.00    222581.80
 1060.04        2963.50           2335       60474.00    266010.20
 1060.07        2963.75           2339       69038.00    304074.80
 1060.10        2964.00           2342       76000.00    335092.10
 1060.13        2964.25           2346       84730.00    374079.50
 1060.16        2964.50           2349       90944.00    401894.10
 1060.19        2964.75           2353      100152.00    443208.10
 1060.22        2965.00           2356      107293.00    475328.50
 1060.25        2965.25           2360      115595.00    512760.40
 1060.28        2965.50           2363      121886.00    541189.20
 1060.31        2965.75           2367      130132.00    578536.90
 1060.34        2966.00           2370      135965.00    605013.60
 1060.38        2966.25           2374      142828.00    636227.40
 1060.41        2966.50           2378      148556.00    662330.50
 1060.44        2966.75           2381      150592.00    671620.00
 1060.47        2967.00           2385      150692.00    672076.50
 1060.50        2967.25           2388      150942.00    673217.60
 1060.53        2967.50           2392      151112.00    673993.50
 1060.56        2967.75           2395      150762.00    672396.00
 1060.59        2968.00           2399      147357.00    656862.60
 1060.62        2968.25           2402      142907.00    636587.10
 1060.65        2968.50           2406      135267.00    601842.70
 1060.68        2968.75           2409      129476.00    575562.20
 1060.71        2969.00           2413      121618.00    539977.00
 1060.74        2969.25           2417      112941.00    500783.70
 1060.77        2969.50           2420      107181.00    474824.20
 1060.80        2969.75           2424       99713.00    441235.70
 1060.83        2970.00           2427       92376.00    408311.50
 1060.86        2970.25           2431       82031.00    362014.90
 1060.90        2970.50           2434       75177.00    331422.00
 1060.93        2970.75           2438       66755.00    293917.70
 1060.96        2971.00           2441       60017.00    263981.70
 1060.99        2971.25           2445       52030.00    228575.60
 1061.02        2971.50           2449       43322.00    190070.50
 1061.05        2971.75           2452       36894.00    161711.90
 1061.08        2972.00           2456       27998.00    122555.40
 1061.11        2972.25           2459       21792.00     95300.89
 1061.14        2972.50           2463       13760.00     60102.20
 1061.17        2972.75           2466        7857.00     34287.12
 1061.20        2973.00           2470        2720.00     11858.75
 1061.23        2973.25           2473        1353.00      5896.13
 1061.26        2973.50           2477         931.00      4055.92
 1061.29        2973.75           2481         882.00      3842.26
 1061.32        2974.00           2484         881.00      3837.90
 1061.35        2974.25           2488         818.00      3563.20
 1061.38        2974.50           2491         818.00      3563.20
 1061.41        2974.75           2495         798.00      3476.00
 1061.45        2975.00           2498         783.00      3410.60
 1061.48        2975.25           2502         796.00      3467.28
 1061.51        2975.50           2505         788.00      3432.40
 1061.54        2975.75           2509         798.00      3476.00
 1061.57        2976.00           2512         781.00      3401.88
 1061.60        2976.25           2516         772.00      3362.63
 1061.63        2976.50           2520         765.00      3332.11
 1061.66        2976.75           2523         747.00      3253.63
 1061.69        2977.00           2527         726.00      3162.07
 1061.72        2977.25           2530         715.00      3114.10
 1061.75        2977.50           2534         726.00      3162.07
 1061.78        2977.75           2537         732.00      3188.23
 1061.81        2978.00           2541         726.00      3162.07
 1061.84        2978.25           2544         722.00      3144.63
 1061.87        2978.50           2548         707.00      3079.22
 1061.90        2978.75           2552         688.00      2996.38
 1061.93        2979.00           2555         704.00      3066.14
 1061.97        2979.25           2559         688.00      2996.38
 1062.00        2979.50           2562         695.00      3026.90
 1062.03        2979.75           2566         673.00      2930.98
 1062.06        2980.00           2569         652.00      2839.42
 1062.09        2980.25           2573         673.00      2930.98
 1062.12        2980.50           2577         678.00      2952.78
 1062.15        2980.75           2580         664.00      2891.74
 1062.18        2981.00           2584         675.00      2939.70
 1062.21        2981.25           2587         664.00      2891.74
 1062.24        2981.50           2591         653.00      2843.78
 1062.27        2981.75           2594         645.00      2808.90
 1062.30        2982.00           2598         682.00      2970.22
 1062.33        2982.25           2601         651.00      2835.06
 1062.36        2982.50           2605         641.00      2791.46
 1062.39        2982.75           2609         628.00      2734.78
 1062.42        2983.00           2612         658.00      2865.58
 1062.45        2983.25           2616         637.00      2774.02
 1062.49        2983.50           2619         634.00      2760.94
 1062.52        2983.75           2623         635.00      2765.30
 1062.55        2984.00           2626         607.00      2643.22
HS scan finished at 17:42:46
end
