************************************************************
  HS Scan of 
************************************************************
Integration time is 0.2294 seconds per sample
dh050217Reading 51.44 .94 2.47pr1000
************************************************************
Dead Time -------------------------  3.4E-08 
Number of Cycles Used -------------  4 
Starting Wavelength (Angstroms) ---  2950 
Final Wavelength (Angstoms) -------  2984 
Wavelength Increment (Angstroms) --  .25 
Filter Wheel #1 Position ---------- (1) Ground quartz diffuser (ND=2.32)
Filter Wheel #2 Position ---------- (1) Neutral Density 0.494



************************************************************
HS scan start time = 04:55:18
Dark Count =  .3 


Time (GMT)  Wavelength (Ang)  Step Number  Raw Counts  Counts/Second

  296.19        2950.00           2144         800.00      3486.46
  296.39        2950.25           2147         827.00      3604.19
  296.42        2950.50           2151         803.00      3499.54
  296.45        2950.75           2155         837.00      3647.79
  296.48        2951.00           2158         816.00      3556.23
  296.51        2951.25           2162         821.00      3578.03
  296.54        2951.50           2165         806.00      3512.63
  296.57        2951.75           2169         803.00      3499.54
  296.60        2952.00           2172         844.00      3678.32
  296.63        2952.25           2176         794.00      3460.30
  296.66        2952.50           2179         826.00      3599.83
  296.69        2952.75           2183         840.00      3660.87
  296.72        2953.00           2186         841.00      3665.23
  296.75        2953.25           2190         798.00      3477.74
  296.78        2953.50           2193         827.00      3604.19
  296.81        2953.75           2197         839.00      3656.51
  296.84        2954.00           2200         866.00      3774.24
  296.87        2954.25           2204         836.00      3643.43
  296.91        2954.50           2208         817.00      3560.59
  296.94        2954.75           2211         830.00      3617.27
  296.97        2955.00           2215         842.00      3669.60
  297.00        2955.25           2218         848.00      3695.76
  297.03        2955.50           2222         861.00      3752.44
  297.06        2955.75           2225         918.00      4000.98
  297.09        2956.00           2229         874.00      3809.12
  297.12        2956.25           2232         871.00      3796.04
  297.15        2956.50           2236         875.00      3813.49
  297.18        2956.75           2239         864.00      3765.52
  297.21        2957.00           2243         921.00      4014.06
  297.24        2957.25           2246         892.00      3887.61
  297.27        2957.50           2250         890.00      3878.89
  297.30        2957.75           2254         895.00      3900.69
  297.33        2958.00           2257         914.00      3983.54
  297.36        2958.25           2261         909.00      3961.74
  297.39        2958.50           2264         895.00      3900.69
  297.43        2958.75           2268         912.00      3974.82
  297.46        2959.00           2271         917.00      3996.62
  297.49        2959.25           2275         907.00      3953.02
  297.52        2959.50           2278         927.00      4040.22
  297.55        2959.75           2282         963.00      4197.20
  297.58        2960.00           2285         991.00      4319.29
  297.61        2960.25           2289         975.00      4249.52
  297.64        2960.50           2293         995.00      4336.73
  297.67        2960.75           2296        1034.00      4506.79
  297.70        2961.00           2300        1053.00      4589.64
  297.73        2961.25           2303        1175.00      5121.64
  297.76        2961.50           2307        3095.00     13496.60
  297.79        2961.75           2310        7504.00     32746.56
  297.82        2962.00           2314       16856.00     73661.59
  297.85        2962.25           2317       24214.00    105933.20
  297.88        2962.50           2321       32804.00    143698.20
  297.91        2962.75           2324       39070.00    171307.40
  297.95        2963.00           2328       48708.00    213876.10
  297.98        2963.25           2331       57133.00    251188.90
  298.01        2963.50           2335       68365.00    301081.70
  298.04        2963.75           2339       77746.00    342883.00
  298.07        2964.00           2342       85768.00    378723.80
  298.10        2964.25           2346       96099.00    425010.70
  298.13        2964.50           2349      103327.00    457482.40
  298.16        2964.75           2353      113051.00    501281.70
  298.19        2965.00           2356      120742.00    536017.20
  298.22        2965.25           2360      130578.00    580561.50
  298.25        2965.50           2363      137472.00    611863.70
  298.28        2965.75           2367      146976.00    655127.40
  298.31        2966.00           2370      153979.00    687088.80
  298.34        2966.25           2374      162409.00    725656.30
  298.37        2966.50           2378      167454.00    748786.40
  298.40        2966.75           2381      168757.00    754766.30
  298.43        2967.00           2385      169257.00    757061.80
  298.47        2967.25           2388      168985.00    755813.00
  298.50        2967.50           2392      169295.00    757236.10
  298.53        2967.75           2395      169173.00    756676.10
  298.56        2968.00           2399      165802.00    741208.30
  298.59        2968.25           2402      160752.00    718067.30
  298.62        2968.50           2406      152089.00    678455.90
  298.65        2968.75           2409      145219.00    647119.50
  298.68        2969.00           2413      136163.00    605915.00
  298.71        2969.25           2417      127579.00    566965.40
  298.74        2969.50           2420      120306.00    534045.80
  298.77        2969.75           2424      111091.00    492442.70
  298.80        2970.00           2427      103206.00    456938.20
  298.83        2970.25           2431       92891.00    410621.90
  298.86        2970.50           2434       84787.00    374336.20
  298.89        2970.75           2438       74696.00    329279.30
  298.92        2971.00           2441       67332.00    296486.00
  298.95        2971.25           2445       57519.00    252900.70
  298.99        2971.50           2449       48238.00    211797.40
  299.02        2971.75           2452       40788.00    178886.40
  299.05        2972.00           2456       31607.00    138429.90
  299.08        2972.25           2459       24751.00    108291.20
  299.11        2972.50           2463       15494.00     67695.75
  299.14        2972.75           2466        8590.00     37491.97
  299.17        2973.00           2470        2582.00     11258.45
  299.20        2973.25           2473        1383.00      6028.70
  299.23        2973.50           2477        1066.00      4646.33
  299.26        2973.75           2481        1030.00      4489.35
  299.29        2974.00           2484        1024.00      4463.19
  299.32        2974.25           2488         968.00      4219.00
  299.35        2974.50           2491         969.00      4223.36
  299.38        2974.75           2495         959.00      4179.76
  299.41        2975.00           2498         914.00      3983.54
  299.44        2975.25           2502         931.00      4057.67
  299.47        2975.50           2505         965.00      4205.92
  299.51        2975.75           2509         906.00      3948.66
  299.54        2976.00           2512         907.00      3953.02
  299.57        2976.25           2516         910.00      3966.10
  299.60        2976.50           2520         907.00      3953.02
  299.63        2976.75           2523         858.00      3739.36
  299.66        2977.00           2527         890.00      3878.89
  299.69        2977.25           2530         856.00      3730.64
  299.72        2977.50           2534         893.00      3891.97
  299.75        2977.75           2537         823.00      3586.75
  299.78        2978.00           2541         841.00      3665.23
  299.81        2978.25           2544         836.00      3643.43
  299.84        2978.50           2548         845.00      3682.68
  299.87        2978.75           2552         831.00      3621.63
  299.90        2979.00           2555         850.00      3704.48
  299.93        2979.25           2559         817.00      3560.59
  299.96        2979.50           2562         831.00      3621.63
  299.99        2979.75           2566         783.00      3412.34
  300.03        2980.00           2569         786.00      3425.42
  300.06        2980.25           2573         812.00      3538.79
  300.09        2980.50           2577         823.00      3586.75
  300.12        2980.75           2580         788.00      3434.14
  300.15        2981.00           2584         776.00      3381.82
  300.18        2981.25           2587         780.00      3399.26
  300.21        2981.50           2591         775.00      3377.46
  300.24        2981.75           2594         781.00      3403.62
  300.27        2982.00           2598         740.00      3224.85
  300.30        2982.25           2601         762.00      3320.78
  300.33        2982.50           2605         779.00      3394.90
  300.36        2982.75           2609         766.00      3338.22
  300.39        2983.00           2612         784.00      3416.70
  300.42        2983.25           2616         761.00      3316.42
  300.45        2983.50           2619         780.00      3399.26
  300.48        2983.75           2623         733.00      3194.33
  300.51        2984.00           2626         774.00      3373.10
HS scan finished at 05:00:44
end
************************************************************
  HS Scan of 
************************************************************
Integration time is 0.2294 seconds per sample
dh050217Reading 51.44 .94 2.74pr1000
************************************************************
Dead Time -------------------------  3.4E-08 
Number of Cycles Used -------------  4 
Starting Wavelength (Angstroms) ---  2950 
Final Wavelength (Angstoms) -------  2984 
Wavelength Increment (Angstroms) --  .25 
Filter Wheel #1 Position ---------- (1) Ground quartz diffuser (ND=2.32)
Filter Wheel #2 Position ---------- (1) Neutral Density 0.494



************************************************************
HS scan start time = 18:07:23
Dark Count =  .6 


Time (GMT)  Wavelength (Ang)  Step Number  Raw Counts  Counts/Second

 1088.28        2950.00           2144         752.00      3275.87
 1088.47        2950.25           2147         765.00      3332.55
 1088.50        2950.50           2151         769.00      3349.99
 1088.53        2950.75           2155         791.00      3445.91
 1088.56        2951.00           2158         728.00      3171.22
 1088.59        2951.25           2162         754.00      3284.59
 1088.62        2951.50           2165         755.00      3288.95
 1088.65        2951.75           2169         773.00      3367.43
 1088.69        2952.00           2172         736.00      3206.10
 1088.72        2952.25           2176         753.00      3280.23
 1088.75        2952.50           2179         754.00      3284.59
 1088.78        2952.75           2183         762.00      3319.47
 1088.81        2953.00           2186         745.00      3245.35
 1088.84        2953.25           2190         756.00      3293.31
 1088.87        2953.50           2193         798.00      3476.44
 1088.90        2953.75           2197         759.00      3306.39
 1088.93        2954.00           2200         755.00      3288.95
 1088.96        2954.25           2204         775.00      3376.15
 1088.99        2954.50           2208         770.00      3354.35
 1089.02        2954.75           2211         804.00      3502.60
 1089.05        2955.00           2215         759.00      3306.39
 1089.08        2955.25           2218         790.00      3441.55
 1089.11        2955.50           2222         785.00      3419.75
 1089.14        2955.75           2225         783.00      3411.03
 1089.17        2956.00           2229         791.00      3445.91
 1089.20        2956.25           2232         774.00      3371.79
 1089.24        2956.50           2236         798.00      3476.44
 1089.27        2956.75           2239         812.00      3537.48
 1089.30        2957.00           2243         800.00      3485.16
 1089.33        2957.25           2246         803.00      3498.24
 1089.36        2957.50           2250         809.00      3524.40
 1089.39        2957.75           2254         849.00      3698.81
 1089.42        2958.00           2257         804.00      3502.60
 1089.45        2958.25           2261         846.00      3685.73
 1089.48        2958.50           2264         830.00      3615.96
 1089.51        2958.75           2268         845.00      3681.37
 1089.54        2959.00           2271         841.00      3663.93
 1089.57        2959.25           2275         851.00      3707.53
 1089.60        2959.50           2278         874.00      3807.82
 1089.63        2959.75           2282         879.00      3829.62
 1089.66        2960.00           2285         878.00      3825.26
 1089.69        2960.25           2289         888.00      3868.86
 1089.72        2960.50           2293         913.00      3977.87
 1089.76        2960.75           2296         909.00      3960.43
 1089.79        2961.00           2300         937.00      4082.52
 1089.82        2961.25           2303         989.00      4309.26
 1089.85        2961.50           2307        1986.00      8657.30
 1089.88        2961.75           2310        5450.00     23774.22
 1089.91        2962.00           2314       12314.00     53774.78
 1089.94        2962.25           2317       18112.00     79163.97
 1089.97        2962.50           2321       26214.00    114716.00
 1090.00        2962.75           2324       32092.00    140562.90
 1090.03        2963.00           2328       41457.00    181837.40
 1090.06        2963.25           2331       48047.00    210951.40
 1090.09        2963.50           2335       56754.00    249507.00
 1090.12        2963.75           2339       65929.00    290245.10
 1090.15        2964.00           2342       73139.00    322338.10
 1090.20        2964.25           2346       81611.00    360138.80
 1090.23        2964.50           2349       87923.00    388365.60
 1090.26        2964.75           2353       97184.00    429879.10
 1090.29        2965.00           2356      103827.00    459730.00
 1090.32        2965.25           2360      112340.00    498073.30
 1090.35        2965.50           2363      118387.00    525371.00
 1090.38        2965.75           2367      126128.00    560390.50
 1090.41        2966.00           2370      131988.00    586956.80
 1090.44        2966.25           2374      139841.00    622634.40
 1090.47        2966.50           2378      146184.00    651515.90
 1090.50        2966.75           2381      148224.00    660816.80
 1090.54        2967.00           2385      149268.00    665578.90
 1090.57        2967.25           2388      149147.00    665027.00
 1090.60        2967.50           2392      149628.00    667221.40
 1090.63        2967.75           2395      149010.00    664401.80
 1090.66        2968.00           2399      147493.00    657483.20
 1090.69        2968.25           2402      143487.00    639228.70
 1090.72        2968.50           2406      136286.00    606472.50
 1090.75        2968.75           2409      130318.00    579380.90
 1090.78        2969.00           2413      122102.00    542166.80
 1090.81        2969.25           2417      113958.00    505372.40
 1090.84        2969.50           2420      108297.00    479850.70
 1090.87        2969.75           2424       99966.00    442372.80
 1090.90        2970.00           2427       93160.00    411826.50
 1090.93        2970.25           2431       83431.00    368272.10
 1090.96        2970.50           2434       76784.00    338589.50
 1090.99        2970.75           2438       67880.00    298922.40
 1091.03        2971.00           2441       61742.00    271640.20
 1091.06        2971.25           2445       53601.00    235533.40
 1091.09        2971.50           2449       44565.00    195561.00
 1091.12        2971.75           2452       38154.00    167266.80
 1091.15        2972.00           2456       29871.00    130791.30
 1091.18        2972.25           2459       23932.00    104693.70
 1091.21        2972.50           2463       15475.00     67611.22
 1091.24        2972.75           2466        9118.00     39798.37
 1091.27        2973.00           2470        3281.00     14306.87
 1091.30        2973.25           2473        1594.00      6947.59
 1091.33        2973.50           2477        1020.00      4444.44
 1091.36        2973.75           2481         922.00      4017.11
 1091.39        2974.00           2484         927.00      4038.92
 1091.42        2974.25           2488         882.00      3842.70
 1091.45        2974.50           2491         921.00      4012.75
 1091.48        2974.75           2495         866.00      3772.93
 1091.51        2975.00           2498         841.00      3663.93
 1091.54        2975.25           2502         870.00      3790.38
 1091.58        2975.50           2505         872.00      3799.10
 1091.61        2975.75           2509         837.00      3646.49
 1091.64        2976.00           2512         840.00      3659.57
 1091.67        2976.25           2516         826.00      3598.52
 1091.70        2976.50           2520         787.00      3428.47
 1091.73        2976.75           2523         804.00      3502.60
 1091.76        2977.00           2527         827.00      3602.88
 1091.79        2977.25           2530         795.00      3463.36
 1091.82        2977.50           2534         774.00      3371.79
 1091.85        2977.75           2537         811.00      3533.12
 1091.88        2978.00           2541         799.00      3480.80
 1091.91        2978.25           2544         784.00      3415.39
 1091.94        2978.50           2548         766.00      3336.91
 1091.97        2978.75           2552         765.00      3332.55
 1092.00        2979.00           2555         762.00      3319.47
 1092.03        2979.25           2559         743.00      3236.63
 1092.06        2979.50           2562         788.00      3432.83
 1092.10        2979.75           2566         727.00      3166.86
 1092.13        2980.00           2569         756.00      3293.31
 1092.16        2980.25           2573         760.00      3310.75
 1092.19        2980.50           2577         728.00      3171.22
 1092.22        2980.75           2580         714.00      3110.18
 1092.25        2981.00           2584         716.00      3118.90
 1092.28        2981.25           2587         730.00      3179.94
 1092.31        2981.50           2591         708.00      3084.02
 1092.34        2981.75           2594         715.00      3114.54
 1092.37        2982.00           2598         702.00      3057.86
 1092.40        2982.25           2601         722.00      3145.06
 1092.43        2982.50           2605         703.00      3062.22
 1092.46        2982.75           2609         702.00      3057.86
 1092.49        2983.00           2612         712.00      3101.46
 1092.52        2983.25           2616         707.00      3079.66
 1092.55        2983.50           2619         673.00      2931.42
 1092.58        2983.75           2623         708.00      3084.02
 1092.62        2984.00           2626         700.00      3049.14
HS scan finished at 18:12:50
end
