************************************************************
  HS Scan of (1) Internal mercury lamp
************************************************************
Integration time is 0.2294 seconds per sample
dh010219Reading 51.44 .94 2.35pr1000
************************************************************
Dead Time -------------------------  3.4E-08 
Number of Cycles Used -------------  4 
Starting Wavelength (Angstroms) ---  2950 
Final Wavelength (Angstoms) -------  2984 
Wavelength Increment (Angstroms) --  .25 
Filter Wheel #1 Position ---------- (1) Ground quartz diffuser (ND=2.32)
Filter Wheel #2 Position ---------- (1) Neutral Density 0.494



************************************************************
HS scan start time = 05:01:25
Dark Count =  .2 


Time (GMT)  Wavelength (Ang)  Step Number  Raw Counts  Counts/Second

  302.32        2950.00           2144        1653.00      7206.65
  302.51        2950.25           2147        1624.00      7080.17
  302.54        2950.50           2151        1657.00      7224.09
  302.57        2950.75           2155        1657.00      7224.09
  302.60        2951.00           2158        1649.00      7189.20
  302.63        2951.25           2162        1658.00      7228.46
  302.66        2951.50           2165        1649.00      7189.20
  302.69        2951.75           2169        1639.00      7145.59
  302.72        2952.00           2172        1657.00      7224.09
  302.75        2952.25           2176        1660.00      7237.18
  302.78        2952.50           2179        1656.00      7219.73
  302.81        2952.75           2183        1672.00      7289.51
  302.84        2953.00           2186        1691.00      7372.38
  302.88        2953.25           2190        1683.00      7337.49
  302.91        2953.50           2193        1676.00      7306.96
  302.94        2953.75           2197        1747.00      7616.62
  302.97        2954.00           2200        1709.00      7450.89
  303.00        2954.25           2204        1727.00      7529.39
  303.03        2954.50           2208        1711.00      7459.61
  303.06        2954.75           2211        1745.00      7607.90
  303.09        2955.00           2215        1722.00      7507.58
  303.12        2955.25           2218        1751.00      7634.07
  303.15        2955.50           2222        1718.00      7490.14
  303.18        2955.75           2225        1719.00      7494.50
  303.21        2956.00           2229        1720.00      7498.86
  303.24        2956.25           2232        1733.00      7555.56
  303.27        2956.50           2236        1783.00      7773.63
  303.30        2956.75           2239        1772.00      7725.66
  303.33        2957.00           2243        1793.00      7817.25
  303.36        2957.25           2246        1831.00      7982.99
  303.40        2957.50           2250        1808.00      7882.67
  303.43        2957.75           2254        1803.00      7860.86
  303.46        2958.00           2257        1793.00      7817.25
  303.49        2958.25           2261        1836.00      8004.79
  303.52        2958.50           2264        1900.00      8283.94
  303.55        2958.75           2268        1890.00      8240.32
  303.58        2959.00           2271        1884.00      8214.15
  303.61        2959.25           2275        1894.00      8257.77
  303.64        2959.50           2278        1900.00      8283.94
  303.67        2959.75           2282        1944.00      8475.85
  303.70        2960.00           2285        1937.00      8445.32
  303.73        2960.25           2289        2005.00      8741.92
  303.76        2960.50           2293        1982.00      8641.60
  303.79        2960.75           2296        2060.00      8981.82
  303.82        2961.00           2300        2176.00      9487.80
  303.85        2961.25           2303        2705.00     11795.49
  303.88        2961.50           2307        7713.00     33660.12
  303.92        2961.75           2310       16459.00     71922.83
  303.95        2962.00           2314       31339.00    137251.00
  303.98        2962.25           2317       45217.00    198443.40
  304.01        2962.50           2321       63303.00    278575.50
  304.04        2962.75           2324       77746.00    342883.50
  304.07        2963.00           2328       97141.00    429687.80
  304.10        2963.25           2331      111648.00    494954.50
  304.13        2963.50           2335      132429.00    588959.80
  304.16        2963.75           2339      154486.00    689405.80
  304.19        2964.00           2342      171140.00    765709.60
  304.22        2964.25           2346      192360.00    863518.40
  304.25        2964.50           2349      206755.00    930246.90
  304.28        2964.75           2353      226987.00   1024556.00
  304.31        2965.00           2356      241083.00   1090629.00
  304.34        2965.25           2360      260964.00   1184336.00
  304.37        2965.50           2363      276690.00   1258892.00
  304.40        2965.75           2367      295760.00   1349825.00
  304.44        2966.00           2370      308776.00   1412221.00
  304.47        2966.25           2374      326341.00   1496858.00
  304.50        2966.50           2378      340151.00   1563754.00
  304.53        2966.75           2381      344542.00   1585090.00
  304.56        2967.00           2385      346871.00   1596420.00
  304.59        2967.25           2388      347803.00   1600956.00
  304.62        2967.50           2392      346810.00   1596123.00
  304.65        2967.75           2395      346667.00   1595427.00
  304.68        2968.00           2399      342155.00   1573488.00
  304.71        2968.25           2402      333762.00   1532767.00
  304.74        2968.50           2406      317952.00   1456373.00
  304.77        2968.75           2409      303750.00   1388095.00
  304.80        2969.00           2413      283564.00   1291604.00
  304.83        2969.25           2417      262182.00   1190096.00
  304.86        2969.50           2420      247184.00   1119321.00
  304.89        2969.75           2424      226580.00   1022653.00
  304.92        2970.00           2427      211767.00    953552.50
  304.96        2970.25           2431      191667.00    860313.80
  304.99        2970.50           2434      175597.00    786198.50
  305.02        2970.75           2438      154557.00    689730.30
  305.05        2971.00           2441      139812.00    622504.30
  305.08        2971.25           2445      118458.00    525693.50
  305.11        2971.50           2449       97255.00    430199.60
  305.14        2971.75           2452       81947.00    361641.80
  305.17        2972.00           2456       62412.00    274617.60
  305.20        2972.25           2459       47027.00    206443.10
  305.23        2972.50           2463       26208.00    114691.40
  305.26        2972.75           2466       13965.00     61001.73
  305.29        2973.00           2470        5168.00     22544.74
  305.32        2973.25           2473        2947.00     12851.30
  305.35        2973.50           2477        2162.00      9426.74
  305.38        2973.75           2481        2077.00      9055.97
  305.41        2974.00           2484        2007.00      8750.64
  305.44        2974.25           2488        1962.00      8554.36
  305.48        2974.50           2491        1988.00      8667.77
  305.51        2974.75           2495        1912.00      8336.28
  305.54        2975.00           2498        1884.00      8214.15
  305.57        2975.25           2502        1877.00      8183.62
  305.60        2975.50           2505        1834.00      7996.07
  305.63        2975.75           2509        1792.00      7812.89
  305.66        2976.00           2512        1849.00      8061.50
  305.69        2976.25           2516        1807.00      7878.31
  305.72        2976.50           2520        1733.00      7555.56
  305.75        2976.75           2523        1750.00      7629.70
  305.78        2977.00           2527        1738.00      7577.37
  305.81        2977.25           2530        1714.00      7472.69
  305.84        2977.50           2534        1708.00      7446.52
  305.88        2977.75           2537        1738.00      7577.37
  305.91        2978.00           2541        1703.00      7424.72
  305.94        2978.25           2544        1713.00      7468.33
  305.97        2978.50           2548        1657.00      7224.09
  306.00        2978.75           2552        1645.00      7171.76
  306.03        2979.00           2555        1673.00      7293.88
  306.06        2979.25           2559        1661.00      7241.54
  306.09        2979.50           2562        1651.00      7197.93
  306.12        2979.75           2566        1611.00      7023.47
  306.15        2980.00           2569        1569.00      6840.30
  306.18        2980.25           2573        1603.00      6988.58
  306.21        2980.50           2577        1600.00      6975.50
  306.24        2980.75           2580        1551.00      6761.80
  306.27        2981.00           2584        1595.00      6953.69
  306.30        2981.25           2587        1582.00      6897.00
  306.33        2981.50           2591        1563.00      6814.13
  306.36        2981.75           2594        1581.00      6892.64
  306.39        2982.00           2598        1559.00      6796.69
  306.43        2982.25           2601        1548.00      6748.72
  306.46        2982.50           2605        1507.00      6569.91
  306.49        2982.75           2609        1504.00      6556.82
  306.52        2983.00           2612        1545.00      6735.63
  306.55        2983.25           2616        1527.00      6657.13
  306.58        2983.50           2619        1504.00      6556.82
  306.61        2983.75           2623        1540.00      6713.83
  306.64        2984.00           2626        1539.00      6709.47
HS scan finished at 05:06:52
end
************************************************************
  HS Scan of (1) Internal mercury lamp
************************************************************
Integration time is 0.2294 seconds per sample
dh010219Reading 51.44 .94 2.52pr1000
************************************************************
Dead Time -------------------------  3.4E-08 
Number of Cycles Used -------------  4 
Starting Wavelength (Angstroms) ---  2950 
Final Wavelength (Angstoms) -------  2984 
Wavelength Increment (Angstroms) --  .25 
Filter Wheel #1 Position ---------- (1) Ground quartz diffuser (ND=2.32)
Filter Wheel #2 Position ---------- (1) Neutral Density 0.494



************************************************************
HS scan start time = 17:37:25
Dark Count =  .2 


Time (GMT)  Wavelength (Ang)  Step Number  Raw Counts  Counts/Second

 1058.32        2950.00           2144        1540.00      6713.83
 1058.51        2950.25           2147        1518.00      6617.88
 1058.55        2950.50           2151        1547.00      6744.35
 1058.58        2950.75           2155        1532.00      6678.94
 1058.61        2951.00           2158        1548.00      6748.72
 1058.64        2951.25           2162        1525.00      6648.41
 1058.67        2951.50           2165        1557.00      6787.97
 1058.70        2951.75           2169        1534.00      6687.66
 1058.73        2952.00           2172        1533.00      6683.30
 1058.76        2952.25           2176        1549.00      6753.08
 1058.79        2952.50           2179        1567.00      6831.58
 1058.82        2952.75           2183        1555.00      6779.24
 1058.85        2953.00           2186        1578.00      6879.55
 1058.88        2953.25           2190        1564.00      6818.49
 1058.91        2953.50           2193        1554.00      6774.88
 1058.94        2953.75           2197        1576.00      6870.83
 1058.97        2954.00           2200        1603.00      6988.58
 1059.00        2954.25           2204        1604.00      6992.95
 1059.03        2954.50           2208        1581.00      6892.64
 1059.07        2954.75           2211        1612.00      7027.84
 1059.10        2955.00           2215        1610.00      7019.11
 1059.13        2955.25           2218        1642.00      7158.67
 1059.16        2955.50           2222        1567.00      6831.58
 1059.19        2955.75           2225        1613.00      7032.20
 1059.22        2956.00           2229        1717.00      7485.78
 1059.25        2956.25           2232        1668.00      7272.07
 1059.28        2956.50           2236        1679.00      7320.04
 1059.31        2956.75           2239        1635.00      7128.14
 1059.34        2957.00           2243        1672.00      7289.51
 1059.37        2957.25           2246        1689.00      7363.66
 1059.40        2957.50           2250        1676.00      7306.96
 1059.43        2957.75           2254        1725.00      7520.67
 1059.46        2958.00           2257        1657.00      7224.09
 1059.49        2958.25           2261        1698.00      7402.91
 1059.52        2958.50           2264        1747.00      7616.62
 1059.55        2958.75           2268        1693.00      7381.10
 1059.59        2959.00           2271        1786.00      7786.72
 1059.62        2959.25           2275        1787.00      7791.08
 1059.65        2959.50           2278        1792.00      7812.89
 1059.68        2959.75           2282        1858.00      8100.75
 1059.71        2960.00           2285        1820.00      7935.01
 1059.74        2960.25           2289        1876.00      8179.26
 1059.77        2960.50           2293        1897.00      8270.85
 1059.80        2960.75           2296        1909.00      8323.19
 1059.83        2961.00           2300        1997.00      8707.02
 1059.86        2961.25           2303        2227.00      9710.27
 1059.89        2961.50           2307        4418.00     19270.69
 1059.92        2961.75           2310       10519.00     45925.19
 1059.95        2962.00           2314       24125.00    105542.80
 1059.98        2962.25           2317       36626.00    160532.90
 1060.01        2962.50           2321       54306.00    238658.50
 1060.04        2962.75           2324       68625.00    302239.00
 1060.07        2963.00           2328       88845.00    392495.10
 1060.11        2963.25           2331      104765.00    463951.70
 1060.14        2963.50           2335      124389.00    552517.90
 1060.17        2963.75           2339      143837.00    640824.40
 1060.20        2964.00           2342      157934.00    705170.60
 1060.23        2964.25           2346      179915.00    806076.00
 1060.26        2964.50           2349      196093.00    880793.40
 1060.29        2964.75           2353      216781.00    976905.20
 1060.32        2965.00           2356      230425.00   1040644.00
 1060.35        2965.25           2360      247322.00   1119970.00
 1060.38        2965.50           2363      260884.00   1183957.00
 1060.41        2965.75           2367      281924.00   1283793.00
 1060.44        2966.00           2370      295937.00   1350671.00
 1060.47        2966.25           2374      312780.00   1431471.00
 1060.50        2966.50           2378      327032.00   1500198.00
 1060.53        2966.75           2381      333855.00   1533218.00
 1060.56        2967.00           2385      336031.00   1543764.00
 1060.59        2967.25           2388      336372.00   1545418.00
 1060.63        2967.50           2392      337671.00   1551718.00
 1060.66        2967.75           2395      337193.00   1549399.00
 1060.69        2968.00           2399      334972.00   1538630.00
 1060.72        2968.25           2402      328485.00   1507223.00
 1060.75        2968.50           2406      313621.00   1435517.00
 1060.78        2968.75           2409      301553.00   1377562.00
 1060.81        2969.00           2413      284854.00   1297751.00
 1060.84        2969.25           2417      266774.00   1211836.00
 1060.87        2969.50           2420      251864.00   1141368.00
 1060.90        2969.75           2424      231124.00   1043916.00
 1060.93        2970.00           2427      216078.00    973628.70
 1060.96        2970.25           2431      196287.00    881691.70
 1060.99        2970.50           2434      181338.00    812632.70
 1061.02        2970.75           2438      162231.00    724841.30
 1061.05        2971.00           2441      147195.00    656126.20
 1061.08        2971.25           2445      125617.00    558078.00
 1061.11        2971.50           2449      103958.00    460321.00
 1061.15        2971.75           2452       87636.00    387082.80
 1061.18        2972.00           2456       67665.00    297967.70
 1061.21        2972.25           2459       53597.00    235517.50
 1061.24        2972.50           2463       34147.00    149611.80
 1061.27        2972.75           2466       21380.00     93495.53
 1061.30        2973.00           2470        8034.00     35062.70
 1061.33        2973.25           2473        3766.00     16425.04
 1061.36        2973.50           2477        2186.00      9531.42
 1061.39        2973.75           2481        1934.00      8432.23
 1061.42        2974.00           2484        1945.00      8480.21
 1061.45        2974.25           2488        1870.00      8153.09
 1061.48        2974.50           2491        1851.00      8070.22
 1061.51        2974.75           2495        1857.00      8096.39
 1061.54        2975.00           2498        1772.00      7725.66
 1061.57        2975.25           2502        1809.00      7887.03
 1061.60        2975.50           2505        1767.00      7703.85
 1061.63        2975.75           2509        1779.00      7756.19
 1061.67        2976.00           2512        1734.00      7559.92
 1061.70        2976.25           2516        1752.00      7638.43
 1061.73        2976.50           2520        1700.00      7411.63
 1061.76        2976.75           2523        1702.00      7420.36
 1061.79        2977.00           2527        1673.00      7293.88
 1061.82        2977.25           2530        1661.00      7241.54
 1061.85        2977.50           2534        1632.00      7115.06
 1061.88        2977.75           2537        1639.00      7145.59
 1061.91        2978.00           2541        1619.00      7058.36
 1061.94        2978.25           2544        1660.00      7237.18
 1061.97        2978.50           2548        1581.00      6892.64
 1062.00        2978.75           2552        1572.00      6853.38
 1062.03        2979.00           2555        1576.00      6870.83
 1062.06        2979.25           2559        1580.00      6888.27
 1062.09        2979.50           2562        1555.00      6779.24
 1062.12        2979.75           2566        1560.00      6801.05
 1062.15        2980.00           2569        1539.00      6709.47
 1062.18        2980.25           2573        1491.00      6500.13
 1062.22        2980.50           2577        1524.00      6644.05
 1062.25        2980.75           2580        1541.00      6718.19
 1062.28        2981.00           2584        1561.00      6805.41
 1062.31        2981.25           2587        1492.00      6504.49
 1062.34        2981.50           2591        1488.00      6487.05
 1062.37        2981.75           2594        1501.00      6543.74
 1062.40        2982.00           2598        1457.00      6351.85
 1062.43        2982.25           2601        1444.00      6295.16
 1062.46        2982.50           2605        1460.00      6364.94
 1062.49        2982.75           2609        1475.00      6430.35
 1062.52        2983.00           2612        1454.00      6338.77
 1062.55        2983.25           2616        1458.00      6356.21
 1062.58        2983.50           2619        1448.00      6312.60
 1062.61        2983.75           2623        1442.00      6286.44
 1062.64        2984.00           2626        1458.00      6356.21
HS scan finished at 17:42:52
end
