************************************************************
  HS Scan of 
************************************************************
Integration time is 0.2294 seconds per sample
dh010217Reading 51.44 .94 3.03pr1000
************************************************************
Dead Time -------------------------  3.4E-08 
Number of Cycles Used -------------  4 
Starting Wavelength (Angstroms) ---  2950 
Final Wavelength (Angstoms) -------  2984 
Wavelength Increment (Angstroms) --  .25 
Filter Wheel #1 Position ---------- (1) Ground quartz diffuser (ND=2.32)
Filter Wheel #2 Position ---------- (1) Neutral Density 0.494



************************************************************
HS scan start time = 04:57:48
Dark Count =  1 


Time (GMT)  Wavelength (Ang)  Step Number  Raw Counts  Counts/Second

  298.69        2950.00           2144         743.00      3234.88
  298.89        2950.25           2147         699.00      3043.04
  298.92        2950.50           2151         712.00      3099.72
  298.95        2950.75           2155         734.00      3195.64
  298.98        2951.00           2158         718.00      3125.88
  299.01        2951.25           2162         705.00      3069.20
  299.04        2951.50           2165         728.00      3169.48
  299.07        2951.75           2169         733.00      3191.28
  299.10        2952.00           2172         725.00      3156.40
  299.13        2952.25           2176         725.00      3156.40
  299.16        2952.50           2179         749.00      3261.04
  299.19        2952.75           2183         737.00      3208.72
  299.22        2953.00           2186         732.00      3186.92
  299.26        2953.25           2190         745.00      3243.60
  299.29        2953.50           2193         771.00      3356.97
  299.32        2953.75           2197         773.00      3365.69
  299.35        2954.00           2200         768.00      3343.89
  299.38        2954.25           2204         787.00      3426.73
  299.41        2954.50           2208         763.00      3322.08
  299.44        2954.75           2211         793.00      3452.89
  299.47        2955.00           2215         780.00      3396.21
  299.50        2955.25           2218         811.00      3531.37
  299.53        2955.50           2222         766.00      3335.16
  299.56        2955.75           2225         809.00      3522.65
  299.59        2956.00           2229         802.00      3492.13
  299.62        2956.25           2232         772.00      3361.33
  299.65        2956.50           2236         759.00      3304.64
  299.68        2956.75           2239         785.00      3418.01
  299.71        2957.00           2243         844.00      3675.26
  299.74        2957.25           2246         821.00      3574.98
  299.78        2957.50           2250         817.00      3557.54
  299.81        2957.75           2254         823.00      3583.70
  299.84        2958.00           2257         847.00      3688.34
  299.87        2958.25           2261         838.00      3649.10
  299.90        2958.50           2264         858.00      3736.31
  299.93        2958.75           2268         919.00      4002.29
  299.96        2959.00           2271         866.00      3771.19
  299.99        2959.25           2275         892.00      3884.56
  300.02        2959.50           2278         924.00      4024.09
  300.05        2959.75           2282         905.00      3941.24
  300.08        2960.00           2285         945.00      4115.66
  300.11        2960.25           2289         936.00      4076.42
  300.14        2960.50           2293         959.00      4176.70
  300.17        2960.75           2296         969.00      4220.31
  300.20        2961.00           2300         995.00      4333.68
  300.23        2961.25           2303        1193.00      5197.08
  300.26        2961.50           2307        3092.00     13480.46
  300.30        2961.75           2310        8539.00     37266.02
  300.33        2962.00           2314       18029.00     78798.46
  300.36        2962.25           2317       26002.00    113782.80
  300.39        2962.50           2321       36282.00    159013.40
  300.42        2962.75           2324       44942.00    197224.80
  300.45        2963.00           2328       57413.00    252427.50
  300.48        2963.25           2331       67333.00    296487.30
  300.51        2963.50           2335       79539.00    350883.10
  300.54        2963.75           2339       90876.00    401588.20
  300.57        2964.00           2342       99507.00    440308.90
  300.60        2964.25           2346      111217.00    493007.60
  300.63        2964.50           2349      119436.00    530109.80
  300.66        2964.75           2353      130809.00    581606.00
  300.69        2965.00           2356      140342.00    624911.60
  300.72        2965.25           2360      151841.00    677320.30
  300.75        2965.50           2363      159674.00    713129.10
  300.78        2965.75           2367      170938.00    764778.00
  300.81        2966.00           2370      178552.00    799795.00
  300.85        2966.25           2374      188301.00    844754.60
  300.88        2966.50           2378      194889.00    875215.80
  300.91        2966.75           2381      196874.00    884406.50
  300.94        2967.00           2385      197964.00    889455.80
  300.97        2967.25           2388      198012.00    889678.10
  301.00        2967.50           2392      197733.00    888385.50
  301.03        2967.75           2395      197582.00    887686.00
  301.06        2968.00           2399      194003.00    871115.40
  301.09        2968.25           2402      188293.00    844717.60
  301.12        2968.50           2406      178194.00    798146.60
  301.15        2968.75           2409      170654.00    763473.60
  301.18        2969.00           2413      160563.00    717198.80
  301.21        2969.25           2417      149435.00    666338.90
  301.24        2969.50           2420      140675.00    626426.70
  301.27        2969.75           2424      130838.00    581737.60
  301.30        2970.00           2427      122497.00    543951.90
  301.33        2970.25           2431      109420.00    484908.20
  301.37        2970.50           2434      100294.00    443844.70
  301.40        2970.75           2438       88566.00    391242.30
  301.43        2971.00           2441       79955.00    352740.50
  301.46        2971.25           2445       68431.00    301372.20
  301.49        2971.50           2449       57764.00    253984.20
  301.52        2971.75           2452       49766.00    218553.50
  301.55        2972.00           2456       37913.00    166202.50
  301.58        2972.25           2459       28983.00    126884.50
  301.61        2972.50           2463       17785.00     77729.13
  301.64        2972.75           2466       10217.00     44601.15
  301.67        2973.00           2470        3291.00     14348.76
  301.70        2973.25           2473        1478.00      6439.95
  301.73        2973.50           2477        1081.00      4708.69
  301.76        2973.75           2481        1012.00      4407.81
  301.79        2974.00           2484        1040.00      4529.90
  301.82        2974.25           2488         980.00      4268.27
  301.85        2974.50           2491         948.00      4128.74
  301.89        2974.75           2495         949.00      4133.10
  301.92        2975.00           2498         905.00      3941.24
  301.95        2975.25           2502         890.00      3875.84
  301.98        2975.50           2505         876.00      3814.79
  302.01        2975.75           2509         923.00      4019.73
  302.04        2976.00           2512         920.00      4006.65
  302.07        2976.25           2516         845.00      3679.62
  302.10        2976.50           2520         880.00      3832.23
  302.13        2976.75           2523         865.00      3766.83
  302.16        2977.00           2527         859.00      3740.67
  302.19        2977.25           2530         832.00      3622.94
  302.22        2977.50           2534         833.00      3627.30
  302.25        2977.75           2537         828.00      3605.50
  302.28        2978.00           2541         813.00      3540.10
  302.31        2978.25           2544         817.00      3557.54
  302.34        2978.50           2548         774.00      3370.05
  302.37        2978.75           2552         788.00      3431.09
  302.41        2979.00           2555         792.00      3448.53
  302.44        2979.25           2559         762.00      3317.72
  302.47        2979.50           2562         774.00      3370.05
  302.50        2979.75           2566         770.00      3352.61
  302.53        2980.00           2569         749.00      3261.04
  302.56        2980.25           2573         765.00      3330.80
  302.59        2980.50           2577         752.00      3274.12
  302.62        2980.75           2580         737.00      3208.72
  302.65        2981.00           2584         779.00      3391.85
  302.68        2981.25           2587         765.00      3330.80
  302.71        2981.50           2591         761.00      3313.36
  302.74        2981.75           2594         715.00      3112.80
  302.77        2982.00           2598         712.00      3099.72
  302.80        2982.25           2601         743.00      3234.88
  302.83        2982.50           2605         698.00      3038.68
  302.86        2982.75           2609         719.00      3130.24
  302.89        2983.00           2612         721.00      3138.96
  302.93        2983.25           2616         730.00      3178.20
  302.96        2983.50           2619         697.00      3034.31
  302.99        2983.75           2623         726.00      3160.76
  303.02        2984.00           2626         718.00      3125.88
HS scan finished at 05:03:14
end
************************************************************
  HS Scan of 
************************************************************
Integration time is 0.2294 seconds per sample
dh010217Reading 51.44 .94 3.11pr1000
************************************************************
Dead Time -------------------------  3.4E-08 
Number of Cycles Used -------------  4 
Starting Wavelength (Angstroms) ---  2950 
Final Wavelength (Angstoms) -------  2984 
Wavelength Increment (Angstroms) --  .25 
Filter Wheel #1 Position ---------- (1) Ground quartz diffuser (ND=2.32)
Filter Wheel #2 Position ---------- (1) Neutral Density 0.494



************************************************************
HS scan start time = 17:37:17
Dark Count =  1.1 


Time (GMT)  Wavelength (Ang)  Step Number  Raw Counts  Counts/Second

 1058.18        2950.00           2144         665.00      2894.36
 1058.37        2950.25           2147         684.00      2977.20
 1058.40        2950.50           2151         683.00      2972.84
 1058.43        2950.75           2155         691.00      3007.72
 1058.46        2951.00           2158         702.00      3055.68
 1058.50        2951.25           2162         712.00      3099.28
 1058.53        2951.50           2165         687.00      2990.28
 1058.56        2951.75           2169         682.00      2968.48
 1058.59        2952.00           2172         685.00      2981.56
 1058.62        2952.25           2176         674.00      2933.60
 1058.65        2952.50           2179         671.00      2920.52
 1058.68        2952.75           2183         716.00      3116.72
 1058.71        2953.00           2186         698.00      3038.24
 1058.74        2953.25           2190         719.00      3129.80
 1058.77        2953.50           2193         689.00      2999.00
 1058.80        2953.75           2197         699.00      3042.60
 1058.83        2954.00           2200         718.00      3125.44
 1058.86        2954.25           2204         719.00      3129.80
 1058.89        2954.50           2208         751.00      3269.33
 1058.92        2954.75           2211         718.00      3125.44
 1058.95        2955.00           2215         751.00      3269.33
 1058.98        2955.25           2218         750.00      3264.97
 1059.02        2955.50           2222         759.00      3304.21
 1059.05        2955.75           2225         722.00      3142.88
 1059.08        2956.00           2229         754.00      3282.41
 1059.11        2956.25           2232         760.00      3308.57
 1059.14        2956.50           2236         769.00      3347.81
 1059.17        2956.75           2239         774.00      3369.61
 1059.20        2957.00           2243         769.00      3347.81
 1059.23        2957.25           2246         785.00      3417.57
 1059.26        2957.50           2250         770.00      3352.17
 1059.29        2957.75           2254         795.00      3461.17
 1059.32        2958.00           2257         793.00      3452.45
 1059.35        2958.25           2261         795.00      3461.17
 1059.38        2958.50           2264         789.00      3435.01
 1059.41        2958.75           2268         845.00      3679.19
 1059.44        2959.00           2271         823.00      3583.26
 1059.47        2959.25           2275         817.00      3557.10
 1059.50        2959.50           2278         817.00      3557.10
 1059.54        2959.75           2282         843.00      3670.47
 1059.57        2960.00           2285         857.00      3731.51
 1059.60        2960.25           2289         862.00      3753.31
 1059.63        2960.50           2293         873.00      3801.28
 1059.66        2960.75           2296         887.00      3862.32
 1059.69        2961.00           2300         929.00      4045.46
 1059.72        2961.25           2303        1109.00      4830.35
 1059.75        2961.50           2307        2894.00     12616.13
 1059.78        2961.75           2310        6758.00     29484.21
 1059.81        2962.00           2314       14421.00     62993.98
 1059.84        2962.25           2317       21249.00     92916.88
 1059.87        2962.50           2321       31136.00    136353.90
 1059.90        2962.75           2324       38363.00    168186.10
 1059.93        2963.00           2328       46810.00    205479.80
 1059.96        2963.25           2331       53490.00    235039.50
 1059.99        2963.50           2335       63253.00    278349.40
 1060.02        2963.75           2339       73660.00    324657.70
 1060.06        2964.00           2342       80921.00    357054.30
 1060.09        2964.25           2346       90672.00    400673.70
 1060.12        2964.50           2349       97601.00    431748.80
 1060.15        2964.75           2353      106126.00    470072.70
 1060.18        2965.00           2356      113157.00    501756.20
 1060.21        2965.25           2360      122766.00    545168.50
 1060.24        2965.50           2363      130195.00    578820.80
 1060.27        2965.75           2367      138281.00    615537.80
 1060.30        2966.00           2370      144918.00    645744.50
 1060.33        2966.25           2374      152691.00    681201.50
 1060.36        2966.50           2378      158343.00    707037.80
 1060.39        2966.75           2381      160136.00    715243.50
 1060.42        2967.00           2385      160306.00    716021.80
 1060.45        2967.25           2388      160346.00    716204.80
 1060.48        2967.50           2392      160383.00    716374.30
 1060.51        2967.75           2395      159801.00    713710.00
 1060.54        2968.00           2399      157664.00    703931.50
 1060.58        2968.25           2402      153405.00    684462.80
 1060.61        2968.50           2406      146227.00    651709.50
 1060.64        2968.75           2409      140130.00    623946.80
 1060.67        2969.00           2413      130347.00    579510.10
 1060.70        2969.25           2417      121368.00    538844.50
 1060.73        2969.50           2420      114278.00    506814.10
 1060.76        2969.75           2424      105132.00    465599.00
 1060.79        2970.00           2427       98549.00    436005.60
 1060.82        2970.25           2431       90025.00    397775.50
 1060.85        2970.50           2434       83483.00    368502.30
 1060.88        2970.75           2438       72819.00    320910.00
 1060.91        2971.00           2441       64800.00    285223.90
 1060.94        2971.25           2445       55179.00    242523.00
 1060.97        2971.50           2449       45749.00    200790.30
 1061.00        2971.75           2452       39473.00    173081.40
 1061.03        2972.00           2456       30541.00    133736.20
 1061.06        2972.25           2459       24087.00    105372.00
 1061.10        2972.50           2463       15183.00     66330.33
 1061.13        2972.75           2466        8582.00     37453.51
 1061.16        2973.00           2470        2570.00     11202.61
 1061.19        2973.25           2473        1197.00      5214.09
 1061.22        2973.50           2477         973.00      4237.32
 1061.25        2973.75           2481         895.00      3897.20
 1061.28        2974.00           2484         868.00      3779.47
 1061.31        2974.25           2488         844.00      3674.83
 1061.34        2974.50           2491         805.00      3504.78
 1061.37        2974.75           2495         838.00      3648.67
 1061.40        2975.00           2498         839.00      3653.03
 1061.43        2975.25           2502         838.00      3648.67
 1061.46        2975.50           2505         804.00      3500.42
 1061.49        2975.75           2509         795.00      3461.17
 1061.52        2976.00           2512         805.00      3504.78
 1061.55        2976.25           2516         810.00      3526.58
 1061.58        2976.50           2520         813.00      3539.66
 1061.62        2976.75           2523         778.00      3387.05
 1061.65        2977.00           2527         790.00      3439.37
 1061.68        2977.25           2530         766.00      3334.73
 1061.71        2977.50           2534         793.00      3452.45
 1061.74        2977.75           2537         736.00      3203.92
 1061.77        2978.00           2541         754.00      3282.41
 1061.80        2978.25           2544         731.00      3182.12
 1061.83        2978.50           2548         724.00      3151.60
 1061.86        2978.75           2552         684.00      2977.20
 1061.89        2979.00           2555         722.00      3142.88
 1061.92        2979.25           2559         712.00      3099.28
 1061.95        2979.50           2562         717.00      3121.08
 1061.98        2979.75           2566         708.00      3081.84
 1062.01        2980.00           2569         707.00      3077.48
 1062.04        2980.25           2573         706.00      3073.12
 1062.07        2980.50           2577         683.00      2972.84
 1062.10        2980.75           2580         697.00      3033.88
 1062.13        2981.00           2584         689.00      2999.00
 1062.17        2981.25           2587         705.00      3068.76
 1062.20        2981.50           2591         666.00      2898.72
 1062.23        2981.75           2594         694.00      3020.80
 1062.26        2982.00           2598         671.00      2920.52
 1062.29        2982.25           2601         683.00      2972.84
 1062.32        2982.50           2605         669.00      2911.80
 1062.35        2982.75           2609         659.00      2868.20
 1062.38        2983.00           2612         664.00      2890.00
 1062.41        2983.25           2616         683.00      2972.84
 1062.44        2983.50           2619         658.00      2863.84
 1062.47        2983.75           2623         667.00      2903.08
 1062.50        2984.00           2626         677.00      2946.68
HS scan finished at 17:42:43
end
