************************************************************
  HS Scan of 
************************************************************
Integration time is 0.2294 seconds per sample
dh020217Reading 51.44 .94 2.94pr1000
************************************************************
Dead Time -------------------------  3.4E-08 
Number of Cycles Used -------------  4 
Starting Wavelength (Angstroms) ---  2950 
Final Wavelength (Angstoms) -------  2984 
Wavelength Increment (Angstroms) --  .25 
Filter Wheel #1 Position ---------- (1) Ground quartz diffuser (ND=2.32)
Filter Wheel #2 Position ---------- (1) Neutral Density 0.494



************************************************************
HS scan start time = 04:56:30
Dark Count =  .7 


Time (GMT)  Wavelength (Ang)  Step Number  Raw Counts  Counts/Second

  297.41        2950.00           2144         753.00      3279.79
  297.60        2950.25           2147         747.00      3253.63
  297.63        2950.50           2151         732.00      3188.23
  297.66        2950.75           2155         737.00      3210.03
  297.69        2951.00           2158         745.00      3244.91
  297.72        2951.25           2162         774.00      3371.35
  297.75        2951.50           2165         755.00      3288.51
  297.78        2951.75           2169         745.00      3244.91
  297.81        2952.00           2172         760.00      3310.31
  297.84        2952.25           2176         744.00      3240.55
  297.88        2952.50           2179         758.00      3301.59
  297.91        2952.75           2183         739.00      3218.75
  297.94        2953.00           2186         771.00      3358.27
  297.97        2953.25           2190         812.00      3537.04
  298.00        2953.50           2193         773.00      3366.99
  298.03        2953.75           2197         771.00      3358.27
  298.06        2954.00           2200         794.00      3458.56
  298.09        2954.25           2204         778.00      3388.80
  298.12        2954.50           2208         801.00      3489.08
  298.15        2954.75           2211         800.00      3484.72
  298.18        2955.00           2215         791.00      3445.48
  298.21        2955.25           2218         771.00      3358.27
  298.24        2955.50           2222         800.00      3484.72
  298.27        2955.75           2225         800.00      3484.72
  298.30        2956.00           2229         790.00      3441.12
  298.33        2956.25           2232         814.00      3545.76
  298.36        2956.50           2236         806.00      3510.88
  298.40        2956.75           2239         823.00      3585.01
  298.43        2957.00           2243         844.00      3676.57
  298.46        2957.25           2246         853.00      3715.81
  298.49        2957.50           2250         838.00      3650.41
  298.52        2957.75           2254         847.00      3689.65
  298.55        2958.00           2257         843.00      3672.21
  298.58        2958.25           2261         852.00      3711.45
  298.61        2958.50           2264         886.00      3859.70
  298.64        2958.75           2268         892.00      3885.87
  298.67        2959.00           2271         877.00      3820.46
  298.70        2959.25           2275         902.00      3929.47
  298.73        2959.50           2278         915.00      3986.16
  298.76        2959.75           2282         912.00      3973.07
  298.79        2960.00           2285         919.00      4003.60
  298.82        2960.25           2289         942.00      4103.89
  298.85        2960.50           2293         974.00      4243.42
  298.88        2960.75           2296        1004.00      4374.23
  298.92        2961.00           2300        1035.00      4509.41
  298.95        2961.25           2303        1195.00      5207.11
  298.98        2961.50           2307        3235.00     14105.72
  299.01        2961.75           2310        8236.00     35943.20
  299.04        2962.00           2314       17199.00     75162.63
  299.07        2962.25           2317       25365.00    110986.00
  299.10        2962.50           2321       36776.00    161191.80
  299.13        2962.75           2324       45133.00    198070.10
  299.16        2963.00           2328       57111.00    251089.50
  299.19        2963.25           2331       66265.00    291738.70
  299.22        2963.50           2335       77177.00    340342.40
  299.25        2963.75           2339       87669.00    387228.20
  299.28        2964.00           2342       96357.00    426166.70
  299.31        2964.25           2346      108784.00    482044.00
  299.34        2964.50           2349      118003.00    523635.50
  299.37        2964.75           2353      128874.00    572833.00
  299.40        2965.00           2356      136407.00    607021.80
  299.43        2965.25           2360      147069.00    655549.50
  299.47        2965.50           2363      154782.00    690756.20
  299.50        2965.75           2367      164796.00    736593.60
  299.53        2966.00           2370      172807.00    773367.20
  299.56        2966.25           2374      182835.00    819531.20
  299.59        2966.50           2378      190697.00    855827.10
  299.62        2966.75           2381      192336.00    863405.10
  299.65        2967.00           2385      193308.00    867901.20
  299.68        2967.25           2388      193783.00    870098.80
  299.71        2967.50           2392      194139.00    871746.10
  299.74        2967.75           2395      193836.00    870344.00
  299.77        2968.00           2399      191460.00    859354.40
  299.80        2968.25           2402      186444.00    836181.30
  299.83        2968.50           2406      176981.00    792564.40
  299.86        2968.75           2409      168806.00    754989.40
  299.89        2969.00           2413      158412.00    707355.20
  299.92        2969.25           2417      147493.00    657482.70
  299.95        2969.50           2420      139819.00    622533.80
  299.99        2969.75           2424      128013.00    568930.40
  300.02        2970.00           2427      119370.00    529812.80
  300.05        2970.25           2431      107852.00    477845.90
  300.08        2970.50           2434       99923.00    442179.20
  300.11        2970.75           2438       89388.00    394924.30
  300.14        2971.00           2441       80085.00    353322.40
  300.17        2971.25           2445       67007.00    295038.50
  300.20        2971.50           2449       54979.00    241638.40
  300.23        2971.75           2452       46397.00    203656.00
  300.26        2972.00           2456       35266.00    154538.30
  300.29        2972.25           2459       27009.00    118208.70
  300.32        2972.50           2463       16002.00     69918.85
  300.35        2972.75           2466        8754.00     38206.97
  300.38        2973.00           2470        2940.00     12818.58
  300.41        2973.25           2473        1481.00      6454.34
  300.44        2973.50           2477        1040.00      4531.21
  300.47        2973.75           2481         998.00      4348.07
  300.51        2974.00           2484         984.00      4287.02
  300.54        2974.25           2488         986.00      4295.75
  300.57        2974.50           2491         947.00      4125.69
  300.60        2974.75           2495         961.00      4186.73
  300.63        2975.00           2498         928.00      4042.84
  300.66        2975.25           2502         929.00      4047.20
  300.69        2975.50           2505         884.00      3850.98
  300.72        2975.75           2509         865.00      3768.14
  300.75        2976.00           2512         880.00      3833.54
  300.78        2976.25           2516         860.00      3746.34
  300.81        2976.50           2520         851.00      3707.09
  300.84        2976.75           2523         836.00      3641.69
  300.87        2977.00           2527         860.00      3746.34
  300.90        2977.25           2530         841.00      3663.49
  300.93        2977.50           2534         821.00      3576.29
  300.96        2977.75           2537         832.00      3624.25
  300.99        2978.00           2541         802.00      3493.44
  301.03        2978.25           2544         810.00      3528.32
  301.06        2978.50           2548         813.00      3541.40
  301.09        2978.75           2552         809.00      3523.96
  301.12        2979.00           2555         794.00      3458.56
  301.15        2979.25           2559         789.00      3436.76
  301.18        2979.50           2562         777.00      3384.43
  301.21        2979.75           2566         761.00      3314.67
  301.24        2980.00           2569         789.00      3436.76
  301.27        2980.25           2573         786.00      3423.68
  301.30        2980.50           2577         790.00      3441.12
  301.33        2980.75           2580         754.00      3284.15
  301.36        2981.00           2584         747.00      3253.63
  301.39        2981.25           2587         766.00      3336.47
  301.42        2981.50           2591         770.00      3353.91
  301.45        2981.75           2594         742.00      3231.83
  301.48        2982.00           2598         759.00      3305.95
  301.51        2982.25           2601         754.00      3284.15
  301.55        2982.50           2605         730.00      3179.51
  301.58        2982.75           2609         789.00      3436.76
  301.61        2983.00           2612         715.00      3114.10
  301.64        2983.25           2616         723.00      3148.99
  301.67        2983.50           2619         720.00      3135.91
  301.70        2983.75           2623         701.00      3053.06
  301.73        2984.00           2626         733.00      3192.59
HS scan finished at 05:01:57
end
************************************************************
  HS Scan of 
************************************************************
Integration time is 0.2294 seconds per sample
dh020217Reading 51.44 .94 3.05pr1000
************************************************************
Dead Time -------------------------  3.4E-08 
Number of Cycles Used -------------  4 
Starting Wavelength (Angstroms) ---  2950 
Final Wavelength (Angstoms) -------  2984 
Wavelength Increment (Angstroms) --  .25 
Filter Wheel #1 Position ---------- (1) Ground quartz diffuser (ND=2.32)
Filter Wheel #2 Position ---------- (1) Neutral Density 0.494



************************************************************
HS scan start time = 17:37:18
Dark Count =  1.2 


Time (GMT)  Wavelength (Ang)  Step Number  Raw Counts  Counts/Second

 1058.20        2950.00           2144         616.00      2680.28
 1058.39        2950.25           2147         634.00      2758.76
 1058.42        2950.50           2151         630.00      2741.32
 1058.45        2950.75           2155         614.00      2671.56
 1058.48        2951.00           2158         617.00      2684.64
 1058.51        2951.25           2162         628.00      2732.60
 1058.54        2951.50           2165         649.00      2824.16
 1058.57        2951.75           2169         639.00      2780.56
 1058.60        2952.00           2172         646.00      2811.08
 1058.63        2952.25           2176         633.00      2754.40
 1058.66        2952.50           2179         632.00      2750.04
 1058.69        2952.75           2183         646.00      2811.08
 1058.72        2953.00           2186         637.00      2771.84
 1058.76        2953.25           2190         652.00      2837.24
 1058.79        2953.50           2193         645.00      2806.72
 1058.82        2953.75           2197         653.00      2841.60
 1058.85        2954.00           2200         657.00      2859.04
 1058.88        2954.25           2204         681.00      2963.68
 1058.91        2954.50           2208         655.00      2850.32
 1058.94        2954.75           2211         674.00      2933.16
 1058.97        2955.00           2215         674.00      2933.16
 1059.00        2955.25           2218         630.00      2741.32
 1059.03        2955.50           2222         670.00      2915.72
 1059.06        2955.75           2225         698.00      3037.80
 1059.09        2956.00           2229         685.00      2981.12
 1059.12        2956.25           2232         678.00      2950.60
 1059.15        2956.50           2236         687.00      2989.84
 1059.18        2956.75           2239         702.00      3055.24
 1059.21        2957.00           2243         700.00      3046.52
 1059.25        2957.25           2246         700.00      3046.52
 1059.28        2957.50           2250         698.00      3037.80
 1059.31        2957.75           2254         700.00      3046.52
 1059.34        2958.00           2257         721.00      3138.09
 1059.37        2958.25           2261         729.00      3172.97
 1059.40        2958.50           2264         737.00      3207.85
 1059.43        2958.75           2268         736.00      3203.49
 1059.46        2959.00           2271         749.00      3260.17
 1059.49        2959.25           2275         747.00      3251.45
 1059.52        2959.50           2278         770.00      3351.73
 1059.55        2959.75           2282         769.00      3347.37
 1059.58        2960.00           2285         792.00      3447.66
 1059.61        2960.25           2289         774.00      3369.17
 1059.64        2960.50           2293         802.00      3491.26
 1059.67        2960.75           2296         810.00      3526.14
 1059.70        2961.00           2300         827.00      3600.27
 1059.73        2961.25           2303         960.00      4180.19
 1059.77        2961.50           2307        2794.00     12179.41
 1059.80        2961.75           2310        6982.00     30462.23
 1059.83        2962.00           2314       14487.00     63282.48
 1059.86        2962.25           2317       20154.00     88113.63
 1059.89        2962.50           2321       27807.00    121713.60
 1059.92        2962.75           2324       33865.00    148365.60
 1059.95        2963.00           2328       43021.00    188739.10
 1059.98        2963.25           2331       50398.00    221349.20
 1060.01        2963.50           2335       59454.00    261480.90
 1060.04        2963.75           2339       67767.00    298417.00
 1060.07        2964.00           2342       74247.00    327273.60
 1060.10        2964.25           2346       82934.00    366048.00
 1060.13        2964.50           2349       89613.00    395929.70
 1060.16        2964.75           2353       98917.00    437657.80
 1060.19        2965.00           2356      105354.00    466597.60
 1060.22        2965.25           2360      113713.00    504264.20
 1060.25        2965.50           2363      119436.00    530108.80
 1060.29        2965.75           2367      126979.00    564242.80
 1060.32        2966.00           2370      133283.00    592831.50
 1060.35        2966.25           2374      140959.00    627718.00
 1060.38        2966.50           2378      146148.00    651349.00
 1060.41        2966.75           2381      147701.00    658428.90
 1060.44        2967.00           2385      148660.00    662802.60
 1060.47        2967.25           2388      148402.00    661625.80
 1060.50        2967.50           2392      148057.00    660052.40
 1060.53        2967.75           2395      148349.00    661384.10
 1060.56        2968.00           2399      145539.00    648573.60
 1060.59        2968.25           2402      140777.00    626889.90
 1060.62        2968.50           2406      133058.00    591810.00
 1060.65        2968.75           2409      126516.00    562145.30
 1060.68        2969.00           2413      118418.00    525508.30
 1060.71        2969.25           2417      111222.00    493029.20
 1060.74        2969.50           2420      105182.00    465823.50
 1060.77        2969.75           2424       96654.00    427497.40
 1060.81        2970.00           2427       89893.00    397183.80
 1060.84        2970.25           2431       80373.00    354606.20
 1060.87        2970.50           2434       74097.00    326605.00
 1060.90        2970.75           2438       65952.00    290344.70
 1060.93        2971.00           2441       59636.00    262288.60
 1060.96        2971.25           2445       51416.00    225855.00
 1060.99        2971.50           2449       42995.00    188624.30
 1061.02        2971.75           2452       37056.00    162423.70
 1061.05        2972.00           2456       28821.00    126171.30
 1061.08        2972.25           2459       22691.00     99243.64
 1061.11        2972.50           2463       13777.00     60174.42
 1061.14        2972.75           2466        7530.00     32856.21
 1061.17        2973.00           2470        2589.00     11285.06
 1061.20        2973.25           2473        1287.00      5606.13
 1061.23        2973.50           2477         885.00      3853.16
 1061.26        2973.75           2481         843.00      3670.03
 1061.29        2974.00           2484         851.00      3704.91
 1061.33        2974.25           2488         819.00      3565.38
 1061.36        2974.50           2491         763.00      3321.21
 1061.39        2974.75           2495         780.00      3395.34
 1061.42        2975.00           2498         731.00      3181.69
 1061.45        2975.25           2502         767.00      3338.65
 1061.48        2975.50           2505         756.00      3290.69
 1061.51        2975.75           2509         713.00      3103.20
 1061.54        2976.00           2512         745.00      3242.73
 1061.57        2976.25           2516         721.00      3138.09
 1061.60        2976.50           2520         713.00      3103.20
 1061.63        2976.75           2523         710.00      3090.12
 1061.66        2977.00           2527         713.00      3103.20
 1061.69        2977.25           2530         669.00      2911.36
 1061.72        2977.50           2534         697.00      3033.44
 1061.75        2977.75           2537         661.00      2876.48
 1061.78        2978.00           2541         696.00      3029.08
 1061.81        2978.25           2544         642.00      2793.64
 1061.84        2978.50           2548         680.00      2959.32
 1061.88        2978.75           2552         628.00      2732.60
 1061.91        2979.00           2555         673.00      2928.80
 1061.94        2979.25           2559         633.00      2754.40
 1061.97        2979.50           2562         632.00      2750.04
 1062.00        2979.75           2566         660.00      2872.12
 1062.03        2980.00           2569         644.00      2802.36
 1062.06        2980.25           2573         610.00      2654.12
 1062.09        2980.50           2577         627.00      2728.24
 1062.12        2980.75           2580         630.00      2741.32
 1062.15        2981.00           2584         613.00      2667.20
 1062.18        2981.25           2587         604.00      2627.96
 1062.21        2981.50           2591         606.00      2636.68
 1062.24        2981.75           2594         619.00      2693.36
 1062.27        2982.00           2598         615.00      2675.92
 1062.30        2982.25           2601         587.00      2553.84
 1062.33        2982.50           2605         610.00      2654.12
 1062.37        2982.75           2609         596.00      2593.08
 1062.40        2983.00           2612         607.00      2641.04
 1062.43        2983.25           2616         614.00      2671.56
 1062.46        2983.50           2619         601.00      2614.88
 1062.49        2983.75           2623         599.00      2606.16
 1062.52        2984.00           2626         596.00      2593.08
HS scan finished at 17:42:44
end
