************************************************************
  HS Scan of (1) Internal mercury lamp
************************************************************
Integration time is 0.2294 seconds per sample
dh030219Reading 51.44 .94 2.09pr1000
************************************************************
Dead Time -------------------------  3.4E-08 
Number of Cycles Used -------------  4 
Starting Wavelength (Angstroms) ---  2950 
Final Wavelength (Angstoms) -------  2984 
Wavelength Increment (Angstroms) --  .25 
Filter Wheel #1 Position ---------- (1) Ground quartz diffuser (ND=2.32)
Filter Wheel #2 Position ---------- (1) Neutral Density 0.494



************************************************************
HS scan start time = 05:01:20
Dark Count =  .2 


Time (GMT)  Wavelength (Ang)  Step Number  Raw Counts  Counts/Second

  302.22        2950.00           2144        1639.00      7145.59
  302.42        2950.25           2147        1616.00      7045.28
  302.45        2950.50           2151        1624.00      7080.17
  302.48        2950.75           2155        1647.00      7180.48
  302.51        2951.00           2158        1642.00      7158.67
  302.54        2951.25           2162        1626.00      7088.89
  302.57        2951.50           2165        1614.00      7036.56
  302.60        2951.75           2169        1631.00      7110.70
  302.63        2952.00           2172        1644.00      7167.40
  302.66        2952.25           2176        1635.00      7128.14
  302.69        2952.50           2179        1616.00      7045.28
  302.72        2952.75           2183        1644.00      7167.40
  302.75        2953.00           2186        1671.00      7285.15
  302.78        2953.25           2190        1667.00      7267.71
  302.81        2953.50           2193        1664.00      7254.62
  302.84        2953.75           2197        1657.00      7224.09
  302.87        2954.00           2200        1661.00      7241.54
  302.90        2954.25           2204        1666.00      7263.35
  302.94        2954.50           2208        1666.00      7263.35
  302.97        2954.75           2211        1706.00      7437.80
  303.00        2955.00           2215        1674.00      7298.24
  303.03        2955.25           2218        1688.00      7359.30
  303.06        2955.50           2222        1694.00      7385.46
  303.09        2955.75           2225        1717.00      7485.78
  303.12        2956.00           2229        1696.00      7394.19
  303.15        2956.25           2232        1735.00      7564.28
  303.18        2956.50           2236        1730.00      7542.47
  303.21        2956.75           2239        1751.00      7634.07
  303.24        2957.00           2243        1765.00      7695.13
  303.27        2957.25           2246        1755.00      7651.51
  303.30        2957.50           2250        1743.00      7599.17
  303.33        2957.75           2254        1754.00      7647.15
  303.36        2958.00           2257        1783.00      7773.63
  303.39        2958.25           2261        1828.00      7969.90
  303.42        2958.50           2264        1807.00      7878.31
  303.46        2958.75           2268        1845.00      8044.05
  303.49        2959.00           2271        1836.00      8004.79
  303.52        2959.25           2275        1885.00      8218.51
  303.55        2959.50           2278        1877.00      8183.62
  303.58        2959.75           2282        1898.00      8275.21
  303.61        2960.00           2285        1897.00      8270.85
  303.64        2960.25           2289        1910.00      8327.55
  303.67        2960.50           2293        1962.00      8554.36
  303.70        2960.75           2296        1979.00      8628.51
  303.73        2961.00           2300        2067.00      9012.35
  303.76        2961.25           2303        2206.00      9618.67
  303.79        2961.50           2307        4293.00     18725.08
  303.82        2961.75           2310       10449.00     45619.09
  303.85        2962.00           2314       23642.00    103422.30
  303.88        2962.25           2317       35023.00    153470.10
  303.91        2962.50           2321       50734.00    222840.70
  303.94        2962.75           2324       63047.00    277438.20
  303.98        2963.00           2328       80822.00    356616.10
  304.01        2963.25           2331       94564.00    418124.40
  304.04        2963.50           2335      114587.00    508212.60
  304.07        2963.75           2339      135606.00    603384.90
  304.10        2964.00           2342      149868.00    668318.20
  304.13        2964.25           2346      167173.00    747497.50
  304.16        2964.50           2349      179461.00    803984.80
  304.19        2964.75           2353      198119.00    890177.60
  304.22        2965.00           2356      212338.00    956210.10
  304.25        2965.25           2360      230897.00   1042854.00
  304.28        2965.50           2363      244693.00   1107599.00
  304.31        2965.75           2367      259125.00   1175642.00
  304.34        2966.00           2370      269133.00   1223017.00
  304.37        2966.25           2374      286058.00   1303490.00
  304.40        2966.50           2378      302420.00   1381718.00
  304.43        2966.75           2381      308168.00   1409301.00
  304.46        2967.00           2385      311096.00   1423372.00
  304.50        2967.25           2388      311706.00   1426305.00
  304.53        2967.50           2392      312253.00   1428936.00
  304.56        2967.75           2395      311589.00   1425742.00
  304.59        2968.00           2399      309030.00   1413442.00
  304.62        2968.25           2402      304065.00   1389606.00
  304.65        2968.50           2406      291659.00   1330221.00
  304.68        2968.75           2409      279654.00   1272988.00
  304.71        2969.00           2413      262489.00   1191549.00
  304.74        2969.25           2417      243601.00   1102464.00
  304.77        2969.50           2420      231717.00   1046694.00
  304.80        2969.75           2424      214216.00    964954.00
  304.83        2970.00           2427      200921.00    903166.10
  304.86        2970.25           2431      181562.00    813665.00
  304.89        2970.50           2434      166230.00    743171.80
  304.92        2970.75           2438      146646.00    653623.50
  304.95        2971.00           2441      131645.00    585402.30
  304.98        2971.25           2445      112977.00    500948.20
  305.02        2971.50           2449       94747.00    418945.30
  305.05        2971.75           2452       80207.00    353869.40
  305.08        2972.00           2456       61114.00    268853.60
  305.11        2972.25           2459       47432.00    208233.70
  305.14        2972.50           2463       30374.00    133005.50
  305.17        2972.75           2466       18900.00     82619.74
  305.20        2973.00           2470        6913.00     30165.19
  305.23        2973.25           2473        3366.00     14679.51
  305.26        2973.50           2477        2238.00      9758.25
  305.29        2973.75           2481        1993.00      8689.58
  305.32        2974.00           2484        1964.00      8563.09
  305.35        2974.25           2488        1928.00      8406.06
  305.38        2974.50           2491        1841.00      8026.60
  305.41        2974.75           2495        1850.00      8065.86
  305.44        2975.00           2498        1810.00      7891.39
  305.48        2975.25           2502        1821.00      7939.37
  305.51        2975.50           2505        1790.00      7804.16
  305.54        2975.75           2509        1784.00      7777.99
  305.57        2976.00           2512        1808.00      7882.67
  305.60        2976.25           2516        1782.00      7769.27
  305.63        2976.50           2520        1741.00      7590.45
  305.66        2976.75           2523        1748.00      7620.98
  305.70        2977.00           2527        1658.00      7228.46
  305.73        2977.25           2530        1705.00      7433.44
  305.76        2977.50           2534        1700.00      7411.63
  305.79        2977.75           2537        1672.00      7289.51
  305.82        2978.00           2541        1628.00      7097.62
  305.85        2978.25           2544        1653.00      7206.65
  305.88        2978.50           2548        1652.00      7202.29
  305.91        2978.75           2552        1617.00      7049.64
  305.94        2979.00           2555        1603.00      6988.58
  305.97        2979.25           2559        1625.00      7084.53
  306.00        2979.50           2562        1582.00      6897.00
  306.03        2979.75           2566        1587.00      6918.80
  306.06        2980.00           2569        1558.00      6792.33
  306.09        2980.25           2573        1576.00      6870.83
  306.12        2980.50           2577        1557.00      6787.97
  306.15        2980.75           2580        1571.00      6849.02
  306.18        2981.00           2584        1545.00      6735.63
  306.22        2981.25           2587        1538.00      6705.10
  306.25        2981.50           2591        1505.00      6561.19
  306.28        2981.75           2594        1502.00      6548.10
  306.31        2982.00           2598        1486.00      6478.32
  306.34        2982.25           2601        1514.00      6600.44
  306.37        2982.50           2605        1524.00      6644.05
  306.40        2982.75           2609        1527.00      6657.13
  306.43        2983.00           2612        1519.00      6622.24
  306.46        2983.25           2616        1539.00      6709.47
  306.49        2983.50           2619        1505.00      6561.19
  306.52        2983.75           2623        1500.00      6539.38
  306.55        2984.00           2626        1468.00      6399.82
HS scan finished at 05:06:46
end
************************************************************
  HS Scan of (1) Internal mercury lamp
************************************************************
Integration time is 0.2294 seconds per sample
dh030219Reading 51.44 .94 2.7pr1000
************************************************************
Dead Time -------------------------  3.4E-08 
Number of Cycles Used -------------  4 
Starting Wavelength (Angstroms) ---  2950 
Final Wavelength (Angstoms) -------  2984 
Wavelength Increment (Angstroms) --  .25 
Filter Wheel #1 Position ---------- (1) Ground quartz diffuser (ND=2.32)
Filter Wheel #2 Position ---------- (1) Neutral Density 0.494



************************************************************
HS scan start time = 17:37:28
Dark Count =  .4 


Time (GMT)  Wavelength (Ang)  Step Number  Raw Counts  Counts/Second

 1058.37        2950.00           2144        1391.00      6063.15
 1058.56        2950.25           2147        1382.00      6023.90
 1058.59        2950.50           2151        1360.00      5927.96
 1058.62        2950.75           2155        1385.00      6036.98
 1058.65        2951.00           2158        1382.00      6023.90
 1058.68        2951.25           2162        1374.00      5989.01
 1058.71        2951.50           2165        1374.00      5989.01
 1058.74        2951.75           2169        1369.00      5967.21
 1058.77        2952.00           2172        1397.00      6089.32
 1058.81        2952.25           2176        1390.00      6058.79
 1058.84        2952.50           2179        1399.00      6098.04
 1058.87        2952.75           2183        1354.00      5901.79
 1058.90        2953.00           2186        1405.00      6124.20
 1058.93        2953.25           2190        1408.00      6137.29
 1058.96        2953.50           2193        1478.00      6442.56
 1058.99        2953.75           2197        1414.00      6163.45
 1059.02        2954.00           2200        1422.00      6198.34
 1059.05        2954.25           2204        1441.00      6281.20
 1059.08        2954.50           2208        1443.00      6289.92
 1059.11        2954.75           2211        1434.00      6250.67
 1059.15        2955.00           2215        1461.00      6368.42
 1059.18        2955.25           2218        1480.00      6451.28
 1059.21        2955.50           2222        1461.00      6368.42
 1059.24        2955.75           2225        1458.00      6355.34
 1059.27        2956.00           2229        1485.00      6473.09
 1059.30        2956.25           2232        1487.00      6481.81
 1059.33        2956.50           2236        1494.00      6512.34
 1059.36        2956.75           2239        1508.00      6573.40
 1059.39        2957.00           2243        1501.00      6542.87
 1059.42        2957.25           2246        1493.00      6507.98
 1059.45        2957.50           2250        1505.00      6560.31
 1059.49        2957.75           2254        1551.00      6760.93
 1059.52        2958.00           2257        1544.00      6730.40
 1059.55        2958.25           2261        1595.00      6952.82
 1059.58        2958.50           2264        1553.00      6769.65
 1059.61        2958.75           2268        1609.00      7013.88
 1059.64        2959.00           2271        1612.00      7026.96
 1059.67        2959.25           2275        1589.00      6926.65
 1059.70        2959.50           2278        1658.00      7227.58
 1059.73        2959.75           2282        1638.00      7140.36
 1059.76        2960.00           2285        1625.00      7083.66
 1059.79        2960.25           2289        1692.00      7375.87
 1059.82        2960.50           2293        1768.00      7707.34
 1059.85        2960.75           2296        1724.00      7515.43
 1059.88        2961.00           2300        1835.00      7999.56
 1059.91        2961.25           2303        1979.00      8627.64
 1059.94        2961.50           2307        3560.00     15525.19
 1059.97        2961.75           2310        8016.00     34983.18
 1060.01        2962.00           2314       19704.00     86143.82
 1060.04        2962.25           2317       32067.00    140453.80
 1060.07        2962.50           2321       50860.00    223397.50
 1060.10        2962.75           2324       64990.00    286071.50
 1060.13        2963.00           2328       83486.00    368518.90
 1060.16        2963.25           2331       96393.00    426329.60
 1060.19        2963.50           2335      116264.00    515782.30
 1060.22        2963.75           2339      135832.00    604410.70
 1060.25        2964.00           2342      149894.00    668436.00
 1060.28        2964.25           2346      168779.00    754866.80
 1060.31        2964.50           2349      183265.00    821515.30
 1060.34        2964.75           2353      204588.00    920181.10
 1060.37        2965.00           2356      218608.00    985422.80
 1060.40        2965.25           2360      237131.00   1072073.00
 1060.43        2965.50           2363      250667.00   1135725.00
 1060.46        2965.75           2367      268827.00   1221565.00
 1060.49        2966.00           2370      282291.00   1285539.00
 1060.52        2966.25           2374      300723.00   1373583.00
 1060.56        2966.50           2378      315546.00   1444782.00
 1060.59        2966.75           2381      320610.00   1469187.00
 1060.62        2967.00           2385      322497.00   1478292.00
 1060.65        2967.25           2388      322616.00   1478866.00
 1060.68        2967.50           2392      323372.00   1482516.00
 1060.71        2967.75           2395      322415.00   1477896.00
 1060.74        2968.00           2399      319576.00   1464201.00
 1060.77        2968.25           2402      312086.00   1428131.00
 1060.80        2968.50           2406      297016.00   1355833.00
 1060.83        2968.75           2409      285280.00   1299780.00
 1060.86        2969.00           2413      267203.00   1213867.00
 1060.89        2969.25           2417      249301.00   1129289.00
 1060.92        2969.50           2420      236083.00   1067157.00
 1060.95        2969.75           2424      218368.00    984303.40
 1060.98        2970.00           2427      203887.00    916926.70
 1061.01        2970.25           2431      183566.00    822903.50
 1061.04        2970.50           2434      167842.00    750566.30
 1061.08        2970.75           2438      148327.00    661287.40
 1061.11        2971.00           2441      133559.00    594088.00
 1061.14        2971.25           2445      116463.00    516680.90
 1061.17        2971.50           2449       96017.00    424642.30
 1061.20        2971.75           2452       80221.00    353931.00
 1061.23        2972.00           2456       60773.00    267338.80
 1061.26        2972.25           2459       46936.00    206039.90
 1061.29        2972.50           2463       28785.00    126016.60
 1061.32        2972.75           2466       17108.00     74765.23
 1061.35        2973.00           2470        6332.00     27626.64
 1061.38        2973.25           2473        2955.00     12885.33
 1061.41        2973.50           2477        1948.00      8492.43
 1061.44        2973.75           2481        1803.00      7859.99
 1061.47        2974.00           2484        1741.00      7589.58
 1061.50        2974.25           2488        1733.00      7554.69
 1061.53        2974.50           2491        1689.00      7362.78
 1061.56        2974.75           2495        1679.00      7319.17
 1061.60        2975.00           2498        1673.00      7293.00
 1061.63        2975.25           2502        1622.00      7070.58
 1061.66        2975.50           2505        1555.00      6778.37
 1061.69        2975.75           2509        1596.00      6957.18
 1061.72        2976.00           2512        1555.00      6778.37
 1061.75        2976.25           2516        1571.00      6848.15
 1061.78        2976.50           2520        1532.00      6678.06
 1061.81        2976.75           2523        1488.00      6486.17
 1061.84        2977.00           2527        1508.00      6573.40
 1061.87        2977.25           2530        1485.00      6473.09
 1061.90        2977.50           2534        1495.00      6516.70
 1061.93        2977.75           2537        1453.00      6333.54
 1061.96        2978.00           2541        1443.00      6289.92
 1061.99        2978.25           2544        1417.00      6176.54
 1062.03        2978.50           2548        1431.00      6237.59
 1062.06        2978.75           2552        1405.00      6124.20
 1062.09        2979.00           2555        1401.00      6106.76
 1062.12        2979.25           2559        1414.00      6163.45
 1062.15        2979.50           2562        1436.00      6259.40
 1062.18        2979.75           2566        1407.00      6132.93
 1062.21        2980.00           2569        1367.00      5958.49
 1062.24        2980.25           2573        1357.00      5914.88
 1062.27        2980.50           2577        1374.00      5989.01
 1062.31        2980.75           2580        1329.00      5792.77
 1062.34        2981.00           2584        1345.00      5862.55
 1062.37        2981.25           2587        1330.00      5797.13
 1062.40        2981.50           2591        1325.00      5775.33
 1062.43        2981.75           2594        1286.00      5605.25
 1062.46        2982.00           2598        1319.00      5749.16
 1062.49        2982.25           2601        1310.00      5709.91
 1062.52        2982.50           2605        1300.00      5666.31
 1062.55        2982.75           2609        1300.00      5666.31
 1062.58        2983.00           2612        1297.00      5653.22
 1062.61        2983.25           2616        1256.00      5474.43
 1062.64        2983.50           2619        1279.00      5574.73
 1062.67        2983.75           2623        1295.00      5644.50
 1062.70        2984.00           2626        1301.00      5670.67
HS scan finished at 17:42:56
end
