************************************************************
  HS Scan of (1) Internal mercury lamp
************************************************************
Integration time is 0.2294 seconds per sample
dh310119Reading 51.44 .94 2.15pr1000
************************************************************
Dead Time -------------------------  3.4E-08 
Number of Cycles Used -------------  4 
Starting Wavelength (Angstroms) ---  2950 
Final Wavelength (Angstoms) -------  2984 
Wavelength Increment (Angstroms) --  .25 
Filter Wheel #1 Position ---------- (1) Ground quartz diffuser (ND=2.32)
Filter Wheel #2 Position ---------- (1) Neutral Density 0.494



************************************************************
HS scan start time = 05:02:42
Dark Count =  .3 


Time (GMT)  Wavelength (Ang)  Step Number  Raw Counts  Counts/Second

  303.60        2950.00           2144        1835.00      8000.00
  303.80        2950.25           2147        1868.00      8143.93
  303.83        2950.50           2151        1805.00      7869.15
  303.86        2950.75           2155        1880.00      8196.27
  303.89        2951.00           2158        1839.00      8017.44
  303.92        2951.25           2162        1829.00      7973.83
  303.95        2951.50           2165        1834.00      7995.64
  303.98        2951.75           2169        1886.00      8222.44
  304.01        2952.00           2172        1868.00      8143.93
  304.04        2952.25           2176        1819.00      7930.21
  304.07        2952.50           2179        1836.00      8004.36
  304.10        2952.75           2183        1892.00      8248.61
  304.13        2953.00           2186        1864.00      8126.48
  304.16        2953.25           2190        1873.00      8165.74
  304.19        2953.50           2193        1933.00      8427.44
  304.22        2953.75           2197        1895.00      8261.69
  304.25        2954.00           2200        1887.00      8226.80
  304.28        2954.25           2204        1871.00      8157.01
  304.32        2954.50           2208        1843.00      8034.89
  304.35        2954.75           2211        1917.00      8357.65
  304.38        2955.00           2215        1934.00      8431.80
  304.41        2955.25           2218        1962.00      8553.93
  304.44        2955.50           2222        1982.00      8641.16
  304.47        2955.75           2225        1937.00      8444.88
  304.51        2956.00           2229        1934.00      8431.80
  304.54        2956.25           2232        1983.00      8645.52
  304.57        2956.50           2236        1994.00      8693.50
  304.60        2956.75           2239        1984.00      8649.88
  304.63        2957.00           2243        1974.00      8606.27
  304.66        2957.25           2246        2041.00      8898.51
  304.69        2957.50           2250        1997.00      8706.59
  304.72        2957.75           2254        2079.00      9064.26
  304.75        2958.00           2257        2080.00      9068.62
  304.78        2958.25           2261        2102.00      9164.58
  304.81        2958.50           2264        2055.00      8959.57
  304.84        2958.75           2268        2149.00      9369.59
  304.87        2959.00           2271        2121.00      9247.46
  304.90        2959.25           2275        2142.00      9339.06
  304.93        2959.50           2278        2145.00      9352.15
  304.96        2959.75           2282        2247.00      9797.07
  304.99        2960.00           2285        2289.00      9980.28
  305.02        2960.25           2289        2223.00      9692.38
  305.06        2960.50           2293        2294.00     10002.09
  305.09        2960.75           2296        2350.00     10246.38
  305.12        2961.00           2300        2527.00     11018.51
  305.15        2961.25           2303        3225.00     14063.83
  305.18        2961.50           2307        9345.00     40791.93
  305.21        2961.75           2310       21339.00     93315.21
  305.24        2962.00           2314       42856.00    188014.50
  305.27        2962.25           2317       60335.00    265394.90
  305.30        2962.50           2321       84160.00    371532.50
  305.33        2962.75           2324      101455.00    449065.50
  305.36        2963.00           2328      126934.00    564043.00
  305.39        2963.25           2331      148406.00    661648.10
  305.42        2963.50           2335      174952.00    783231.10
  305.45        2963.75           2339      199698.00    897495.10
  305.48        2964.00           2342      218263.00    983814.30
  305.51        2964.25           2346      243904.00   1103888.00
  305.54        2964.50           2349      263172.00   1194780.00
  305.58        2964.75           2353      287659.00   1311125.00
  305.61        2965.00           2356      306751.00   1402495.00
  305.64        2965.25           2360      330922.00   1519013.00
  305.67        2965.50           2363      348051.00   1602163.00
  305.70        2965.75           2367      370709.00   1712900.00
  305.73        2966.00           2370      387109.00   1793592.00
  305.76        2966.25           2374      407221.00   1893177.00
  305.79        2966.50           2378      418074.00   1947206.00
  305.82        2966.75           2381      421768.00   1965643.00
  305.85        2967.00           2385      422920.00   1971397.00
  305.88        2967.25           2388      422485.00   1969224.00
  305.91        2967.50           2392      421242.00   1963016.00
  305.94        2967.75           2395      419304.00   1953342.00
  305.97        2968.00           2399      411396.00   1913937.00
  306.00        2968.25           2402      400020.00   1857441.00
  306.03        2968.50           2406      377765.00   1747562.00
  306.07        2968.75           2409      360135.00   1661115.00
  306.10        2969.00           2413      336088.00   1544040.00
  306.13        2969.25           2417      313412.00   1434511.00
  306.16        2969.50           2420      297075.00   1356116.00
  306.19        2969.75           2424      272109.00   1237133.00
  306.22        2970.00           2427      253045.00   1146937.00
  306.25        2970.25           2431      228232.00   1030379.00
  306.28        2970.50           2434      208527.00    938481.90
  306.31        2970.75           2438      183628.00    823189.90
  306.34        2971.00           2441      164045.00    733152.90
  306.37        2971.25           2445      139544.00    621284.80
  306.40        2971.50           2449      115875.00    514026.30
  306.43        2971.75           2452       98260.00    434711.40
  306.46        2972.00           2456       75524.00    332971.10
  306.49        2972.25           2459       58032.00    255176.00
  306.52        2972.50           2463       33320.00    145969.80
  306.55        2972.75           2466       17033.00     74437.06
  306.58        2973.00           2470        5890.00     25696.81
  306.62        2973.25           2473        3433.00     14971.44
  306.65        2973.50           2477        2480.00     10813.48
  306.68        2973.75           2481        2279.00      9936.66
  306.71        2974.00           2484        2286.00      9967.20
  306.74        2974.25           2488        2133.00      9299.80
  306.77        2974.50           2491        2094.00      9129.69
  306.80        2974.75           2495        2072.00      9033.72
  306.83        2975.00           2498        2046.00      8920.32
  306.86        2975.25           2502        2001.00      8724.04
  306.89        2975.50           2505        1988.00      8667.33
  306.92        2975.75           2509        1946.00      8484.14
  306.95        2976.00           2512        1947.00      8488.50
  306.98        2976.25           2516        1882.00      8204.99
  307.01        2976.50           2520        1898.00      8274.78
  307.04        2976.75           2523        1863.00      8122.12
  307.07        2977.00           2527        1795.00      7825.53
  307.10        2977.25           2530        1748.00      7620.55
  307.14        2977.50           2534        1759.00      7668.52
  307.17        2977.75           2537        1742.00      7594.38
  307.20        2978.00           2541        1665.00      7258.55
  307.23        2978.25           2544        1671.00      7284.72
  307.26        2978.50           2548        1612.00      7027.40
  307.29        2978.75           2552        1627.00      7092.82
  307.32        2979.00           2555        1648.00      7184.41
  307.35        2979.25           2559        1598.00      6966.34
  307.38        2979.50           2562        1618.00      7053.57
  307.41        2979.75           2566        1583.00      6900.92
  307.44        2980.00           2569        1544.00      6730.83
  307.47        2980.25           2573        1560.00      6800.61
  307.50        2980.50           2577        1568.00      6835.50
  307.53        2980.75           2580        1548.00      6748.28
  307.56        2981.00           2584        1539.00      6709.03
  307.59        2981.25           2587        1540.00      6713.39
  307.62        2981.50           2591        1512.00      6591.28
  307.66        2981.75           2594        1531.00      6674.14
  307.69        2982.00           2598        1483.00      6464.80
  307.72        2982.25           2601        1522.00      6634.89
  307.75        2982.50           2605        1505.00      6560.75
  307.78        2982.75           2609        1530.00      6669.78
  307.81        2983.00           2612        1476.00      6434.28
  307.84        2983.25           2616        1479.00      6447.36
  307.87        2983.50           2619        1497.00      6525.86
  307.90        2983.75           2623        1517.00      6613.08
  307.93        2984.00           2626        1499.00      6534.58
HS scan finished at 05:08:09
end
************************************************************
  HS Scan of (1) Internal mercury lamp
************************************************************
Integration time is 0.2294 seconds per sample
dh310119Reading 51.44 .94 2.6pr1000
************************************************************
Dead Time -------------------------  3.4E-08 
Number of Cycles Used -------------  4 
Starting Wavelength (Angstroms) ---  2950 
Final Wavelength (Angstoms) -------  2984 
Wavelength Increment (Angstroms) --  .25 
Filter Wheel #1 Position ---------- (1) Ground quartz diffuser (ND=2.32)
Filter Wheel #2 Position ---------- (1) Neutral Density 0.494



************************************************************
HS scan start time = 17:37:28
Dark Count =  .4 


Time (GMT)  Wavelength (Ang)  Step Number  Raw Counts  Counts/Second

 1058.36        2950.00           2144        1340.00      5840.74
 1058.55        2950.25           2147        1402.00      6111.12
 1058.58        2950.50           2151        1359.00      5923.60
 1058.61        2950.75           2155        1357.00      5914.88
 1058.64        2951.00           2158        1366.00      5954.13
 1058.67        2951.25           2162        1375.00      5993.38
 1058.70        2951.50           2165        1343.00      5853.82
 1058.74        2951.75           2169        1408.00      6137.29
 1058.77        2952.00           2172        1374.00      5989.01
 1058.80        2952.25           2176        1404.00      6119.84
 1058.83        2952.50           2179        1375.00      5993.38
 1058.86        2952.75           2183        1357.00      5914.88
 1058.89        2953.00           2186        1406.00      6128.57
 1058.92        2953.25           2190        1348.00      5875.63
 1058.95        2953.50           2193        1428.00      6224.51
 1058.98        2953.75           2197        1366.00      5954.13
 1059.01        2954.00           2200        1411.00      6150.37
 1059.04        2954.25           2204        1427.00      6220.15
 1059.07        2954.50           2208        1425.00      6211.43
 1059.10        2954.75           2211        1418.00      6180.90
 1059.13        2955.00           2215        1412.00      6154.73
 1059.16        2955.25           2218        1460.00      6364.06
 1059.19        2955.50           2222        1443.00      6289.92
 1059.22        2955.75           2225        1433.00      6246.31
 1059.25        2956.00           2229        1446.00      6303.01
 1059.29        2956.25           2232        1449.00      6316.09
 1059.32        2956.50           2236        1472.00      6416.40
 1059.35        2956.75           2239        1490.00      6494.90
 1059.38        2957.00           2243        1431.00      6237.59
 1059.41        2957.25           2246        1465.00      6385.87
 1059.44        2957.50           2250        1462.00      6372.78
 1059.47        2957.75           2254        1546.00      6739.12
 1059.50        2958.00           2257        1540.00      6712.95
 1059.53        2958.25           2261        1539.00      6708.59
 1059.56        2958.50           2264        1549.00      6752.20
 1059.59        2958.75           2268        1527.00      6656.26
 1059.62        2959.00           2271        1602.00      6983.35
 1059.65        2959.25           2275        1614.00      7035.68
 1059.68        2959.50           2278        1587.00      6917.93
 1059.71        2959.75           2282        1642.00      7157.80
 1059.74        2960.00           2285        1632.00      7114.19
 1059.77        2960.25           2289        1674.00      7297.36
 1059.81        2960.50           2293        1650.00      7192.69
 1059.84        2960.75           2296        1708.00      7445.65
 1059.87        2961.00           2300        1765.00      7694.25
 1059.90        2961.25           2303        1980.00      8632.00
 1059.93        2961.50           2307        4013.00     17502.13
 1059.96        2961.75           2310        9748.00     42553.24
 1059.99        2962.00           2314       22003.00     96228.00
 1060.02        2962.25           2317       32773.00    143561.30
 1060.05        2962.50           2321       49257.00    216304.20
 1060.08        2962.75           2324       63487.00    279392.10
 1060.11        2963.00           2328       82660.00    364827.00
 1060.14        2963.25           2331       97752.00    432430.00
 1060.17        2963.50           2335      116254.00    515737.20
 1060.20        2963.75           2339      134349.00    597674.90
 1060.23        2964.00           2342      147594.00    657944.60
 1060.26        2964.25           2346      167472.00    748868.50
 1060.29        2964.50           2349      181945.00    815429.50
 1060.33        2964.75           2353      200762.00    902427.90
 1060.36        2965.00           2356      213026.00    959411.80
 1060.39        2965.25           2360      230299.00   1040053.00
 1060.42        2965.50           2363      241690.00   1093480.00
 1060.45        2965.75           2367      257687.00   1168847.00
 1060.48        2966.00           2370      271149.00   1232577.00
 1060.52        2966.25           2374      289084.00   1317925.00
 1060.55        2966.50           2378      303405.00   1386440.00
 1060.58        2966.75           2381      308272.00   1409799.00
 1060.61        2967.00           2385      311149.00   1423625.00
 1060.64        2967.25           2388      311645.00   1426010.00
 1060.67        2967.50           2392      311629.00   1425933.00
 1060.70        2967.75           2395      311490.00   1425265.00
 1060.73        2968.00           2399      310451.00   1420270.00
 1060.76        2968.25           2402      305028.00   1394225.00
 1060.79        2968.50           2406      291126.00   1327674.00
 1060.82        2968.75           2409      278714.00   1268515.00
 1060.85        2969.00           2413      262358.00   1190928.00
 1060.88        2969.25           2417      247856.00   1122483.00
 1060.91        2969.50           2420      234550.00   1059968.00
 1060.94        2969.75           2424      216159.00    974005.20
 1060.97        2970.00           2427      201151.00    904231.90
 1061.00        2970.25           2431      181956.00    815480.20
 1061.04        2970.50           2434      167779.00    750277.20
 1061.07        2970.75           2438      150570.00    671521.00
 1061.10        2971.00           2441      136579.00    607804.80
 1061.13        2971.25           2445      116563.00    517132.50
 1061.16        2971.50           2449       95781.00    423583.20
 1061.19        2971.75           2452       79322.00    349917.00
 1061.22        2972.00           2456       60129.00    264480.10
 1061.25        2972.25           2459       47332.00    207790.70
 1061.28        2972.50           2463       30413.00    133176.20
 1061.31        2972.75           2466       18688.00     81689.52
 1061.34        2973.00           2470        7153.00     31212.71
 1061.37        2973.25           2473        3449.00     15040.82
 1061.40        2973.50           2477        2011.00      8767.22
 1061.43        2973.75           2481        1768.00      7707.34
 1061.46        2974.00           2484        1716.00      7480.54
 1061.49        2974.25           2488        1681.00      7327.89
 1061.52        2974.50           2491        1688.00      7358.42
 1061.56        2974.75           2495        1581.00      6891.76
 1061.59        2975.00           2498        1646.00      7175.25
 1061.62        2975.25           2502        1578.00      6878.68
 1061.65        2975.50           2505        1553.00      6769.65
 1061.68        2975.75           2509        1549.00      6752.20
 1061.71        2976.00           2512        1547.00      6743.48
 1061.74        2976.25           2516        1490.00      6494.90
 1061.77        2976.50           2520        1556.00      6782.73
 1061.80        2976.75           2523        1522.00      6634.45
 1061.83        2977.00           2527        1445.00      6298.65
 1061.86        2977.25           2530        1471.00      6412.03
 1061.89        2977.50           2534        1440.00      6276.84
 1061.92        2977.75           2537        1461.00      6368.42
 1061.95        2978.00           2541        1431.00      6237.59
 1061.98        2978.25           2544        1417.00      6176.54
 1062.01        2978.50           2548        1437.00      6263.76
 1062.04        2978.75           2552        1444.00      6294.28
 1062.08        2979.00           2555        1386.00      6041.35
 1062.11        2979.25           2559        1430.00      6233.23
 1062.14        2979.50           2562        1379.00      6010.82
 1062.17        2979.75           2566        1370.00      5971.57
 1062.20        2980.00           2569        1327.00      5784.05
 1062.23        2980.25           2573        1372.00      5980.29
 1062.26        2980.50           2577        1344.00      5858.19
 1062.29        2980.75           2580        1339.00      5836.38
 1062.32        2981.00           2584        1321.00      5757.88
 1062.35        2981.25           2587        1354.00      5901.79
 1062.38        2981.50           2591        1319.00      5749.16
 1062.41        2981.75           2594        1355.00      5906.16
 1062.44        2982.00           2598        1307.00      5696.83
 1062.47        2982.25           2601        1328.00      5788.41
 1062.50        2982.50           2605        1273.00      5548.56
 1062.53        2982.75           2609        1279.00      5574.73
 1062.56        2983.00           2612        1331.00      5801.49
 1062.59        2983.25           2616        1268.00      5526.76
 1062.63        2983.50           2619        1293.00      5635.78
 1062.66        2983.75           2623        1314.00      5727.36
 1062.69        2984.00           2626        1233.00      5374.13
HS scan finished at 17:42:55
end
