************************************************************
  HS Scan of (1) Internal mercury lamp
************************************************************
Integration time is 0.2294 seconds per sample
dh050219Reading 51.44 .94 2.76pr1000
************************************************************
Dead Time -------------------------  3.4E-08 
Number of Cycles Used -------------  4 
Starting Wavelength (Angstroms) ---  2950 
Final Wavelength (Angstoms) -------  2984 
Wavelength Increment (Angstroms) --  .25 
Filter Wheel #1 Position ---------- (1) Ground quartz diffuser (ND=2.32)
Filter Wheel #2 Position ---------- (1) Neutral Density 0.494



************************************************************
HS scan start time = 04:53:00
Dark Count =  .6 


Time (GMT)  Wavelength (Ang)  Step Number  Raw Counts  Counts/Second

  293.90        2950.00           2144        1608.00      7008.65
  294.10        2950.25           2147        1626.00      7087.15
  294.13        2950.50           2151        1687.00      7353.19
  294.16        2950.75           2155        1659.00      7231.07
  294.19        2951.00           2158        1643.00      7161.29
  294.22        2951.25           2162        1672.00      7287.77
  294.25        2951.50           2165        1637.00      7135.12
  294.28        2951.75           2169        1636.00      7130.76
  294.31        2952.00           2172        1614.00      7034.81
  294.34        2952.25           2176        1633.00      7117.68
  294.37        2952.50           2179        1688.00      7357.55
  294.40        2952.75           2183        1675.00      7300.85
  294.43        2953.00           2186        1662.00      7244.16
  294.46        2953.25           2190        1653.00      7204.90
  294.49        2953.50           2193        1648.00      7183.10
  294.53        2953.75           2197        1663.00      7248.52
  294.56        2954.00           2200        1719.00      7492.75
  294.59        2954.25           2204        1685.00      7344.47
  294.62        2954.50           2208        1709.00      7449.14
  294.65        2954.75           2211        1736.00      7566.90
  294.68        2955.00           2215        1744.00      7601.79
  294.71        2955.25           2218        1711.00      7457.86
  294.74        2955.50           2222        1722.00      7505.84
  294.77        2955.75           2225        1744.00      7601.79
  294.80        2956.00           2229        1748.00      7619.24
  294.83        2956.25           2232        1756.00      7654.13
  294.86        2956.50           2236        1798.00      7837.31
  294.89        2956.75           2239        1817.00      7920.18
  294.92        2957.00           2243        1793.00      7815.50
  294.95        2957.25           2246        1813.00      7902.73
  294.98        2957.50           2250        1875.00      8173.15
  295.01        2957.75           2254        1841.00      8024.86
  295.04        2958.00           2257        1859.00      8103.37
  295.08        2958.25           2261        1885.00      8216.77
  295.11        2958.50           2264        1866.00      8133.90
  295.14        2958.75           2268        1927.00      8399.96
  295.17        2959.00           2271        1934.00      8430.49
  295.20        2959.25           2275        1916.00      8351.98
  295.23        2959.50           2278        1942.00      8465.38
  295.26        2959.75           2282        2017.00      8792.51
  295.29        2960.00           2285        2020.00      8805.60
  295.32        2960.25           2289        2047.00      8923.37
  295.35        2960.50           2293        2116.00      9224.34
  295.38        2960.75           2296        2129.00      9281.04
  295.41        2961.00           2300        2327.00     10144.74
  295.44        2961.25           2303        3261.00     14219.60
  295.47        2961.50           2307       10670.00     46583.75
  295.50        2961.75           2310       21666.00     94748.51
  295.53        2962.00           2314       40573.00    177936.40
  295.56        2962.25           2317       55955.00    245964.70
  295.60        2962.50           2321       77755.00    342921.90
  295.63        2962.75           2324       93780.00    414606.50
  295.66        2963.00           2328      115769.00    513546.40
  295.69        2963.25           2331      135259.00    601806.90
  295.72        2963.50           2335      161687.00    722347.80
  295.75        2963.75           2339      187696.00    841962.20
  295.78        2964.00           2342      206199.00    927662.10
  295.81        2964.25           2346      230320.00   1040150.00
  295.84        2964.50           2349      246210.00   1114734.00
  295.87        2964.75           2353      268255.00   1218852.00
  295.90        2965.00           2356      286102.00   1303698.00
  295.93        2965.25           2360      308312.00   1409990.00
  295.96        2965.50           2363      324580.00   1488348.00
  295.99        2965.75           2367      346095.00   1592642.00
  296.02        2966.00           2370      361623.00   1668389.00
  296.05        2966.25           2374      378525.00   1751299.00
  296.08        2966.50           2378      393712.00   1826209.00
  296.12        2966.75           2381      397840.00   1846638.00
  296.15        2967.00           2385      399933.00   1857008.00
  296.18        2967.25           2388      400106.00   1857866.00
  296.21        2967.50           2392      399311.00   1853926.00
  296.24        2967.75           2395      399277.00   1853757.00
  296.27        2968.00           2399      393130.00   1823331.00
  296.30        2968.25           2402      383233.00   1774479.00
  296.33        2968.50           2406      364619.00   1683051.00
  296.36        2968.75           2409      347683.00   1600370.00
  296.39        2969.00           2413      324426.00   1487605.00
  296.42        2969.25           2417      299693.00   1368648.00
  296.45        2969.50           2420      281098.00   1279858.00
  296.48        2969.75           2424      258989.00   1174998.00
  296.51        2970.00           2427      241419.00   1092206.00
  296.54        2970.25           2431      216111.00    973780.60
  296.57        2970.50           2434      198204.00    890569.60
  296.60        2970.75           2438      172381.00    771409.80
  296.64        2971.00           2441      153368.00    684296.00
  296.67        2971.25           2445      130843.00    581762.10
  296.70        2971.50           2449      107988.00    478458.90
  296.73        2971.75           2452       90622.00    400452.00
  296.76        2972.00           2456       65245.00    287204.20
  296.79        2972.25           2459       47366.00    207940.10
  296.82        2972.50           2463       24692.00    108030.80
  296.85        2972.75           2466       12174.00     53162.27
  296.88        2973.00           2470        4583.00     19989.17
  296.91        2973.25           2473        2760.00     12033.69
  296.94        2973.50           2477        2218.00      9669.26
  296.97        2973.75           2481        2124.00      9259.23
  297.00        2974.00           2484        2054.00      8953.90
  297.03        2974.25           2488        2043.00      8905.92
  297.06        2974.50           2491        1981.00      8635.49
  297.09        2974.75           2495        1967.00      8574.43
  297.12        2975.00           2498        1949.00      8495.92
  297.16        2975.25           2502        1963.00      8556.98
  297.19        2975.50           2505        1916.00      8351.98
  297.22        2975.75           2509        1921.00      8373.79
  297.25        2976.00           2512        1816.00      7915.82
  297.28        2976.25           2516        1856.00      8090.28
  297.31        2976.50           2520        1871.00      8155.70
  297.34        2976.75           2523        1789.00      7798.06
  297.37        2977.00           2527        1805.00      7867.84
  297.40        2977.25           2530        1786.00      7784.97
  297.43        2977.50           2534        1782.00      7767.53
  297.46        2977.75           2537        1719.00      7492.75
  297.49        2978.00           2541        1722.00      7505.84
  297.52        2978.25           2544        1682.00      7331.38
  297.55        2978.50           2548        1667.00      7265.96
  297.58        2978.75           2552        1682.00      7331.38
  297.61        2979.00           2555        1697.00      7396.80
  297.64        2979.25           2559        1628.00      7095.87
  297.67        2979.50           2562        1653.00      7204.90
  297.71        2979.75           2566        1667.00      7265.96
  297.74        2980.00           2569        1625.00      7082.79
  297.77        2980.25           2573        1598.00      6965.03
  297.80        2980.50           2577        1609.00      7013.01
  297.83        2980.75           2580        1585.00      6908.34
  297.86        2981.00           2584        1612.00      7026.09
  297.89        2981.25           2587        1589.00      6925.78
  297.92        2981.50           2591        1572.00      6851.64
  297.95        2981.75           2594        1588.00      6921.42
  297.98        2982.00           2598        1579.00      6882.17
  298.01        2982.25           2601        1566.00      6825.47
  298.04        2982.50           2605        1549.00      6751.33
  298.07        2982.75           2609        1527.00      6655.39
  298.10        2983.00           2612        1531.00      6672.83
  298.13        2983.25           2616        1553.00      6768.78
  298.16        2983.50           2619        1501.00      6542.00
  298.20        2983.75           2623        1569.00      6838.56
  298.23        2984.00           2626        1557.00      6786.22
HS scan finished at 04:58:27
end
************************************************************
  HS Scan of (1) Internal mercury lamp
************************************************************
Integration time is 0.2294 seconds per sample
dh050219Reading 51.44 .94 2.84pr1000
************************************************************
Dead Time -------------------------  3.4E-08 
Number of Cycles Used -------------  4 
Starting Wavelength (Angstroms) ---  2950 
Final Wavelength (Angstoms) -------  2984 
Wavelength Increment (Angstroms) --  .25 
Filter Wheel #1 Position ---------- (1) Ground quartz diffuser (ND=2.32)
Filter Wheel #2 Position ---------- (1) Neutral Density 0.494



************************************************************
HS scan start time = 18:07:17
Dark Count =  .5 


Time (GMT)  Wavelength (Ang)  Step Number  Raw Counts  Counts/Second

 1088.19        2950.00           2144        1559.00      6795.38
 1088.38        2950.25           2147        1524.00      6642.74
 1088.41        2950.50           2151        1524.00      6642.74
 1088.44        2950.75           2155        1546.00      6738.68
 1088.47        2951.00           2158        1592.00      6939.30
 1088.50        2951.25           2162        1569.00      6838.99
 1088.54        2951.50           2165        1528.00      6660.18
 1088.57        2951.75           2169        1602.00      6982.91
 1088.60        2952.00           2172        1556.00      6782.30
 1088.63        2952.25           2176        1565.00      6821.55
 1088.66        2952.50           2179        1564.00      6817.19
 1088.69        2952.75           2183        1599.00      6969.83
 1088.72        2953.00           2186        1566.00      6825.91
 1088.75        2953.25           2190        1580.00      6886.97
 1088.78        2953.50           2193        1613.00      7030.89
 1088.81        2953.75           2197        1629.00      7100.67
 1088.84        2954.00           2200        1582.00      6895.69
 1088.87        2954.25           2204        1630.00      7105.03
 1088.90        2954.50           2208        1608.00      7009.08
 1088.93        2954.75           2211        1630.00      7105.03
 1088.96        2955.00           2215        1673.00      7292.57
 1088.99        2955.25           2218        1643.00      7161.73
 1089.02        2955.50           2222        1679.00      7318.74
 1089.06        2955.75           2225        1633.00      7118.11
 1089.09        2956.00           2229        1646.00      7174.81
 1089.12        2956.25           2232        1724.00      7515.00
 1089.15        2956.50           2236        1676.00      7305.65
 1089.18        2956.75           2239        1681.00      7327.46
 1089.21        2957.00           2243        1735.00      7562.97
 1089.24        2957.25           2246        1695.00      7388.52
 1089.27        2957.50           2250        1695.00      7388.52
 1089.30        2957.75           2254        1713.00      7467.02
 1089.33        2958.00           2257        1708.00      7445.22
 1089.36        2958.25           2261        1764.00      7689.46
 1089.39        2958.50           2264        1779.00      7754.88
 1089.42        2958.75           2268        1782.00      7767.96
 1089.45        2959.00           2271        1826.00      7959.87
 1089.48        2959.25           2275        1824.00      7951.15
 1089.51        2959.50           2278        1828.00      7968.59
 1089.54        2959.75           2282        1889.00      8234.65
 1089.58        2960.00           2285        1868.00      8143.06
 1089.61        2960.25           2289        1901.00      8286.99
 1089.64        2960.50           2293        1972.00      8596.67
 1089.67        2960.75           2296        1977.00      8618.48
 1089.70        2961.00           2300        2062.00      8989.23
 1089.73        2961.25           2303        2424.00     10568.31
 1089.76        2961.50           2307        6203.00     27062.82
 1089.79        2961.75           2310       14209.00     62068.51
 1089.82        2962.00           2314       29939.00    131090.80
 1089.85        2962.25           2317       44996.00    197465.60
 1089.88        2962.50           2321       65705.00    289249.60
 1089.91        2962.75           2324       81818.00    361064.10
 1089.94        2963.00           2328      104099.00    460954.00
 1089.97        2963.25           2331      120997.00    537169.40
 1090.00        2963.50           2335      143985.00    641497.10
 1090.03        2963.75           2339      167535.00    749157.20
 1090.06        2964.00           2342      184162.00    825652.00
 1090.10        2964.25           2346      205250.00    923254.60
 1090.13        2964.50           2349      221159.00    997325.00
 1090.16        2964.75           2353      242948.00   1099392.00
 1090.19        2965.00           2356      259162.00   1175816.00
 1090.22        2965.25           2360      280692.00   1277926.00
 1090.25        2965.50           2363      298105.00   1361045.00
 1090.28        2965.75           2367      317771.00   1455500.00
 1090.31        2966.00           2370      331287.00   1520779.00
 1090.34        2966.25           2374      351564.00   1619275.00
 1090.37        2966.50           2378      369131.00   1705159.00
 1090.40        2966.75           2381      375392.00   1735894.00
 1090.43        2967.00           2385      378298.00   1750182.00
 1090.46        2967.25           2388      378927.00   1753277.00
 1090.49        2967.50           2392      378952.00   1753400.00
 1090.52        2967.75           2395      378095.00   1749184.00
 1090.55        2968.00           2399      375334.00   1735609.00
 1090.58        2968.25           2402      369242.00   1705704.00
 1090.61        2968.50           2406      353691.00   1629646.00
 1090.65        2968.75           2409      338623.00   1556336.00
 1090.68        2969.00           2413      315712.00   1445581.00
 1090.71        2969.25           2417      292936.00   1336321.00
 1090.74        2969.50           2420      278252.00   1266317.00
 1090.77        2969.75           2424      256673.00   1164057.00
 1090.80        2970.00           2427      239453.00   1082972.00
 1090.83        2970.25           2431      215762.00    972154.80
 1090.86        2970.50           2434      196176.00    881176.30
 1090.89        2970.75           2438      173123.00    774820.50
 1090.92        2971.00           2441      155473.00    693915.50
 1090.95        2971.25           2445      133439.00    593542.80
 1090.98        2971.50           2449      111690.00    495142.50
 1091.01        2971.75           2452       95161.00    420801.10
 1091.04        2972.00           2456       72716.00    320453.80
 1091.07        2972.25           2459       54115.00    237810.90
 1091.10        2972.50           2463       31987.00    140101.30
 1091.14        2972.75           2466       18243.00     79738.56
 1091.17        2973.00           2470        6526.00     28473.50
 1091.20        2973.25           2473        3279.00     14298.58
 1091.23        2973.50           2477        2228.00      9713.32
 1091.26        2973.75           2481        2093.00      9124.45
 1091.29        2974.00           2484        1986.00      8657.74
 1091.32        2974.25           2488        2018.00      8797.31
 1091.35        2974.50           2491        1929.00      8409.12
 1091.38        2974.75           2495        1895.00      8260.82
 1091.41        2975.00           2498        1896.00      8265.18
 1091.44        2975.25           2502        1896.00      8265.18
 1091.47        2975.50           2505        1867.00      8138.70
 1091.50        2975.75           2509        1833.00      7990.40
 1091.53        2976.00           2512        1759.00      7667.65
 1091.56        2976.25           2516        1772.00      7724.35
 1091.59        2976.50           2520        1705.00      7432.13
 1091.62        2976.75           2523        1709.00      7449.58
 1091.66        2977.00           2527        1707.00      7440.85
 1091.69        2977.25           2530        1665.00      7257.68
 1091.72        2977.50           2534        1673.00      7292.57
 1091.75        2977.75           2537        1677.00      7310.01
 1091.78        2978.00           2541        1601.00      6978.55
 1091.81        2978.25           2544        1624.00      7078.86
 1091.84        2978.50           2548        1598.00      6965.47
 1091.87        2978.75           2552        1627.00      7091.95
 1091.90        2979.00           2555        1587.00      6917.49
 1091.93        2979.25           2559        1586.00      6913.13
 1091.96        2979.50           2562        1599.00      6969.83
 1091.99        2979.75           2566        1599.00      6969.83
 1092.02        2980.00           2569        1528.00      6660.18
 1092.05        2980.25           2573        1540.00      6712.52
 1092.08        2980.50           2577        1524.00      6642.74
 1092.11        2980.75           2580        1520.00      6625.29
 1092.14        2981.00           2584        1526.00      6651.46
 1092.17        2981.25           2587        1526.00      6651.46
 1092.21        2981.50           2591        1515.00      6603.49
 1092.24        2981.75           2594        1497.00      6524.99
 1092.27        2982.00           2598        1499.00      6533.71
 1092.30        2982.25           2601        1463.00      6376.71
 1092.33        2982.50           2605        1499.00      6533.71
 1092.36        2982.75           2609        1477.00      6437.76
 1092.39        2983.00           2612        1422.00      6197.91
 1092.42        2983.25           2616        1441.00      6280.77
 1092.45        2983.50           2619        1481.00      6455.21
 1092.48        2983.75           2623        1468.00      6398.51
 1092.51        2984.00           2626        1469.00      6402.88
HS scan finished at 18:12:44
end
