************************************************************
  HS Scan of (1) Internal mercury lamp
************************************************************
Integration time is 0.2294 seconds per sample
dh040219Reading 51.44 .94 2.68pr1000
************************************************************
Dead Time -------------------------  3.4E-08 
Number of Cycles Used -------------  4 
Starting Wavelength (Angstroms) ---  2950 
Final Wavelength (Angstoms) -------  2984 
Wavelength Increment (Angstroms) --  .25 
Filter Wheel #1 Position ---------- (1) Ground quartz diffuser (ND=2.32)
Filter Wheel #2 Position ---------- (1) Neutral Density 0.494



************************************************************
HS scan start time = 04:54:26
Dark Count =  .5 


Time (GMT)  Wavelength (Ang)  Step Number  Raw Counts  Counts/Second

  295.33        2950.00           2144        1605.00      6996.00
  295.53        2950.25           2147        1619.00      7057.05
  295.56        2950.50           2151        1639.00      7144.28
  295.59        2950.75           2155        1706.00      7436.49
  295.62        2951.00           2158        1624.00      7078.86
  295.65        2951.25           2162        1642.00      7157.37
  295.68        2951.50           2165        1642.00      7157.37
  295.71        2951.75           2169        1631.00      7109.39
  295.74        2952.00           2172        1641.00      7153.00
  295.77        2952.25           2176        1697.00      7397.24
  295.80        2952.50           2179        1663.00      7248.95
  295.83        2952.75           2183        1680.00      7323.10
  295.86        2953.00           2186        1675.00      7301.29
  295.89        2953.25           2190        1672.00      7288.21
  295.92        2953.50           2193        1683.00      7336.18
  295.96        2953.75           2197        1668.00      7270.76
  295.99        2954.00           2200        1678.00      7314.37
  296.02        2954.25           2204        1685.00      7344.90
  296.05        2954.50           2208        1684.00      7340.54
  296.08        2954.75           2211        1744.00      7602.23
  296.11        2955.00           2215        1722.00      7506.27
  296.14        2955.25           2218        1671.00      7283.84
  296.17        2955.50           2222        1738.00      7576.06
  296.20        2955.75           2225        1742.00      7593.50
  296.23        2956.00           2229        1783.00      7772.32
  296.26        2956.25           2232        1745.00      7606.59
  296.29        2956.50           2236        1754.00      7645.84
  296.32        2956.75           2239        1802.00      7855.19
  296.35        2957.00           2243        1820.00      7933.70
  296.38        2957.25           2246        1777.00      7746.16
  296.41        2957.50           2250        1831.00      7981.68
  296.44        2957.75           2254        1831.00      7981.68
  296.48        2958.00           2257        1818.00      7924.98
  296.52        2958.25           2261        1861.00      8112.53
  296.55        2958.50           2264        1883.00      8208.48
  296.58        2958.75           2268        1869.00      8147.42
  296.61        2959.00           2271        1907.00      8313.16
  296.64        2959.25           2275        1972.00      8596.67
  296.67        2959.50           2278        1957.00      8531.25
  296.70        2959.75           2282        2012.00      8771.14
  296.73        2960.00           2285        2010.00      8762.42
  296.76        2960.25           2289        2003.00      8731.89
  296.79        2960.50           2293        2081.00      9072.11
  296.82        2960.75           2296        2128.00      9277.12
  296.85        2961.00           2300        2153.00      9386.17
  296.88        2961.25           2303        2452.00     10690.46
  296.91        2961.50           2307        4839.00     21107.12
  296.94        2961.75           2310       12494.00     54562.77
  296.97        2962.00           2314       28841.00    126262.30
  297.01        2962.25           2317       41120.00    180350.60
  297.04        2962.50           2321       61312.00    269731.40
  297.07        2962.75           2324       79893.00    352465.90
  297.10        2963.00           2328      106283.00    470782.10
  297.13        2963.25           2331      124116.00    551280.80
  297.16        2963.50           2335      149513.00    666697.10
  297.19        2963.75           2339      173443.00    776291.50
  297.22        2964.00           2342      194545.00    873626.00
  297.25        2964.25           2346      219900.00    991449.40
  297.28        2964.50           2349      237189.00   1072345.00
  297.31        2964.75           2353      259089.00   1175471.00
  297.34        2965.00           2356      275945.00   1255350.00
  297.37        2965.25           2360      298712.00   1363951.00
  297.40        2965.50           2363      315776.00   1445889.00
  297.43        2965.75           2367      337323.00   1550028.00
  297.46        2966.00           2370      352586.00   1624257.00
  297.49        2966.25           2374      371031.00   1714479.00
  297.53        2966.50           2378      385498.00   1785645.00
  297.56        2966.75           2381      389361.00   1804707.00
  297.59        2967.00           2385      392318.00   1819317.00
  297.62        2967.25           2388      392088.00   1818180.00
  297.65        2967.50           2392      392158.00   1818526.00
  297.68        2967.75           2395      390702.00   1811331.00
  297.71        2968.00           2399      380386.00   1760457.00
  297.74        2968.25           2402      339684.00   1561485.00
  297.77        2968.50           2406      355259.00   1637297.00
  297.80        2968.75           2409      339416.00   1560185.00
  297.83        2969.00           2413      317188.00   1452691.00
  297.86        2969.25           2417      295935.00   1350660.00
  297.89        2969.50           2420      280594.00   1277460.00
  297.92        2969.75           2424      260004.00   1179795.00
  297.95        2970.00           2427      244469.00   1106544.00
  297.98        2970.25           2431      219533.00    989737.20
  298.01        2970.50           2434      200612.00    901731.80
  298.05        2970.75           2438      173429.00    776227.20
  298.08        2971.00           2441      154603.00    689939.20
  298.11        2971.25           2445      131998.00    587002.50
  298.14        2971.50           2449      109656.00    485973.90
  298.17        2971.75           2452       92843.00    410405.80
  298.20        2972.00           2456       70032.00    308500.10
  298.23        2972.25           2459       51767.00    227412.00
  298.26        2972.50           2463       30874.00    135203.80
  298.29        2972.75           2466       17125.00     74839.28
  298.32        2973.00           2470        6070.00     26481.99
  298.35        2973.25           2473        3364.00     14669.48
  298.38        2973.50           2477        2312.00     10079.74
  298.41        2973.75           2481        2172.00      9469.05
  298.44        2974.00           2484        2090.00      9111.37
  298.47        2974.25           2488        2079.00      9063.39
  298.50        2974.50           2491        1994.00      8692.63
  298.53        2974.75           2495        1976.00      8614.12
  298.57        2975.00           2498        1917.00      8356.78
  298.60        2975.25           2502        1915.00      8348.05
  298.63        2975.50           2505        1889.00      8234.65
  298.66        2975.75           2509        1899.00      8278.27
  298.69        2976.00           2512        1863.00      8121.25
  298.72        2976.25           2516        1821.00      7938.06
  298.75        2976.50           2520        1825.00      7955.51
  298.78        2976.75           2523        1805.00      7868.28
  298.81        2977.00           2527        1757.00      7658.93
  298.84        2977.25           2530        1758.00      7663.29
  298.87        2977.50           2534        1732.00      7549.89
  298.90        2977.75           2537        1715.00      7475.74
  298.93        2978.00           2541        1703.00      7423.41
  298.96        2978.25           2544        1761.00      7676.37
  298.99        2978.50           2548        1716.00      7480.11
  299.02        2978.75           2552        1688.00      7357.99
  299.05        2979.00           2555        1666.00      7262.04
  299.09        2979.25           2559        1655.00      7214.06
  299.12        2979.50           2562        1630.00      7105.03
  299.15        2979.75           2566        1654.00      7209.70
  299.18        2980.00           2569        1653.00      7205.34
  299.21        2980.25           2573        1638.00      7139.92
  299.24        2980.50           2577        1644.00      7166.09
  299.27        2980.75           2580        1590.00      6930.58
  299.30        2981.00           2584        1627.00      7091.95
  299.33        2981.25           2587        1562.00      6808.46
  299.36        2981.50           2591        1586.00      6913.13
  299.39        2981.75           2594        1601.00      6978.55
  299.42        2982.00           2598        1572.00      6852.08
  299.45        2982.25           2601        1545.00      6734.32
  299.48        2982.50           2605        1553.00      6769.21
  299.51        2982.75           2609        1567.00      6830.27
  299.54        2983.00           2612        1535.00      6690.71
  299.57        2983.25           2616        1545.00      6734.32
  299.61        2983.50           2619        1551.00      6760.49
  299.64        2983.75           2623        1527.00      6655.82
  299.67        2984.00           2626        1503.00      6551.15
HS scan finished at 04:59:53
end
************************************************************
  HS Scan of (1) Internal mercury lamp
************************************************************
Integration time is 0.2294 seconds per sample
dh040219Reading 51.44 .94 3pr1000
************************************************************
Dead Time -------------------------  3.4E-08 
Number of Cycles Used -------------  4 
Starting Wavelength (Angstroms) ---  2950 
Final Wavelength (Angstoms) -------  2984 
Wavelength Increment (Angstroms) --  .25 
Filter Wheel #1 Position ---------- (1) Ground quartz diffuser (ND=2.32)
Filter Wheel #2 Position ---------- (1) Neutral Density 0.494



************************************************************
HS scan start time = 18:07:19
Dark Count =  .9 


Time (GMT)  Wavelength (Ang)  Step Number  Raw Counts  Counts/Second

 1088.22        2950.00           2144        1099.00      4787.61
 1088.41        2950.25           2147        1147.00      4996.93
 1088.44        2950.50           2151        1133.00      4935.88
 1088.47        2950.75           2155        1142.00      4975.12
 1088.50        2951.00           2158        1133.00      4935.88
 1088.53        2951.25           2162        1149.00      5005.65
 1088.56        2951.50           2165        1127.00      4909.71
 1088.59        2951.75           2169        1168.00      5088.50
 1088.62        2952.00           2172        1147.00      4996.93
 1088.65        2952.25           2176        1172.00      5105.94
 1088.68        2952.50           2179        1158.00      5044.89
 1088.72        2952.75           2183        1171.00      5101.58
 1088.75        2953.00           2186        1142.00      4975.12
 1088.78        2953.25           2190        1136.00      4948.96
 1088.81        2953.50           2193        1179.00      5136.47
 1088.84        2953.75           2197        1177.00      5127.75
 1088.87        2954.00           2200        1143.00      4979.48
 1088.90        2954.25           2204        1202.00      5236.77
 1088.93        2954.50           2208        1168.00      5088.50
 1088.96        2954.75           2211        1212.00      5280.37
 1088.99        2955.00           2215        1198.00      5219.32
 1089.02        2955.25           2218        1221.00      5319.62
 1089.05        2955.50           2222        1197.00      5214.96
 1089.08        2955.75           2225        1200.00      5228.04
 1089.11        2956.00           2229        1230.00      5358.87
 1089.14        2956.25           2232        1253.00      5459.17
 1089.17        2956.50           2236        1206.00      5254.21
 1089.20        2956.75           2239        1263.00      5502.77
 1089.24        2957.00           2243        1235.00      5380.67
 1089.27        2957.25           2246        1307.00      5694.65
 1089.30        2957.50           2250        1247.00      5433.00
 1089.33        2957.75           2254        1289.00      5616.16
 1089.36        2958.00           2257        1299.00      5659.76
 1089.39        2958.25           2261        1280.00      5576.91
 1089.42        2958.50           2264        1289.00      5616.16
 1089.45        2958.75           2268        1316.00      5733.90
 1089.48        2959.00           2271        1309.00      5703.37
 1089.52        2959.25           2275        1365.00      5947.58
 1089.55        2959.50           2278        1349.00      5877.81
 1089.58        2959.75           2282        1421.00      6191.80
 1089.61        2960.00           2285        1392.00      6065.33
 1089.64        2960.25           2289        1433.00      6244.13
 1089.67        2960.50           2293        1484.00      6466.55
 1089.70        2960.75           2296        1534.00      6684.61
 1089.73        2961.00           2300        1558.00      6789.27
 1089.76        2961.25           2303        1786.00      7783.66
 1089.79        2961.50           2307        4540.00     19800.16
 1089.82        2961.75           2310       10808.00     47185.93
 1089.85        2962.00           2314       23596.00    103217.30
 1089.88        2962.25           2317       35890.00    157286.60
 1089.91        2962.50           2321       53847.00    236621.90
 1089.95        2962.75           2324       67397.00    296772.40
 1089.98        2963.00           2328       85318.00    376708.30
 1090.01        2963.25           2331       98560.00    436055.90
 1090.04        2963.50           2335      116427.00    516516.10
 1090.07        2963.75           2339      134389.00    597854.20
 1090.10        2964.00           2342      148264.00    660997.70
 1090.13        2964.25           2346      168412.00    753180.00
 1090.16        2964.50           2349      182306.00    817091.30
 1090.19        2964.75           2353      199330.00    895786.40
 1090.22        2965.00           2356      212496.00    956942.20
 1090.25        2965.25           2360      229045.00   1034181.00
 1090.28        2965.50           2363      240199.00   1086473.00
 1090.31        2965.75           2367      257028.00   1165732.00
 1090.34        2966.00           2370      270026.00   1227248.00
 1090.37        2966.25           2374      286443.00   1305322.00
 1090.40        2966.50           2378      297625.00   1358745.00
 1090.43        2966.75           2381      301600.00   1377784.00
 1090.47        2967.00           2385      302723.00   1383167.00
 1090.50        2967.25           2388      303392.00   1386375.00
 1090.53        2967.50           2392      303037.00   1384673.00
 1090.56        2967.75           2395      302940.00   1384207.00
 1090.59        2968.00           2399      299701.00   1368685.00
 1090.62        2968.25           2402      293108.00   1337141.00
 1090.65        2968.50           2406      279461.00   1272066.00
 1090.68        2968.75           2409      268449.00   1219770.00
 1090.71        2969.00           2413      251963.00   1141832.00
 1090.74        2969.25           2417      234950.00   1061841.00
 1090.77        2969.50           2420      222437.00   1003290.00
 1090.80        2969.75           2424      204736.00    920865.90
 1090.83        2970.00           2427      191190.00    858105.20
 1090.86        2970.25           2431      172711.00    772925.00
 1090.89        2970.50           2434      159222.00    711060.80
 1090.92        2970.75           2438      142045.00    632661.90
 1090.95        2971.00           2441      127571.00    566926.50
 1090.99        2971.25           2445      107972.00    478385.50
 1091.02        2971.50           2449       89048.00    393400.90
 1091.05        2971.75           2452       75951.00    334872.70
 1091.08        2972.00           2456       58911.00    259072.80
 1091.11        2972.25           2459       46180.00    202696.00
 1091.14        2972.50           2463       28119.00    123086.40
 1091.17        2972.75           2466       15969.00     69773.44
 1091.20        2973.00           2470        5178.00     22585.34
 1091.23        2973.25           2473        2464.00     10741.06
 1091.26        2973.50           2477        1654.00      7207.96
 1091.29        2973.75           2481        1522.00      6632.27
 1091.32        2974.00           2484        1471.00      6409.85
 1091.35        2974.25           2488        1441.00      6279.02
 1091.38        2974.50           2491        1447.00      6305.19
 1091.41        2974.75           2495        1449.00      6313.91
 1091.44        2975.00           2498        1417.00      6174.36
 1091.47        2975.25           2502        1366.00      5951.95
 1091.51        2975.50           2505        1371.00      5973.75
 1091.54        2975.75           2509        1329.00      5790.59
 1091.57        2976.00           2512        1338.00      5829.84
 1091.60        2976.25           2516        1288.00      5611.79
 1091.63        2976.50           2520        1280.00      5576.91
 1091.66        2976.75           2523        1284.00      5594.35
 1091.69        2977.00           2527        1284.00      5594.35
 1091.72        2977.25           2530        1244.00      5419.92
 1091.75        2977.50           2534        1206.00      5254.21
 1091.78        2977.75           2537        1197.00      5214.96
 1091.81        2978.00           2541        1202.00      5236.77
 1091.84        2978.25           2544        1182.00      5149.55
 1091.87        2978.50           2548        1190.00      5184.44
 1091.90        2978.75           2552        1193.00      5197.52
 1091.93        2979.00           2555        1205.00      5249.85
 1091.96        2979.25           2559        1161.00      5057.98
 1091.99        2979.50           2562        1151.00      5014.37
 1092.02        2979.75           2566        1211.00      5276.01
 1092.06        2980.00           2569        1134.00      4940.24
 1092.09        2980.25           2573        1165.00      5075.42
 1092.12        2980.50           2577        1134.00      4940.24
 1092.15        2980.75           2580        1150.00      5010.01
 1092.18        2981.00           2584        1165.00      5075.42
 1092.21        2981.25           2587        1108.00      4826.86
 1092.24        2981.50           2591        1105.00      4813.78
 1092.27        2981.75           2594        1134.00      4940.24
 1092.30        2982.00           2598        1111.00      4839.94
 1092.33        2982.25           2601        1095.00      4770.17
 1092.36        2982.50           2605        1047.00      4560.86
 1092.39        2982.75           2609        1090.00      4748.37
 1092.42        2983.00           2612        1077.00      4691.68
 1092.45        2983.25           2616        1066.00      4643.72
 1092.48        2983.50           2619        1124.00      4896.63
 1092.51        2983.75           2623        1085.00      4726.57
 1092.54        2984.00           2626        1103.00      4805.06
HS scan finished at 18:12:46
end
