************************************************************
  HS Scan of (1) Internal mercury lamp
************************************************************
Integration time is 0.2294 seconds per sample
dh020219Reading 51.44 .94 2.39pr1000
************************************************************
Dead Time -------------------------  3.4E-08 
Number of Cycles Used -------------  4 
Starting Wavelength (Angstroms) ---  2950 
Final Wavelength (Angstoms) -------  2984 
Wavelength Increment (Angstroms) --  .25 
Filter Wheel #1 Position ---------- (1) Ground quartz diffuser (ND=2.32)
Filter Wheel #2 Position ---------- (1) Neutral Density 0.494



************************************************************
HS scan start time = 05:02:42
Dark Count =  .1 


Time (GMT)  Wavelength (Ang)  Step Number  Raw Counts  Counts/Second

  303.60        2950.00           2144        1614.00      7036.99
  303.79        2950.25           2147        1611.00      7023.91
  303.82        2950.50           2151        1673.00      7294.31
  303.85        2950.75           2155        1623.00      7076.24
  303.88        2951.00           2158        1646.00      7176.56
  303.91        2951.25           2162        1647.00      7180.92
  303.94        2951.50           2165        1655.00      7215.81
  303.97        2951.75           2169        1649.00      7189.64
  304.00        2952.00           2172        1675.00      7303.03
  304.03        2952.25           2176        1652.00      7202.72
  304.06        2952.50           2179        1666.00      7263.78
  304.09        2952.75           2183        1668.00      7272.50
  304.13        2953.00           2186        1652.00      7202.72
  304.16        2953.25           2190        1685.00      7346.65
  304.19        2953.50           2193        1695.00      7390.26
  304.22        2953.75           2197        1697.00      7398.98
  304.25        2954.00           2200        1699.00      7407.71
  304.28        2954.25           2204        1687.00      7355.37
  304.31        2954.50           2208        1715.00      7477.49
  304.34        2954.75           2211        1687.00      7355.37
  304.37        2955.00           2215        1701.00      7416.43
  304.40        2955.25           2218        1733.00      7555.99
  304.43        2955.50           2222        1723.00      7512.38
  304.46        2955.75           2225        1717.00      7486.21
  304.49        2956.00           2229        1718.00      7490.57
  304.52        2956.25           2232        1750.00      7630.14
  304.55        2956.50           2236        1758.00      7665.03
  304.58        2956.75           2239        1709.00      7451.32
  304.61        2957.00           2243        1790.00      7804.60
  304.65        2957.25           2246        1755.00      7651.95
  304.68        2957.50           2250        1801.00      7852.58
  304.71        2957.75           2254        1802.00      7856.94
  304.74        2958.00           2257        1845.00      8044.49
  304.77        2958.25           2261        1844.00      8040.12
  304.80        2958.50           2264        1857.00      8096.82
  304.83        2958.75           2268        1875.00      8175.33
  304.86        2959.00           2271        1863.00      8122.99
  304.89        2959.25           2275        1937.00      8445.76
  304.92        2959.50           2278        1922.00      8380.33
  304.95        2959.75           2282        1935.00      8437.03
  304.98        2960.00           2285        1951.00      8506.82
  305.01        2960.25           2289        2001.00      8724.91
  305.04        2960.50           2293        2015.00      8785.97
  305.07        2960.75           2296        2092.00      9121.83
  305.10        2961.00           2300        2122.00      9252.69
  305.13        2961.25           2303        2496.00     10884.15
  305.17        2961.50           2307        6032.00     26317.79
  305.20        2961.75           2310       14073.00     61474.92
  305.23        2962.00           2314       28847.00    126290.50
  305.26        2962.25           2317       41301.00    181151.10
  305.29        2962.50           2321       60467.00    265981.70
  305.32        2962.75           2324       76083.00    335465.00
  305.35        2963.00           2328       99023.00    438138.90
  305.38        2963.25           2331      115936.00    514302.70
  305.41        2963.50           2335      136045.00    605379.80
  305.44        2963.75           2339      154791.00    690800.10
  305.47        2964.00           2342      170624.00    763339.90
  305.50        2964.25           2346      192632.00    864777.00
  305.53        2964.50           2349      208911.00    940268.10
  305.56        2964.75           2353      229484.00   1036239.00
  305.59        2965.00           2356      244160.00   1105093.00
  305.62        2965.25           2360      263056.00   1194232.00
  305.65        2965.50           2363      277037.00   1260542.00
  305.69        2965.75           2367      295327.00   1347754.00
  305.72        2966.00           2370      307882.00   1407927.00
  305.75        2966.25           2374      327242.00   1501213.00
  305.78        2966.50           2378      341916.00   1572327.00
  305.81        2966.75           2381      346961.00   1596858.00
  305.84        2967.00           2385      348917.00   1606381.00
  305.87        2967.25           2388      349653.00   1609965.00
  305.90        2967.50           2392      349726.00   1610321.00
  305.93        2967.75           2395      349169.00   1607608.00
  305.96        2968.00           2399      346479.00   1594513.00
  305.99        2968.25           2402      337917.00   1552912.00
  306.02        2968.50           2406      322611.00   1478844.00
  306.05        2968.75           2409      309571.00   1416042.00
  306.08        2969.00           2413      290317.00   1323812.00
  306.11        2969.25           2417      271283.00   1233215.00
  306.14        2969.50           2420      256750.00   1164423.00
  306.17        2969.75           2424      236773.00   1070395.00
  306.21        2970.00           2427      222835.00   1005152.00
  306.24        2970.25           2431      200881.00    902981.10
  306.27        2970.50           2434      184965.00    829358.40
  306.30        2970.75           2438      162618.00    726614.60
  306.33        2971.00           2441      147581.00    657886.80
  306.36        2971.25           2445      126148.00    560483.40
  306.39        2971.50           2449      102254.00    452658.20
  306.42        2971.75           2452       84838.00    374565.10
  306.45        2972.00           2456       64529.00    284023.80
  306.48        2972.25           2459       49349.00    216712.50
  306.51        2972.50           2463       30894.00    135293.50
  306.54        2972.75           2466       17752.00     77588.46
  306.57        2973.00           2470        6387.00     27868.16
  306.60        2973.25           2473        3268.00     14252.33
  306.63        2973.50           2477        2238.00      9758.69
  306.66        2973.75           2481        2066.00      9008.43
  306.69        2974.00           2484        2039.00      8890.66
  306.72        2974.25           2488        2018.00      8799.06
  306.76        2974.50           2491        1956.00      8528.63
  306.79        2974.75           2495        1946.00      8485.01
  306.82        2975.00           2498        1887.00      8227.67
  306.85        2975.25           2502        1885.00      8218.95
  306.88        2975.50           2505        1858.00      8101.19
  306.91        2975.75           2509        1845.00      8044.49
  306.94        2976.00           2512        1838.00      8013.95
  306.97        2976.25           2516        1809.00      7887.47
  307.00        2976.50           2520        1751.00      7634.50
  307.03        2976.75           2523        1789.00      7800.24
  307.06        2977.00           2527        1717.00      7486.21
  307.09        2977.25           2530        1771.00      7721.73
  307.12        2977.50           2534        1684.00      7342.29
  307.15        2977.75           2537        1698.00      7403.35
  307.18        2978.00           2541        1721.00      7503.66
  307.21        2978.25           2544        1633.00      7119.86
  307.24        2978.50           2548        1668.00      7272.50
  307.28        2978.75           2552        1620.00      7063.16
  307.31        2979.00           2555        1621.00      7067.52
  307.34        2979.25           2559        1623.00      7076.24
  307.37        2979.50           2562        1642.00      7159.11
  307.40        2979.75           2566        1617.00      7050.08
  307.43        2980.00           2569        1626.00      7089.33
  307.46        2980.25           2573        1619.00      7058.80
  307.49        2980.50           2577        1580.00      6888.71
  307.52        2980.75           2580        1561.00      6805.85
  307.55        2981.00           2584        1574.00      6862.54
  307.58        2981.25           2587        1545.00      6736.07
  307.61        2981.50           2591        1563.00      6814.57
  307.64        2981.75           2594        1550.00      6757.87
  307.67        2982.00           2598        1583.00      6901.79
  307.70        2982.25           2601        1565.00      6823.29
  307.73        2982.50           2605        1536.00      6696.82
  307.76        2982.75           2609        1513.00      6596.51
  307.80        2983.00           2612        1547.00      6744.79
  307.83        2983.25           2616        1504.00      6557.26
  307.86        2983.50           2619        1500.00      6539.82
  307.89        2983.75           2623        1525.00      6648.84
  307.92        2984.00           2626        1480.00      6452.59
HS scan finished at 05:08:08
end
************************************************************
  HS Scan of (1) Internal mercury lamp
************************************************************
Integration time is 0.2294 seconds per sample
dh020219Reading 51.44 .94 2.58pr1000
************************************************************
Dead Time -------------------------  3.4E-08 
Number of Cycles Used -------------  4 
Starting Wavelength (Angstroms) ---  2950 
Final Wavelength (Angstoms) -------  2984 
Wavelength Increment (Angstroms) --  .25 
Filter Wheel #1 Position ---------- (1) Ground quartz diffuser (ND=2.32)
Filter Wheel #2 Position ---------- (1) Neutral Density 0.494



************************************************************
HS scan start time = 17:37:29
Dark Count =  .4 


Time (GMT)  Wavelength (Ang)  Step Number  Raw Counts  Counts/Second

 1058.38        2950.00           2144        1333.00      5810.22
 1058.57        2950.25           2147        1341.00      5845.10
 1058.60        2950.50           2151        1351.00      5888.71
 1058.63        2950.75           2155        1362.00      5936.68
 1058.66        2951.00           2158        1406.00      6128.57
 1058.69        2951.25           2162        1370.00      5971.57
 1058.72        2951.50           2165        1321.00      5757.88
 1058.75        2951.75           2169        1345.00      5862.55
 1058.78        2952.00           2172        1353.00      5897.43
 1058.81        2952.25           2176        1348.00      5875.63
 1058.84        2952.50           2179        1383.00      6028.26
 1058.87        2952.75           2183        1343.00      5853.82
 1058.91        2953.00           2186        1367.00      5958.49
 1058.94        2953.25           2190        1389.00      6054.43
 1058.97        2953.50           2193        1402.00      6111.12
 1059.00        2953.75           2197        1348.00      5875.63
 1059.03        2954.00           2200        1371.00      5975.93
 1059.06        2954.25           2204        1405.00      6124.20
 1059.09        2954.50           2208        1431.00      6237.59
 1059.12        2954.75           2211        1411.00      6150.37
 1059.15        2955.00           2215        1404.00      6119.84
 1059.18        2955.25           2218        1456.00      6346.62
 1059.21        2955.50           2222        1450.00      6320.45
 1059.24        2955.75           2225        1472.00      6416.40
 1059.27        2956.00           2229        1475.00      6429.48
 1059.30        2956.25           2232        1455.00      6342.26
 1059.33        2956.50           2236        1454.00      6337.90
 1059.36        2956.75           2239        1440.00      6276.84
 1059.40        2957.00           2243        1457.00      6350.98
 1059.43        2957.25           2246        1479.00      6446.92
 1059.46        2957.50           2250        1514.00      6599.56
 1059.49        2957.75           2254        1542.00      6721.68
 1059.52        2958.00           2257        1536.00      6695.51
 1059.55        2958.25           2261        1515.00      6603.92
 1059.58        2958.50           2264        1570.00      6843.79
 1059.61        2958.75           2268        1534.00      6686.79
 1059.64        2959.00           2271        1583.00      6900.49
 1059.67        2959.25           2275        1596.00      6957.18
 1059.70        2959.50           2278        1589.00      6926.65
 1059.73        2959.75           2282        1662.00      7245.03
 1059.76        2960.00           2285        1659.00      7231.94
 1059.79        2960.25           2289        1666.00      7262.47
 1059.82        2960.50           2293        1689.00      7362.78
 1059.85        2960.75           2296        1720.00      7497.99
 1059.88        2961.00           2300        1772.00      7724.78
 1059.91        2961.25           2303        1948.00      8492.43
 1059.95        2961.50           2307        3982.00     17366.84
 1059.98        2961.75           2310        9537.00     41630.81
 1060.01        2962.00           2314       21935.00     95929.64
 1060.04        2962.25           2317       33294.00    145854.90
 1060.07        2962.50           2321       49350.00    216715.70
 1060.10        2962.75           2324       63135.00    277828.30
 1060.13        2963.00           2328       82333.00    363365.70
 1060.16        2963.25           2331       97161.00    429776.80
 1060.19        2963.50           2335      115773.00    513565.40
 1060.22        2963.75           2339      133702.00    594737.20
 1060.25        2964.00           2342      147396.00    657041.80
 1060.28        2964.25           2346      165740.00    740923.50
 1060.31        2964.50           2349      180521.00    808867.00
 1060.34        2964.75           2353      197767.00    888545.80
 1060.37        2965.00           2356      210024.00    945442.40
 1060.40        2965.25           2360      226600.00   1022746.00
 1060.44        2965.50           2363      240278.00   1086847.00
 1060.47        2965.75           2367      256565.00   1163548.00
 1060.50        2966.00           2370      269087.00   1222797.00
 1060.53        2966.25           2374      285484.00   1300753.00
 1060.56        2966.50           2378      299269.00   1366618.00
 1060.59        2966.75           2381      303358.00   1386214.00
 1060.62        2967.00           2385      304956.00   1393880.00
 1060.65        2967.25           2388      305305.00   1395554.00
 1060.68        2967.50           2392      305137.00   1394748.00
 1060.71        2967.75           2395      305053.00   1394345.00
 1060.74        2968.00           2399      302748.00   1383289.00
 1060.77        2968.25           2402      297218.00   1356799.00
 1060.80        2968.50           2406      282639.00   1287197.00
 1060.83        2968.75           2409      269331.00   1223954.00
 1060.86        2969.00           2413      252439.00   1144079.00
 1060.89        2969.25           2417      238487.00   1078437.00
 1060.92        2969.50           2420      227970.00   1029153.00
 1060.95        2969.75           2424      209471.00    942870.70
 1060.99        2970.00           2427      193738.00    869892.10
 1061.02        2970.25           2431      174450.00    780922.00
 1061.05        2970.50           2434      160582.00    717288.50
 1061.08        2970.75           2438      144138.00    642194.40
 1061.11        2971.00           2441      130153.00    578633.50
 1061.14        2971.25           2445      108897.00    482554.50
 1061.17        2971.50           2449       88394.00    390475.00
 1061.20        2971.75           2452       75248.00    331739.90
 1061.23        2972.00           2456       58044.00    255228.80
 1061.26        2972.25           2459       44773.00    196480.80
 1061.29        2972.50           2463       27544.00    120561.20
 1061.32        2972.75           2466       16048.00     70121.65
 1061.35        2973.00           2470        5652.00     24657.10
 1061.38        2973.25           2473        2961.00     12911.51
 1061.41        2973.50           2477        1907.00      8313.60
 1061.44        2973.75           2481        1759.00      7668.08
 1061.47        2974.00           2484        1733.00      7554.69
 1061.51        2974.25           2488        1657.00      7223.22
 1061.54        2974.50           2491        1620.00      7061.85
 1061.57        2974.75           2495        1626.00      7088.02
 1061.60        2975.00           2498        1590.00      6931.01
 1061.63        2975.25           2502        1607.00      7005.16
 1061.66        2975.50           2505        1573.00      6856.87
 1061.69        2975.75           2509        1546.00      6739.12
 1061.72        2976.00           2512        1534.00      6686.79
 1061.75        2976.25           2516        1517.00      6612.65
 1061.78        2976.50           2520        1522.00      6634.45
 1061.81        2976.75           2523        1467.00      6394.59
 1061.84        2977.00           2527        1464.00      6381.51
 1061.87        2977.25           2530        1464.00      6381.51
 1061.90        2977.50           2534        1453.00      6333.54
 1061.93        2977.75           2537        1471.00      6412.03
 1061.96        2978.00           2541        1441.00      6281.20
 1061.99        2978.25           2544        1389.00      6054.43
 1062.03        2978.50           2548        1407.00      6132.93
 1062.06        2978.75           2552        1389.00      6054.43
 1062.09        2979.00           2555        1383.00      6028.26
 1062.12        2979.25           2559        1347.00      5871.27
 1062.15        2979.50           2562        1371.00      5975.93
 1062.18        2979.75           2566        1366.00      5954.13
 1062.21        2980.00           2569        1377.00      6002.10
 1062.24        2980.25           2573        1376.00      5997.74
 1062.27        2980.50           2577        1329.00      5792.77
 1062.30        2980.75           2580        1312.00      5718.64
 1062.33        2981.00           2584        1322.00      5762.25
 1062.36        2981.25           2587        1344.00      5858.19
 1062.39        2981.50           2591        1288.00      5613.97
 1062.42        2981.75           2594        1326.00      5779.69
 1062.45        2982.00           2598        1275.00      5557.28
 1062.48        2982.25           2601        1279.00      5574.73
 1062.51        2982.50           2605        1304.00      5683.75
 1062.55        2982.75           2609        1293.00      5635.78
 1062.58        2983.00           2612        1330.00      5797.13
 1062.61        2983.25           2616        1249.00      5443.90
 1062.64        2983.50           2619        1253.00      5461.35
 1062.67        2983.75           2623        1255.00      5470.07
 1062.70        2984.00           2626        1298.00      5657.58
HS scan finished at 17:42:55
end
