************************************************************
  HS Scan of 
************************************************************
Integration time is 0.2294 seconds per sample
dh070217Reading 51.44 .94 2.78pr1000
************************************************************
Dead Time -------------------------  3.4E-08 
Number of Cycles Used -------------  4 
Starting Wavelength (Angstroms) ---  2950 
Final Wavelength (Angstoms) -------  2984 
Wavelength Increment (Angstroms) --  .25 
Filter Wheel #1 Position ---------- (1) Ground quartz diffuser (ND=2.32)
Filter Wheel #2 Position ---------- (1) Neutral Density 0.494



************************************************************
HS scan start time = 04:49:22
Dark Count =  .6 


Time (GMT)  Wavelength (Ang)  Step Number  Raw Counts  Counts/Second

  290.26        2950.00           2144         749.00      3262.79
  290.46        2950.25           2147         771.00      3358.71
  290.49        2950.50           2151         747.00      3254.07
  290.52        2950.75           2155         741.00      3227.90
  290.55        2951.00           2158         755.00      3288.95
  290.58        2951.25           2162         755.00      3288.95
  290.61        2951.50           2165         783.00      3411.03
  290.64        2951.75           2169         795.00      3463.36
  290.67        2952.00           2172         760.00      3310.75
  290.70        2952.25           2176         814.00      3546.20
  290.73        2952.50           2179         787.00      3428.47
  290.76        2952.75           2183         766.00      3336.91
  290.79        2953.00           2186         754.00      3284.59
  290.83        2953.25           2190         797.00      3472.08
  290.86        2953.50           2193         779.00      3393.59
  290.89        2953.75           2197         783.00      3411.03
  290.92        2954.00           2200         811.00      3533.12
  290.95        2954.25           2204         805.00      3506.96
  290.98        2954.50           2208         799.00      3480.80
  291.01        2954.75           2211         818.00      3563.64
  291.04        2955.00           2215         822.00      3581.08
  291.07        2955.25           2218         798.00      3476.44
  291.10        2955.50           2222         810.00      3528.76
  291.13        2955.75           2225         807.00      3515.68
  291.16        2956.00           2229         857.00      3733.69
  291.19        2956.25           2232         822.00      3581.08
  291.22        2956.50           2236         835.00      3637.77
  291.25        2956.75           2239         815.00      3550.56
  291.28        2957.00           2243         846.00      3685.73
  291.31        2957.25           2246         834.00      3633.40
  291.34        2957.50           2250         857.00      3733.69
  291.38        2957.75           2254         808.00      3520.04
  291.41        2958.00           2257         883.00      3847.06
  291.44        2958.25           2261         882.00      3842.70
  291.47        2958.50           2264         886.00      3860.14
  291.50        2958.75           2268         917.00      3995.31
  291.53        2959.00           2271         884.00      3851.42
  291.56        2959.25           2275         907.00      3951.71
  291.59        2959.50           2278         945.00      4117.40
  291.62        2959.75           2282         921.00      4012.75
  291.65        2960.00           2285         899.00      3916.83
  291.68        2960.25           2289         959.00      4178.45
  291.71        2960.50           2293         969.00      4222.05
  291.74        2960.75           2296        1017.00      4431.36
  291.77        2961.00           2300        1017.00      4431.36
  291.80        2961.25           2303        1172.00      5107.25
  291.83        2961.50           2307        2363.00     10301.78
  291.86        2961.75           2310        6408.00     27957.69
  291.90        2962.00           2314       16142.00     70532.51
  291.93        2962.25           2317       24913.00    109001.30
  291.96        2962.50           2321       36269.00    158957.90
  291.99        2962.75           2324       44677.00    196055.80
  292.02        2963.00           2328       55526.00    244063.10
  292.05        2963.25           2331       64349.00    283221.60
  292.08        2963.50           2335       77033.00    339700.40
  292.11        2963.75           2339       89103.00    393648.50
  292.14        2964.00           2342       98053.00    433780.50
  292.17        2964.25           2346      109891.00    487032.40
  292.20        2964.50           2349      117887.00    523111.90
  292.23        2964.75           2353      129114.00    573921.50
  292.26        2965.00           2356      137661.00    612721.50
  292.29        2965.25           2360      148296.00    661145.10
  292.32        2965.50           2363      156071.00    696648.80
  292.35        2965.75           2367      167748.00    750134.10
  292.38        2966.00           2370      176510.00    790397.40
  292.42        2966.25           2374      187079.00    839113.20
  292.45        2966.50           2378      193429.00    868461.50
  292.48        2966.75           2381      194956.00    875527.80
  292.51        2967.00           2385      196168.00    881138.80
  292.54        2967.25           2388      196161.00    881106.50
  292.57        2967.50           2392      196043.00    880560.10
  292.60        2967.75           2395      195666.00    878814.50
  292.63        2968.00           2399      191555.00    859794.10
  292.66        2968.25           2402      185973.00    834007.80
  292.69        2968.50           2406      176764.00    791566.20
  292.72        2968.75           2409      169451.00    757951.00
  292.75        2969.00           2413      158080.00    705836.80
  292.78        2969.25           2417      146915.00    654848.00
  292.81        2969.50           2420      138283.00    615549.10
  292.84        2969.75           2424      126818.00    563516.00
  292.87        2970.00           2427      117909.00    523211.30
  292.90        2970.25           2431      106555.00    472006.10
  292.94        2970.50           2434       98556.00    436039.20
  292.97        2970.75           2438       87251.00    385357.90
  293.00        2971.00           2441       78608.00    346728.80
  293.03        2971.25           2445       66583.00    293153.30
  293.06        2971.50           2449       54343.00    238820.60
  293.09        2971.75           2452       45773.00    200898.50
  293.12        2972.00           2456       34374.00    150609.70
  293.15        2972.25           2459       27088.00    118556.30
  293.18        2972.50           2463       16979.00     74199.16
  293.21        2972.75           2466        9399.00     41026.68
  293.24        2973.00           2470        3202.00     13962.16
  293.27        2973.25           2473        1476.00      6432.97
  293.30        2973.50           2477        1118.00      4871.78
  293.34        2973.75           2481        1043.00      4544.73
  293.37        2974.00           2484        1018.00      4435.72
  293.40        2974.25           2488         993.00      4326.70
  293.43        2974.50           2491         981.00      4274.38
  293.46        2974.75           2495         993.00      4326.70
  293.49        2975.00           2498         949.00      4134.84
  293.52        2975.25           2502         898.00      3912.46
  293.55        2975.50           2505         933.00      4065.08
  293.58        2975.75           2509         926.00      4034.56
  293.61        2976.00           2512         880.00      3833.98
  293.65        2976.25           2516         875.00      3812.18
  293.68        2976.50           2520         866.00      3772.93
  293.71        2976.75           2523         876.00      3816.54
  293.74        2977.00           2527         866.00      3772.93
  293.77        2977.25           2530         856.00      3729.33
  293.80        2977.50           2534         846.00      3685.73
  293.83        2977.75           2537         841.00      3663.93
  293.86        2978.00           2541         824.00      3589.80
  293.89        2978.25           2544         813.00      3541.84
  293.92        2978.50           2548         800.00      3485.16
  293.95        2978.75           2552         816.00      3554.92
  293.98        2979.00           2555         798.00      3476.44
  294.01        2979.25           2559         807.00      3515.68
  294.04        2979.50           2562         796.00      3467.71
  294.07        2979.75           2566         797.00      3472.08
  294.10        2980.00           2569         809.00      3524.40
  294.14        2980.25           2573         790.00      3441.55
  294.17        2980.50           2577         806.00      3511.32
  294.20        2980.75           2580         790.00      3441.55
  294.23        2981.00           2584         775.00      3376.15
  294.26        2981.25           2587         777.00      3384.87
  294.29        2981.50           2591         752.00      3275.87
  294.32        2981.75           2594         761.00      3315.11
  294.35        2982.00           2598         747.00      3254.07
  294.38        2982.25           2601         790.00      3441.55
  294.41        2982.50           2605         705.00      3070.94
  294.44        2982.75           2609         760.00      3310.75
  294.47        2983.00           2612         765.00      3332.55
  294.50        2983.25           2616         739.00      3219.18
  294.53        2983.50           2619         731.00      3184.30
  294.56        2983.75           2623         788.00      3432.83
  294.59        2984.00           2626         758.00      3302.03
HS scan finished at 04:54:49
end
************************************************************
  HS Scan of 
************************************************************
Integration time is 0.2294 seconds per sample
dh070217Reading 51.44 .94 3.01pr1000
************************************************************
Dead Time -------------------------  3.4E-08 
Number of Cycles Used -------------  4 
Starting Wavelength (Angstroms) ---  2950 
Final Wavelength (Angstoms) -------  2984 
Wavelength Increment (Angstroms) --  .25 
Filter Wheel #1 Position ---------- (1) Ground quartz diffuser (ND=2.32)
Filter Wheel #2 Position ---------- (1) Neutral Density 0.494



************************************************************
HS scan start time = 18:07:25
Dark Count =  1.3 


Time (GMT)  Wavelength (Ang)  Step Number  Raw Counts  Counts/Second

 1088.32        2950.00           2144         759.00      3303.34
 1088.51        2950.25           2147         721.00      3137.65
 1088.54        2950.50           2151         695.00      3024.29
 1088.57        2950.75           2155         723.00      3146.37
 1088.60        2951.00           2158         723.00      3146.37
 1088.64        2951.25           2162         747.00      3251.01
 1088.67        2951.50           2165         731.00      3181.25
 1088.70        2951.75           2169         734.00      3194.33
 1088.73        2952.00           2172         779.00      3390.54
 1088.76        2952.25           2176         738.00      3211.77
 1088.79        2952.50           2179         707.00      3076.61
 1088.82        2952.75           2183         756.00      3290.25
 1088.85        2953.00           2186         770.00      3351.30
 1088.88        2953.25           2190         770.00      3351.30
 1088.91        2953.50           2193         735.00      3198.69
 1088.94        2953.75           2197         771.00      3355.66
 1088.97        2954.00           2200         750.00      3264.09
 1089.00        2954.25           2204         773.00      3364.38
 1089.03        2954.50           2208         772.00      3360.02
 1089.06        2954.75           2211         748.00      3255.37
 1089.09        2955.00           2215         779.00      3390.54
 1089.12        2955.25           2218         772.00      3360.02
 1089.16        2955.50           2222         794.00      3455.94
 1089.19        2955.75           2225         774.00      3368.74
 1089.22        2956.00           2229         797.00      3469.02
 1089.25        2956.25           2232         797.00      3469.02
 1089.28        2956.50           2236         797.00      3469.02
 1089.31        2956.75           2239         779.00      3390.54
 1089.34        2957.00           2243         846.00      3682.68
 1089.37        2957.25           2246         813.00      3538.79
 1089.40        2957.50           2250         853.00      3713.20
 1089.43        2957.75           2254         812.00      3534.43
 1089.46        2958.00           2257         812.00      3534.43
 1089.49        2958.25           2261         821.00      3573.67
 1089.52        2958.50           2264         863.00      3756.80
 1089.55        2958.75           2268         845.00      3678.32
 1089.58        2959.00           2271         856.00      3726.28
 1089.61        2959.25           2275         877.00      3817.85
 1089.64        2959.50           2278         870.00      3787.32
 1089.68        2959.75           2282         835.00      3634.71
 1089.71        2960.00           2285         918.00      3996.62
 1089.74        2960.25           2289         902.00      3926.85
 1089.77        2960.50           2293         918.00      3996.62
 1089.80        2960.75           2296         924.00      4022.78
 1089.83        2961.00           2300         948.00      4127.43
 1089.86        2961.25           2303        1028.00      4476.27
 1089.89        2961.50           2307        2108.00      9186.39
 1089.92        2961.75           2310        5804.00     25316.90
 1089.95        2962.00           2314       14004.00     61167.62
 1089.98        2962.25           2317       21252.00     92929.16
 1090.01        2962.50           2321       30610.00    134038.90
 1090.04        2962.75           2324       37506.00    164406.90
 1090.07        2963.00           2328       47040.00    206495.70
 1090.10        2963.25           2331       54979.00    241635.70
 1090.13        2963.50           2335       65745.00    289423.90
 1090.16        2963.75           2339       76080.00    335446.20
 1090.20        2964.00           2342       83097.00    366776.10
 1090.23        2964.25           2346       92769.00    410070.50
 1090.26        2964.50           2349       99567.00    440577.20
 1090.29        2964.75           2353      109880.00    486979.70
 1090.32        2965.00           2356      116317.00    516017.60
 1090.35        2965.25           2360      125245.00    556388.60
 1090.38        2965.50           2363      132350.00    588596.30
 1090.41        2965.75           2367      142461.00    634553.80
 1090.44        2966.00           2370      148690.00    662939.00
 1090.47        2966.25           2374      157686.00    704031.20
 1090.50        2966.50           2378      163167.00    729124.60
 1090.53        2966.75           2381      164540.00    735417.40
 1090.56        2967.00           2385      164788.00    736554.30
 1090.59        2967.25           2388      164784.00    736536.00
 1090.62        2967.50           2392      163400.00    730192.30
 1090.65        2967.75           2395      163073.00    728693.90
 1090.68        2968.00           2399      160891.00    718699.20
 1090.73        2968.25           2402      155966.00    696165.50
 1090.76        2968.50           2406      148222.00    660804.40
 1090.79        2968.75           2409      141681.00    631003.30
 1090.82        2969.00           2413      132154.00    587706.80
 1090.85        2969.25           2417      122369.00    543371.50
 1090.88        2969.50           2420      114684.00    508645.50
 1090.91        2969.75           2424      105864.00    468892.50
 1090.94        2970.00           2427       99015.00    438097.60
 1090.97        2970.25           2431       89543.00    395615.80
 1091.01        2970.50           2434       83262.00    367513.60
 1091.04        2970.75           2438       73287.00    322994.60
 1091.07        2971.00           2441       65290.00    287401.10
 1091.10        2971.25           2445       54685.00    240332.90
 1091.13        2971.50           2449       44456.00    195076.40
 1091.16        2971.75           2452       37655.00    165063.70
 1091.19        2972.00           2456       28551.00    124983.80
 1091.22        2972.25           2459       21473.00     93898.69
 1091.25        2972.50           2463       12122.00     52931.71
 1091.28        2972.75           2466        6358.00     27736.26
 1091.31        2973.00           2470        2173.00      9469.92
 1091.34        2973.25           2473        1229.00      5352.76
 1091.37        2973.50           2477        1026.00      4467.55
 1091.40        2973.75           2481         937.00      4079.47
 1091.43        2974.00           2484         924.00      4022.78
 1091.46        2974.25           2488         876.00      3813.49
 1091.49        2974.50           2491         896.00      3900.69
 1091.53        2974.75           2495         868.00      3778.60
 1091.56        2975.00           2498         860.00      3743.72
 1091.59        2975.25           2502         873.00      3800.40
 1091.62        2975.50           2505         850.00      3700.12
 1091.65        2975.75           2509         829.00      3608.55
 1091.68        2976.00           2512         835.00      3634.71
 1091.71        2976.25           2516         822.00      3578.03
 1091.74        2976.50           2520         806.00      3508.27
 1091.77        2976.75           2523         826.00      3595.47
 1091.80        2977.00           2527         796.00      3464.66
 1091.83        2977.25           2530         785.00      3416.70
 1091.86        2977.50           2534         789.00      3434.14
 1091.89        2977.75           2537         769.00      3346.94
 1091.92        2978.00           2541         765.00      3329.50
 1091.95        2978.25           2544         776.00      3377.46
 1091.98        2978.50           2548         776.00      3377.46
 1092.01        2978.75           2552         760.00      3307.70
 1092.05        2979.00           2555         756.00      3290.25
 1092.08        2979.25           2559         742.00      3229.21
 1092.11        2979.50           2562         727.00      3163.81
 1092.14        2979.75           2566         750.00      3264.09
 1092.17        2980.00           2569         717.00      3120.21
 1092.20        2980.25           2573         725.00      3155.09
 1092.23        2980.50           2577         745.00      3242.29
 1092.26        2980.75           2580         721.00      3137.65
 1092.29        2981.00           2584         724.00      3150.73
 1092.32        2981.25           2587         690.00      3002.49
 1092.35        2981.50           2591         725.00      3155.09
 1092.38        2981.75           2594         701.00      3050.45
 1092.41        2982.00           2598         708.00      3080.97
 1092.44        2982.25           2601         730.00      3176.89
 1092.47        2982.50           2605         715.00      3111.49
 1092.50        2982.75           2609         697.00      3033.01
 1092.53        2983.00           2612         705.00      3067.89
 1092.57        2983.25           2616         721.00      3137.65
 1092.60        2983.50           2619         693.00      3015.57
 1092.63        2983.75           2623         684.00      2976.33
 1092.66        2984.00           2626         697.00      3033.01
HS scan finished at 18:12:53
end
