************************************************************
  HS Scan of (1) Internal mercury lamp
************************************************************
Integration time is 0.2294 seconds per sample
dh040218Reading 51.44 .94 2.58pr1000
************************************************************
Dead Time -------------------------  3.4E-08 
Number of Cycles Used -------------  4 
Starting Wavelength (Angstroms) ---  2950 
Final Wavelength (Angstoms) -------  2984 
Wavelength Increment (Angstroms) --  .25 
Filter Wheel #1 Position ---------- (1) Ground quartz diffuser (ND=2.32)
Filter Wheel #2 Position ---------- (1) Neutral Density 0.494



************************************************************
HS scan start time = 04:54:04
Dark Count =  .3 


Time (GMT)  Wavelength (Ang)  Step Number  Raw Counts  Counts/Second

  294.96        2950.00           2144         111.00       482.57
  295.15        2950.25           2147         113.00       491.29
  295.18        2950.50           2151         111.00       482.57
  295.21        2950.75           2155         131.00       569.76
  295.25        2951.00           2158         122.00       530.52
  295.28        2951.25           2162         110.00       478.21
  295.31        2951.50           2165         143.00       622.07
  295.34        2951.75           2169         122.00       530.52
  295.37        2952.00           2172         137.00       595.91
  295.40        2952.25           2176         152.00       661.31
  295.43        2952.50           2179         113.00       491.29
  295.46        2952.75           2183         134.00       582.84
  295.49        2953.00           2186         172.00       748.49
  295.52        2953.25           2190         122.00       530.52
  295.55        2953.50           2193         143.00       622.07
  295.58        2953.75           2197         118.00       513.09
  295.61        2954.00           2200         112.00       486.93
  295.64        2954.25           2204         156.00       678.74
  295.67        2954.50           2208         130.00       565.40
  295.70        2954.75           2211         139.00       604.63
  295.73        2955.00           2215         123.00       534.88
  295.77        2955.25           2218         131.00       569.76
  295.80        2955.50           2222         152.00       661.31
  295.83        2955.75           2225         153.00       665.66
  295.86        2956.00           2229         132.00       574.12
  295.89        2956.25           2232         148.00       643.87
  295.92        2956.50           2236         138.00       600.27
  295.95        2956.75           2239         163.00       709.26
  295.98        2957.00           2243         129.00       561.04
  296.01        2957.25           2246         128.00       556.68
  296.04        2957.50           2250         143.00       622.07
  296.07        2957.75           2254         141.00       613.35
  296.10        2958.00           2257         145.00       630.79
  296.13        2958.25           2261         158.00       687.46
  296.16        2958.50           2264         142.00       617.71
  296.19        2958.75           2268         171.00       744.13
  296.22        2959.00           2271         153.00       665.66
  296.25        2959.25           2275         142.00       617.71
  296.29        2959.50           2278         148.00       643.87
  296.32        2959.75           2282         151.00       656.95
  296.35        2960.00           2285         152.00       661.31
  296.38        2960.25           2289         152.00       661.31
  296.41        2960.50           2293         171.00       744.13
  296.44        2960.75           2296         168.00       731.06
  296.47        2961.00           2300         212.00       922.87
  296.50        2961.25           2303         426.00      1855.83
  296.53        2961.50           2307        1482.00      6460.44
  296.56        2961.75           2310        2712.00     11825.59
  296.59        2962.00           2314        4526.00     19741.67
  296.62        2962.25           2317        6070.00     26482.86
  296.65        2962.50           2321        8067.00     35206.46
  296.68        2962.75           2324        9637.00     42068.42
  296.71        2963.00           2328       11899.00     51960.51
  296.74        2963.25           2331       13561.00     59232.95
  296.77        2963.50           2335       15735.00     68751.20
  296.81        2963.75           2339       17952.00     78464.06
  296.84        2964.00           2342       19748.00     86337.21
  296.87        2964.25           2346       21781.00     95254.38
  296.90        2964.50           2349       23508.00    102833.60
  296.93        2964.75           2353       25434.00    111290.90
  296.96        2965.00           2356       27063.00    118447.70
  296.99        2965.25           2360       29377.00    128620.10
  297.02        2965.50           2363       30775.00    134769.10
  297.05        2965.75           2367       32871.00    143993.10
  297.08        2966.00           2370       34466.00    151016.20
  297.11        2966.25           2374       35914.00    157395.00
  297.14        2966.50           2378       36980.00    162092.70
  297.17        2966.75           2381       37201.00    163066.80
  297.20        2967.00           2385       37479.00    164292.20
  297.23        2967.25           2388       37449.00    164160.00
  297.26        2967.50           2392       37557.00    164636.10
  297.29        2967.75           2395       37122.00    162718.60
  297.33        2968.00           2399       36045.00    157972.20
  297.36        2968.25           2402       34672.00    151923.50
  297.39        2968.50           2406       32729.00    143368.00
  297.42        2968.75           2409       31140.00    136375.00
  297.45        2969.00           2413       28899.00    126518.20
  297.48        2969.25           2417       26323.00    115196.20
  297.51        2969.50           2420       25017.00    109459.40
  297.54        2969.75           2424       22561.00     98677.06
  297.57        2970.00           2427       21046.00     92029.88
  297.60        2970.25           2431       18699.00     81738.18
  297.63        2970.50           2434       17133.00     74875.21
  297.66        2970.75           2438       15074.00     65856.54
  297.69        2971.00           2441       13413.00     58585.20
  297.72        2971.25           2445       11237.00     49064.79
  297.75        2971.50           2449        9141.00     39900.22
  297.78        2971.75           2452        7384.00     32222.29
  297.81        2972.00           2456        5246.00     22884.85
  297.84        2972.25           2459        3740.00     16311.14
  297.88        2972.50           2463        1812.00      7899.68
  297.91        2972.75           2466         767.00      3342.58
  297.94        2973.00           2470         272.00      1184.44
  297.97        2973.25           2473         190.00       826.96
  298.00        2973.50           2477         180.00       783.37
  298.03        2973.75           2481         159.00       691.82
  298.06        2974.00           2484         142.00       617.71
  298.09        2974.25           2488         164.00       713.62
  298.12        2974.50           2491         156.00       678.74
  298.15        2974.75           2495         150.00       652.59
  298.19        2975.00           2498         153.00       665.66
  298.22        2975.25           2502         151.00       656.95
  298.25        2975.50           2505         138.00       600.27
  298.28        2975.75           2509         145.00       630.79
  298.31        2976.00           2512         153.00       665.66
  298.34        2976.25           2516         143.00       622.07
  298.37        2976.50           2520         138.00       600.27
  298.40        2976.75           2523         124.00       539.24
  298.43        2977.00           2527         144.00       626.43
  298.46        2977.25           2530         125.00       543.60
  298.49        2977.50           2534         120.00       521.81
  298.52        2977.75           2537         126.00       547.96
  298.56        2978.00           2541         152.00       661.31
  298.59        2978.25           2544         137.00       595.91
  298.62        2978.50           2548         118.00       513.09
  298.65        2978.75           2552         147.00       639.51
  298.68        2979.00           2555         124.00       539.24
  298.71        2979.25           2559         168.00       731.06
  298.74        2979.50           2562         110.00       478.21
  298.77        2979.75           2566         143.00       622.07
  298.80        2980.00           2569         132.00       574.12
  298.83        2980.25           2573         118.00       513.09
  298.86        2980.50           2577         115.00       500.01
  298.89        2980.75           2580         116.00       504.37
  298.92        2981.00           2584         129.00       561.04
  298.95        2981.25           2587         109.00       473.85
  298.98        2981.50           2591         107.00       465.13
  299.01        2981.75           2594         114.00       495.65
  299.04        2982.00           2598         132.00       574.12
  299.08        2982.25           2601         116.00       504.37
  299.11        2982.50           2605          96.00       417.18
  299.14        2982.75           2609         118.00       513.09
  299.17        2983.00           2612         127.00       552.32
  299.20        2983.25           2616         167.00       726.70
  299.23        2983.50           2619         100.00       434.62
  299.26        2983.75           2623         141.00       613.35
  299.29        2984.00           2626         122.00       530.52
HS scan finished at 04:59:31
end
************************************************************
  HS Scan of (1) Internal mercury lamp
************************************************************
Integration time is 0.2294 seconds per sample
dh040218Reading 51.44 .94 2.68pr1000
************************************************************
Dead Time -------------------------  3.4E-08 
Number of Cycles Used -------------  4 
Starting Wavelength (Angstroms) ---  2950 
Final Wavelength (Angstoms) -------  2984 
Wavelength Increment (Angstroms) --  .25 
Filter Wheel #1 Position ---------- (1) Ground quartz diffuser (ND=2.32)
Filter Wheel #2 Position ---------- (1) Neutral Density 0.494



************************************************************
HS scan start time = 18:07:21
Dark Count =  .3 


Time (GMT)  Wavelength (Ang)  Step Number  Raw Counts  Counts/Second

 1088.24        2950.00           2144          79.00       343.07
 1088.44        2950.25           2147          73.00       316.92
 1088.47        2950.50           2151          81.00       351.79
 1088.50        2950.75           2155          78.00       338.71
 1088.53        2951.00           2158          75.00       325.64
 1088.56        2951.25           2162          75.00       325.64
 1088.59        2951.50           2165          75.00       325.64
 1088.62        2951.75           2169          71.00       308.20
 1088.65        2952.00           2172          72.00       312.56
 1088.68        2952.25           2176          78.00       338.71
 1088.71        2952.50           2179          84.00       364.87
 1088.74        2952.75           2183          83.00       360.51
 1088.77        2953.00           2186          83.00       360.51
 1088.80        2953.25           2190          81.00       351.79
 1088.84        2953.50           2193          79.00       343.07
 1088.87        2953.75           2197          74.00       321.28
 1088.90        2954.00           2200          76.00       329.99
 1088.93        2954.25           2204          69.00       299.48
 1088.96        2954.50           2208          86.00       373.59
 1088.99        2954.75           2211          73.00       316.92
 1089.02        2955.00           2215          83.00       360.51
 1089.05        2955.25           2218          85.00       369.23
 1089.08        2955.50           2222          94.00       408.46
 1089.11        2955.75           2225          83.00       360.51
 1089.14        2956.00           2229          84.00       364.87
 1089.17        2956.25           2232          86.00       373.59
 1089.20        2956.50           2236          88.00       382.31
 1089.23        2956.75           2239          91.00       395.38
 1089.26        2957.00           2243          87.00       377.95
 1089.29        2957.25           2246          91.00       395.38
 1089.32        2957.50           2250          86.00       373.59
 1089.36        2957.75           2254          88.00       382.31
 1089.39        2958.00           2257          97.00       421.54
 1089.42        2958.25           2261          88.00       382.31
 1089.45        2958.50           2264          94.00       408.46
 1089.48        2958.75           2268          86.00       373.59
 1089.51        2959.00           2271         104.00       452.06
 1089.54        2959.25           2275          93.00       404.10
 1089.57        2959.50           2278          98.00       425.90
 1089.60        2959.75           2282          93.00       404.10
 1089.63        2960.00           2285          95.00       412.82
 1089.66        2960.25           2289          98.00       425.90
 1089.69        2960.50           2293         102.00       443.34
 1089.72        2960.75           2296          89.00       386.67
 1089.75        2961.00           2300         162.00       704.90
 1089.78        2961.25           2303         298.00      1297.79
 1089.81        2961.50           2307         911.00      3970.46
 1089.84        2961.75           2310        1588.00      6922.73
 1089.88        2962.00           2314        2600.00     11336.98
 1089.91        2962.25           2317        3524.00     15368.53
 1089.94        2962.50           2321        4691.00     20461.92
 1089.97        2962.75           2324        5610.00     24474.15
 1090.00        2963.00           2328        6943.00     30295.80
 1090.03        2963.25           2331        7802.00     34048.55
 1090.06        2963.50           2335        8942.00     39030.40
 1090.09        2963.75           2339       10037.00     43817.20
 1090.12        2964.00           2342       10904.00     47608.39
 1090.15        2964.25           2346       12239.00     53447.96
 1090.18        2964.50           2349       13403.00     58541.43
 1090.21        2964.75           2353       14787.00     64599.89
 1090.24        2965.00           2356       15594.00     68133.68
 1090.27        2965.25           2360       16905.00     73876.26
 1090.30        2965.50           2363       17778.00     77701.52
 1090.33        2965.75           2367       18825.00     82290.51
 1090.36        2966.00           2370       19700.00     86126.72
 1090.40        2966.25           2374       20543.00     89823.59
 1090.43        2966.50           2378       21080.00     92179.03
 1090.46        2966.75           2381       21303.00     93157.28
 1090.49        2967.00           2385       21623.00     94561.16
 1090.52        2967.25           2388       22279.00     97439.53
 1090.55        2967.50           2392       21988.00     96162.63
 1090.58        2967.75           2395       21769.00     95201.72
 1090.61        2968.00           2399       21320.00     93231.85
 1090.64        2968.25           2402       20704.00     90529.75
 1090.67        2968.50           2406       19524.00     85355.02
 1090.70        2968.75           2409       18643.00     81492.71
 1090.73        2969.00           2413       17450.00     76264.20
 1090.76        2969.25           2417       16182.00     70709.02
 1090.79        2969.50           2420       15110.00     66014.18
 1090.82        2969.75           2424       13876.00     60611.71
 1090.85        2970.00           2427       12813.00     55959.47
 1090.88        2970.25           2431       11519.00     50298.24
 1090.92        2970.50           2434       10319.00     45050.21
 1090.95        2970.75           2438        8801.00     38414.13
 1090.98        2971.00           2441        7791.00     34000.49
 1091.01        2971.25           2445        6530.00     28491.84
 1091.04        2971.50           2449        5245.00     22880.48
 1091.07        2971.75           2452        4185.00     18253.26
 1091.10        2972.00           2456        2994.00     13055.93
 1091.13        2972.25           2459        2169.00      9456.83
 1091.16        2972.50           2463        1170.00      5099.84
 1091.19        2972.75           2466         565.00      2461.85
 1091.22        2973.00           2470         192.00       835.68
 1091.25        2973.25           2473         126.00       547.96
 1091.28        2973.50           2477         107.00       465.13
 1091.31        2973.75           2481         113.00       491.29
 1091.34        2974.00           2484         107.00       465.13
 1091.37        2974.25           2488         102.00       443.34
 1091.40        2974.50           2491          97.00       421.54
 1091.44        2974.75           2495          97.00       421.54
 1091.47        2975.00           2498         108.00       469.49
 1091.50        2975.25           2502          90.00       391.03
 1091.53        2975.50           2505          99.00       430.26
 1091.56        2975.75           2509          88.00       382.31
 1091.59        2976.00           2512          91.00       395.38
 1091.62        2976.25           2516          93.00       404.10
 1091.65        2976.50           2520          88.00       382.31
 1091.68        2976.75           2523          96.00       417.18
 1091.71        2977.00           2527          92.00       399.74
 1091.74        2977.25           2530          84.00       364.87
 1091.77        2977.50           2534          87.00       377.95
 1091.80        2977.75           2537          82.00       356.15
 1091.83        2978.00           2541          84.00       364.87
 1091.86        2978.25           2544          75.00       325.64
 1091.89        2978.50           2548          81.00       351.79
 1091.92        2978.75           2552          83.00       360.51
 1091.95        2979.00           2555          82.00       356.15
 1091.99        2979.25           2559          80.00       347.43
 1092.02        2979.50           2562          85.00       369.23
 1092.05        2979.75           2566          77.00       334.35
 1092.08        2980.00           2569          78.00       338.71
 1092.11        2980.25           2573          76.00       329.99
 1092.14        2980.50           2577          78.00       338.71
 1092.17        2980.75           2580          74.00       321.28
 1092.20        2981.00           2584          70.00       303.84
 1092.23        2981.25           2587          73.00       316.92
 1092.26        2981.50           2591          84.00       364.87
 1092.29        2981.75           2594          79.00       343.07
 1092.32        2982.00           2598          73.00       316.92
 1092.35        2982.25           2601          75.00       325.64
 1092.38        2982.50           2605          73.00       316.92
 1092.41        2982.75           2609          80.00       347.43
 1092.44        2983.00           2612          85.00       369.23
 1092.47        2983.25           2616          79.00       343.07
 1092.51        2983.50           2619          73.00       316.92
 1092.54        2983.75           2623          84.00       364.87
 1092.57        2984.00           2626         123.00       534.88
HS scan finished at 18:12:47
end
