************************************************************
  HS Scan of (1) Internal mercury lamp
************************************************************
Integration time is 0.2294 seconds per sample
dh300118Reading 51.44 .94 2.35pr1000
************************************************************
Dead Time -------------------------  3.4E-08 
Number of Cycles Used -------------  4 
Starting Wavelength (Angstroms) ---  2950 
Final Wavelength (Angstoms) -------  2984 
Wavelength Increment (Angstroms) --  .25 
Filter Wheel #1 Position ---------- (1) Ground quartz diffuser (ND=2.32)
Filter Wheel #2 Position ---------- (1) Neutral Density 0.494



************************************************************
HS scan start time = 05:03:34
Dark Count =  .5 


Time (GMT)  Wavelength (Ang)  Step Number  Raw Counts  Counts/Second

  304.47        2950.00           2144          91.00       394.51
  304.66        2950.25           2147          86.00       372.72
  304.69        2950.50           2151          93.00       403.23
  304.73        2950.75           2155          95.00       411.95
  304.76        2951.00           2158          91.00       394.51
  304.79        2951.25           2162          97.00       420.67
  304.82        2951.50           2165          91.00       394.51
  304.85        2951.75           2169          95.00       411.95
  304.88        2952.00           2172          95.00       411.95
  304.91        2952.25           2176          97.00       420.67
  304.94        2952.50           2179         115.00       499.14
  304.97        2952.75           2183         111.00       481.70
  305.00        2953.00           2186          94.00       407.59
  305.03        2953.25           2190          87.00       377.08
  305.06        2953.50           2193         100.00       433.75
  305.09        2953.75           2197          95.00       411.95
  305.12        2954.00           2200          92.00       398.87
  305.15        2954.25           2204          92.00       398.87
  305.18        2954.50           2208          91.00       394.51
  305.21        2954.75           2211          98.00       425.03
  305.25        2955.00           2215         100.00       433.75
  305.28        2955.25           2218          91.00       394.51
  305.31        2955.50           2222         100.00       433.75
  305.34        2955.75           2225          93.00       403.23
  305.37        2956.00           2229         101.00       438.11
  305.40        2956.25           2232         101.00       438.11
  305.43        2956.50           2236          90.00       390.15
  305.46        2956.75           2239          97.00       420.67
  305.49        2957.00           2243         101.00       438.11
  305.52        2957.25           2246         118.00       512.21
  305.55        2957.50           2250         112.00       486.06
  305.58        2957.75           2254         102.00       442.47
  305.61        2958.00           2257          95.00       411.95
  305.64        2958.25           2261         132.00       573.25
  305.67        2958.50           2264         112.00       486.06
  305.70        2958.75           2268         116.00       503.50
  305.73        2959.00           2271         159.00       690.95
  305.77        2959.25           2275         111.00       481.70
  305.80        2959.50           2278         126.00       547.09
  305.83        2959.75           2282         110.00       477.34
  305.86        2960.00           2285         114.00       494.78
  305.89        2960.25           2289         112.00       486.06
  305.92        2960.50           2293         129.00       560.17
  305.95        2960.75           2296         140.00       608.12
  305.98        2961.00           2300         169.00       734.54
  306.01        2961.25           2303         390.00      1698.01
  306.04        2961.50           2307        1146.00      4994.31
  306.07        2961.75           2310        1928.00      8404.76
  306.10        2962.00           2314        3026.00     13194.67
  306.13        2962.25           2317        3991.00     17405.68
  306.16        2962.50           2321        5353.00     23351.14
  306.19        2962.75           2324        6423.00     28023.64
  306.22        2963.00           2328        7871.00     34349.16
  306.25        2963.25           2331        8914.00     38907.15
  306.29        2963.50           2335       10372.00     45281.08
  306.32        2963.75           2339       11660.00     50914.14
  306.35        2964.00           2342       12756.00     55709.17
  306.38        2964.25           2346       14189.00     61980.96
  306.41        2964.50           2349       15469.00     67585.38
  306.44        2964.75           2353       16709.00     73016.70
  306.47        2965.00           2356       17673.00     77240.51
  306.50        2965.25           2360       18931.00     82754.31
  306.53        2965.50           2363       20022.00     87537.83
  306.56        2965.75           2367       21354.00     93380.14
  306.59        2966.00           2370       22275.00     97421.11
  306.62        2966.25           2374       23350.00    102139.20
  306.65        2966.50           2378       24080.00    105344.00
  306.68        2966.75           2381       24231.00    106006.90
  306.71        2967.00           2385       24180.00    105783.00
  306.74        2967.25           2388       24163.00    105708.40
  306.77        2967.50           2392       24037.00    105155.10
  306.81        2967.75           2395       23872.00    104430.70
  306.84        2968.00           2399       23145.00    101239.30
  306.87        2968.25           2402       22103.00     96666.36
  306.90        2968.50           2406       20746.00     90713.09
  306.93        2968.75           2409       19828.00     86687.12
  306.96        2969.00           2413       18241.00     79729.80
  306.99        2969.25           2417       17161.00     74997.00
  307.02        2969.50           2420       15961.00     69740.15
  307.05        2969.75           2424       14768.00     64515.82
  307.08        2970.00           2427       13689.00     59792.32
  307.11        2970.25           2431       12110.00     52882.71
  307.14        2970.50           2434       11422.00     49873.08
  307.17        2970.75           2438        9901.00     43221.71
  307.20        2971.00           2441        8706.00     37998.06
  307.23        2971.25           2445        7090.00     30937.06
  307.26        2971.50           2449        5476.00     23888.18
  307.29        2971.75           2452        4499.00     19622.94
  307.33        2972.00           2456        3180.00     13866.61
  307.36        2972.25           2459        2157.00      9403.62
  307.39        2972.50           2463        1052.00      4584.41
  307.42        2972.75           2466         474.00      2064.23
  307.45        2973.00           2470         176.00       765.06
  307.48        2973.25           2473         134.00       581.96
  307.51        2973.50           2477         141.00       612.48
  307.54        2973.75           2481         129.00       560.17
  307.57        2974.00           2484         139.00       603.76
  307.60        2974.25           2488         142.00       616.84
  307.63        2974.50           2491         131.00       568.89
  307.66        2974.75           2495         147.00       638.64
  307.69        2975.00           2498         105.00       455.54
  307.72        2975.25           2502          98.00       425.03
  307.75        2975.50           2505         122.00       529.65
  307.78        2975.75           2509         117.00       507.86
  307.81        2976.00           2512         106.00       459.90
  307.85        2976.25           2516         123.00       534.01
  307.88        2976.50           2520          96.00       416.31
  307.91        2976.75           2523         115.00       499.14
  307.94        2977.00           2527          98.00       425.03
  307.97        2977.25           2530         120.00       520.93
  308.00        2977.50           2534          93.00       403.23
  308.03        2977.75           2537          84.00       364.00
  308.06        2978.00           2541          96.00       416.31
  308.09        2978.25           2544          94.00       407.59
  308.12        2978.50           2548          95.00       411.95
  308.15        2978.75           2552         117.00       507.86
  308.18        2979.00           2555          93.00       403.23
  308.21        2979.25           2559          85.00       368.36
  308.24        2979.50           2562          90.00       390.15
  308.27        2979.75           2566          84.00       364.00
  308.30        2980.00           2569          91.00       394.51
  308.33        2980.25           2573          87.00       377.08
  308.36        2980.50           2577          90.00       390.15
  308.40        2980.75           2580         108.00       468.62
  308.43        2981.00           2584          93.00       403.23
  308.46        2981.25           2587          87.00       377.08
  308.49        2981.50           2591          93.00       403.23
  308.52        2981.75           2594          82.00       355.28
  308.55        2982.00           2598          93.00       403.23
  308.58        2982.25           2601          78.00       337.84
  308.61        2982.50           2605          85.00       368.36
  308.64        2982.75           2609          87.00       377.08
  308.67        2983.00           2612          73.00       316.05
  308.70        2983.25           2616          72.00       311.69
  308.73        2983.50           2619          89.00       385.79
  308.76        2983.75           2623          76.00       329.12
  308.79        2984.00           2626          86.00       372.72
HS scan finished at 05:09:01
end
************************************************************
  HS Scan of (1) Internal mercury lamp
************************************************************
Integration time is 0.2294 seconds per sample
dh300118Reading 51.44 .94 3.05pr1000
************************************************************
Dead Time -------------------------  3.4E-08 
Number of Cycles Used -------------  4 
Starting Wavelength (Angstroms) ---  2950 
Final Wavelength (Angstoms) -------  2984 
Wavelength Increment (Angstroms) --  .25 
Filter Wheel #1 Position ---------- (1) Ground quartz diffuser (ND=2.32)
Filter Wheel #2 Position ---------- (1) Neutral Density 0.494



************************************************************
HS scan start time = 17:37:28
Dark Count =  1.1 


Time (GMT)  Wavelength (Ang)  Step Number  Raw Counts  Counts/Second

 1058.36        2950.00           2144          78.00       335.23
 1058.56        2950.25           2147          82.00       352.66
 1058.59        2950.50           2151          79.00       339.59
 1058.62        2950.75           2155          83.00       357.02
 1058.65        2951.00           2158          74.00       317.79
 1058.68        2951.25           2162          76.00       326.51
 1058.71        2951.50           2165          77.00       330.87
 1058.74        2951.75           2169          76.00       326.51
 1058.77        2952.00           2172          75.00       322.15
 1058.80        2952.25           2176          75.00       322.15
 1058.83        2952.50           2179          73.00       313.43
 1058.86        2952.75           2183          76.00       326.51
 1058.89        2953.00           2186          72.00       309.07
 1058.92        2953.25           2190          75.00       322.15
 1058.96        2953.50           2193          82.00       352.66
 1058.99        2953.75           2197          73.00       313.43
 1059.02        2954.00           2200          74.00       317.79
 1059.05        2954.25           2204          84.00       361.38
 1059.08        2954.50           2208          84.00       361.38
 1059.11        2954.75           2211          76.00       326.51
 1059.14        2955.00           2215          74.00       317.79
 1059.17        2955.25           2218          86.00       370.10
 1059.20        2955.50           2222          79.00       339.59
 1059.23        2955.75           2225          90.00       387.54
 1059.26        2956.00           2229         105.00       452.93
 1059.29        2956.25           2232          79.00       339.59
 1059.32        2956.50           2236          84.00       361.38
 1059.35        2956.75           2239          85.00       365.74
 1059.38        2957.00           2243          91.00       391.90
 1059.41        2957.25           2246          84.00       361.38
 1059.44        2957.50           2250          87.00       374.46
 1059.47        2957.75           2254          93.00       400.62
 1059.51        2958.00           2257          91.00       391.90
 1059.54        2958.25           2261          88.00       378.82
 1059.57        2958.50           2264          95.00       409.33
 1059.60        2958.75           2268          90.00       387.54
 1059.63        2959.00           2271         105.00       452.93
 1059.66        2959.25           2275         100.00       431.13
 1059.69        2959.50           2278          97.00       418.05
 1059.72        2959.75           2282          94.00       404.98
 1059.75        2960.00           2285          93.00       400.62
 1059.78        2960.25           2289          99.00       426.77
 1059.81        2960.50           2293         106.00       457.29
 1059.84        2960.75           2296         126.00       544.47
 1059.87        2961.00           2300         131.00       566.27
 1059.90        2961.25           2303         252.00      1093.76
 1059.93        2961.50           2307         746.00      3247.53
 1059.96        2961.75           2310        1546.00      6736.07
 1059.99        2962.00           2314        2714.00     11830.83
 1060.03        2962.25           2317        3741.00     16312.01
 1060.06        2962.50           2321        5121.00     22335.61
 1060.09        2962.75           2324        6054.00     26409.49
 1060.12        2963.00           2328        7531.00     32861.02
 1060.15        2963.25           2331        8710.00     38012.92
 1060.18        2963.50           2335       10100.00     44089.15
 1060.21        2963.75           2339       11246.00     49100.65
 1060.24        2964.00           2342       12245.00     53470.71
 1060.27        2964.25           2346       13791.00     60236.15
 1060.30        2964.50           2349       14690.00     64171.69
 1060.33        2964.75           2353       16728.00     73097.31
 1060.36        2965.00           2356       17457.00     76291.37
 1060.39        2965.25           2360       18616.00     81370.85
 1060.42        2965.50           2363       19634.00     85833.84
 1060.45        2965.75           2367       20951.00     91609.66
 1060.48        2966.00           2370       21527.00     94136.48
 1060.51        2966.25           2374       23305.00    101939.00
 1060.55        2966.50           2378       23875.00    104441.30
 1060.58        2966.75           2381       23587.00    103176.90
 1060.61        2967.00           2385       23504.00    102812.60
 1060.64        2967.25           2388       23274.00    101802.90
 1060.67        2967.50           2392       23439.00    102527.20
 1060.70        2967.75           2395       23984.00    104919.80
 1060.73        2968.00           2399       23427.00    102474.60
 1060.76        2968.25           2402       22534.00     98555.06
 1060.79        2968.50           2406       21014.00     91886.01
 1060.82        2968.75           2409       19871.00     86873.05
 1060.85        2969.00           2413       18498.00     80853.61
 1060.88        2969.25           2417       17299.00     75599.05
 1060.91        2969.50           2420       16175.00     70674.86
 1060.94        2969.75           2424       14711.00     64263.63
 1060.97        2970.00           2427       13496.00     58944.96
 1061.00        2970.25           2431       12148.00     53046.33
 1061.03        2970.50           2434       11154.00     48698.27
 1061.07        2970.75           2438        9724.00     42445.26
 1061.10        2971.00           2441        8786.00     38345.08
 1061.13        2971.25           2445        7213.00     31471.76
 1061.16        2971.50           2449        5752.00     25090.71
 1061.19        2971.75           2452        4803.00     20947.35
 1061.22        2972.00           2456        3464.00     15103.22
 1061.25        2972.25           2459        2515.00     10962.67
 1061.28        2972.50           2463        1416.00      6169.12
 1061.31        2972.75           2466         713.00      3103.64
 1061.34        2973.00           2470         258.00      1119.92
 1061.37        2973.25           2473         147.00       636.02
 1061.40        2973.50           2477         110.00       474.72
 1061.43        2973.75           2481         104.00       448.57
 1061.46        2974.00           2484         130.00       561.91
 1061.49        2974.25           2488         109.00       470.37
 1061.52        2974.50           2491         101.00       435.49
 1061.56        2974.75           2495         141.00       609.86
 1061.59        2975.00           2498          98.00       422.41
 1061.62        2975.25           2502          97.00       418.05
 1061.65        2975.50           2505          94.00       404.98
 1061.68        2975.75           2509          87.00       374.46
 1061.71        2976.00           2512          91.00       391.90
 1061.74        2976.25           2516          97.00       418.05
 1061.77        2976.50           2520          95.00       409.33
 1061.80        2976.75           2523          93.00       400.62
 1061.83        2977.00           2527          88.00       378.82
 1061.86        2977.25           2530          80.00       343.94
 1061.89        2977.50           2534          90.00       387.54
 1061.92        2977.75           2537          75.00       322.15
 1061.95        2978.00           2541          81.00       348.30
 1061.98        2978.25           2544          91.00       391.90
 1062.01        2978.50           2548          83.00       357.02
 1062.04        2978.75           2552          77.00       330.87
 1062.07        2979.00           2555          81.00       348.30
 1062.11        2979.25           2559          89.00       383.18
 1062.14        2979.50           2562          83.00       357.02
 1062.17        2979.75           2566          78.00       335.23
 1062.20        2980.00           2569          79.00       339.59
 1062.23        2980.25           2573          78.00       335.23
 1062.26        2980.50           2577          75.00       322.15
 1062.29        2980.75           2580          79.00       339.59
 1062.32        2981.00           2584          77.00       330.87
 1062.35        2981.25           2587          80.00       343.94
 1062.38        2981.50           2591          75.00       322.15
 1062.41        2981.75           2594          79.00       339.59
 1062.44        2982.00           2598          71.00       304.71
 1062.47        2982.25           2601          80.00       343.94
 1062.50        2982.50           2605          69.00       295.99
 1062.53        2982.75           2609          87.00       374.46
 1062.56        2983.00           2612          75.00       322.15
 1062.59        2983.25           2616          80.00       343.94
 1062.63        2983.50           2619          75.00       322.15
 1062.66        2983.75           2623          75.00       322.15
 1062.69        2984.00           2626          74.00       317.79
HS scan finished at 17:42:55
end
