************************************************************
  HS Scan of 
************************************************************
Integration time is 0.2294 seconds per sample
dh080217Reading 51.44 .94 2.78pr1000
************************************************************
Dead Time -------------------------  3.4E-08 
Number of Cycles Used -------------  4 
Starting Wavelength (Angstroms) ---  2950 
Final Wavelength (Angstoms) -------  2984 
Wavelength Increment (Angstroms) --  .25 
Filter Wheel #1 Position ---------- (1) Ground quartz diffuser (ND=2.32)
Filter Wheel #2 Position ---------- (1) Neutral Density 0.494



************************************************************
HS scan start time = 04:47:40
Dark Count =  .3 


Time (GMT)  Wavelength (Ang)  Step Number  Raw Counts  Counts/Second

  288.56        2950.00           2144         770.00      3355.66
  288.75        2950.25           2147         776.00      3381.82
  288.79        2950.50           2151         771.00      3360.02
  288.82        2950.75           2155         747.00      3255.37
  288.85        2951.00           2158         777.00      3386.18
  288.88        2951.25           2162         794.00      3460.30
  288.91        2951.50           2165         789.00      3438.50
  288.94        2951.75           2169         765.00      3333.86
  288.97        2952.00           2172         753.00      3281.53
  289.00        2952.25           2176         806.00      3512.63
  289.03        2952.50           2179         773.00      3368.74
  289.06        2952.75           2183         796.00      3469.02
  289.09        2953.00           2186         773.00      3368.74
  289.12        2953.25           2190         815.00      3551.87
  289.15        2953.50           2193         813.00      3543.15
  289.18        2953.75           2197         818.00      3564.95
  289.21        2954.00           2200         793.00      3455.94
  289.24        2954.25           2204         821.00      3578.03
  289.27        2954.50           2208         807.00      3516.99
  289.31        2954.75           2211         841.00      3665.23
  289.34        2955.00           2215         816.00      3556.23
  289.37        2955.25           2218         823.00      3586.75
  289.40        2955.50           2222         821.00      3578.03
  289.43        2955.75           2225         846.00      3687.04
  289.46        2956.00           2229         841.00      3665.23
  289.49        2956.25           2232         857.00      3735.00
  289.52        2956.50           2236         828.00      3608.55
  289.55        2956.75           2239         861.00      3752.44
  289.58        2957.00           2243         882.00      3844.01
  289.61        2957.25           2246         885.00      3857.09
  289.64        2957.50           2250         848.00      3695.76
  289.67        2957.75           2254         855.00      3726.28
  289.70        2958.00           2257         904.00      3939.94
  289.73        2958.25           2261         883.00      3848.37
  289.76        2958.50           2264         928.00      4044.58
  289.79        2958.75           2268         914.00      3983.54
  289.83        2959.00           2271         931.00      4057.67
  289.86        2959.25           2275         896.00      3905.05
  289.89        2959.50           2278         972.00      4236.44
  289.92        2959.75           2282         940.00      4096.91
  289.95        2960.00           2285         947.00      4127.43
  289.98        2960.25           2289         960.00      4184.12
  290.01        2960.50           2293         981.00      4275.69
  290.04        2960.75           2296        1004.00      4375.98
  290.07        2961.00           2300        1040.00      4532.96
  290.10        2961.25           2303        1241.00      5409.45
  290.13        2961.50           2307        3723.00     16236.95
  290.16        2961.75           2310        8855.00     38650.15
  290.19        2962.00           2314       18064.00     78954.91
  290.22        2962.25           2317       26191.00    114616.20
  290.25        2962.50           2321       37690.00    165222.40
  290.28        2962.75           2324       45763.00    200855.70
  290.31        2963.00           2328       57619.00    253344.20
  290.35        2963.25           2331       66391.00    292300.80
  290.38        2963.50           2335       77693.00    342646.60
  290.41        2963.75           2339       90250.00    398786.90
  290.44        2964.00           2342       99094.00    438456.90
  290.47        2964.25           2346      111705.00    495211.10
  290.50        2964.50           2349      119966.00    532508.70
  290.53        2964.75           2353      131834.00    586259.30
  290.56        2965.00           2356      140102.00    623823.00
  290.59        2965.25           2360      151050.00    673712.40
  290.62        2965.50           2363      158918.00    709672.40
  290.65        2965.75           2367      169314.00    757323.30
  290.68        2966.00           2370      176687.00    791213.20
  290.71        2966.25           2374      187755.00    842236.20
  290.74        2966.50           2378      194494.00    873390.90
  290.77        2966.75           2381      196062.00    880649.40
  290.80        2967.00           2385      196112.00    880880.90
  290.83        2967.25           2388      196573.00    883015.70
  290.86        2967.50           2392      196418.00    882297.90
  290.90        2967.75           2395      195833.00    879589.10
  290.93        2968.00           2399      191509.00    859582.90
  290.96        2968.25           2402      184916.00    829131.50
  290.99        2968.50           2406      175211.00    784422.40
  291.02        2968.75           2409      168335.00    752829.40
  291.05        2969.00           2413      157375.00    702613.30
  291.08        2969.25           2417      146051.00    650911.00
  291.11        2969.50           2420      137081.00    610086.60
  291.14        2969.75           2424      125628.00    558127.50
  291.17        2970.00           2427      117335.00    520619.70
  291.20        2970.25           2431      105727.00    468280.30
  291.23        2970.50           2434       96997.00    429041.00
  291.26        2970.75           2438       85734.00    378571.70
  291.29        2971.00           2441       77449.00    341557.80
  291.32        2971.25           2445       66618.00    293310.30
  291.35        2971.50           2449       54328.00    238755.50
  291.38        2971.75           2452       45450.00    199472.50
  291.42        2972.00           2456       33882.00    148444.40
  291.45        2972.25           2459       25704.00    112476.80
  291.48        2972.50           2463       16316.00     71295.99
  291.51        2972.75           2466        9814.00     42842.23
  291.54        2973.00           2470        3191.00     13915.48
  291.58        2973.25           2473        1525.00      6647.97
  291.61        2973.50           2477        1125.00      4903.61
  291.64        2973.75           2481        1036.00      4515.51
  291.67        2974.00           2484        1036.00      4515.51
  291.70        2974.25           2488         999.00      4354.18
  291.73        2974.50           2491        1002.00      4367.26
  291.76        2974.75           2495         986.00      4297.49
  291.79        2975.00           2498         958.00      4175.40
  291.82        2975.25           2502         932.00      4062.03
  291.85        2975.50           2505         911.00      3970.46
  291.88        2975.75           2509         924.00      4027.14
  291.91        2976.00           2512         937.00      4083.83
  291.94        2976.25           2516         947.00      4127.43
  291.97        2976.50           2520         894.00      3896.33
  292.00        2976.75           2523         889.00      3874.53
  292.03        2977.00           2527         850.00      3704.48
  292.06        2977.25           2530         860.00      3748.08
  292.10        2977.50           2534         853.00      3717.56
  292.13        2977.75           2537         862.00      3756.80
  292.16        2978.00           2541         846.00      3687.04
  292.19        2978.25           2544         845.00      3682.68
  292.22        2978.50           2548         814.00      3547.51
  292.25        2978.75           2552         827.00      3604.19
  292.28        2979.00           2555         826.00      3599.83
  292.31        2979.25           2559         855.00      3726.28
  292.34        2979.50           2562         807.00      3516.99
  292.37        2979.75           2566         831.00      3621.63
  292.40        2980.00           2569         822.00      3582.39
  292.43        2980.25           2573         775.00      3377.46
  292.46        2980.50           2577         807.00      3516.99
  292.49        2980.75           2580         802.00      3495.18
  292.52        2981.00           2584         794.00      3460.30
  292.55        2981.25           2587         809.00      3525.71
  292.58        2981.50           2591         794.00      3460.30
  292.61        2981.75           2594         793.00      3455.94
  292.65        2982.00           2598         770.00      3355.66
  292.68        2982.25           2601         766.00      3338.22
  292.71        2982.50           2605         776.00      3381.82
  292.74        2982.75           2609         742.00      3233.57
  292.77        2983.00           2612         767.00      3342.58
  292.80        2983.25           2616         748.00      3259.73
  292.83        2983.50           2619         775.00      3377.46
  292.86        2983.75           2623         756.00      3294.62
  292.89        2984.00           2626         768.00      3346.94
HS scan finished at 04:53:07
end
************************************************************
  HS Scan of 
************************************************************
Integration time is 0.2294 seconds per sample
dh080217Reading 51.44 .94 2.9pr1000
************************************************************
Dead Time -------------------------  3.4E-08 
Number of Cycles Used -------------  4 
Starting Wavelength (Angstroms) ---  2950 
Final Wavelength (Angstoms) -------  2984 
Wavelength Increment (Angstroms) --  .25 
Filter Wheel #1 Position ---------- (1) Ground quartz diffuser (ND=2.32)
Filter Wheel #2 Position ---------- (1) Neutral Density 0.494



************************************************************
HS scan start time = 18:07:20
Dark Count =  .8 


Time (GMT)  Wavelength (Ang)  Step Number  Raw Counts  Counts/Second

 1088.24        2950.00           2144         746.00      3248.83
 1088.43        2950.25           2147         754.00      3283.71
 1088.46        2950.50           2151         747.00      3253.19
 1088.49        2950.75           2155         738.00      3213.95
 1088.52        2951.00           2158         762.00      3318.60
 1088.55        2951.25           2162         789.00      3436.32
 1088.58        2951.50           2165         744.00      3240.11
 1088.61        2951.75           2169         762.00      3318.60
 1088.65        2952.00           2172         768.00      3344.76
 1088.68        2952.25           2176         741.00      3227.03
 1088.71        2952.50           2179         749.00      3261.91
 1088.74        2952.75           2183         744.00      3240.11
 1088.77        2953.00           2186         775.00      3375.28
 1088.80        2953.25           2190         789.00      3436.32
 1088.83        2953.50           2193         780.00      3397.08
 1088.86        2953.75           2197         766.00      3336.04
 1088.89        2954.00           2200         782.00      3405.80
 1088.92        2954.25           2204         800.00      3484.28
 1088.95        2954.50           2208         772.00      3362.20
 1088.98        2954.75           2211         792.00      3449.40
 1089.01        2955.00           2215         813.00      3540.97
 1089.04        2955.25           2218         803.00      3497.36
 1089.07        2955.50           2222         791.00      3445.04
 1089.10        2955.75           2225         806.00      3510.45
 1089.13        2956.00           2229         797.00      3471.20
 1089.17        2956.25           2232         797.00      3471.20
 1089.20        2956.50           2236         791.00      3445.04
 1089.23        2956.75           2239         835.00      3636.89
 1089.26        2957.00           2243         828.00      3606.37
 1089.29        2957.25           2246         797.00      3471.20
 1089.32        2957.50           2250         832.00      3623.81
 1089.35        2957.75           2254         838.00      3649.97
 1089.38        2958.00           2257         844.00      3676.14
 1089.41        2958.25           2261         842.00      3667.41
 1089.44        2958.50           2264         852.00      3711.02
 1089.47        2958.75           2268         871.00      3793.86
 1089.50        2959.00           2271         915.00      3985.72
 1089.53        2959.25           2275         880.00      3833.11
 1089.56        2959.50           2278         902.00      3929.03
 1089.59        2959.75           2282         898.00      3911.59
 1089.62        2960.00           2285         926.00      4033.68
 1089.65        2960.25           2289         897.00      3907.23
 1089.69        2960.50           2293         918.00      3998.80
 1089.72        2960.75           2296         912.00      3972.64
 1089.75        2961.00           2300         996.00      4338.91
 1089.78        2961.25           2303        1100.00      4792.41
 1089.81        2961.50           2307        3192.00     13917.66
 1089.84        2961.75           2310        8076.00     35243.61
 1089.87        2962.00           2314       16010.00     69953.46
 1089.90        2962.25           2317       22705.00     99306.84
 1089.93        2962.50           2321       32316.00    141548.00
 1089.96        2962.75           2324       39299.00    172315.20
 1089.99        2963.00           2328       48631.00    213533.40
 1090.02        2963.25           2331       55933.00    245866.30
 1090.05        2963.50           2335       65802.00    289679.50
 1090.08        2963.75           2339       75319.00    332054.80
 1090.11        2964.00           2342       82718.00    365084.40
 1090.14        2964.25           2346       92497.00    408853.40
 1090.17        2964.50           2349       99532.00    440422.20
 1090.21        2964.75           2353      109764.00    486459.20
 1090.24        2965.00           2356      117083.00    519479.20
 1090.27        2965.25           2360      126363.00    561454.10
 1090.30        2965.50           2363      133339.00    593087.50
 1090.33        2965.75           2367      141309.00    629312.60
 1090.36        2966.00           2370      148112.00    660305.00
 1090.39        2966.25           2374      155720.00    695043.10
 1090.42        2966.50           2378      161666.00    722250.60
 1090.45        2966.75           2381      163477.00    730547.50
 1090.48        2967.00           2385      163523.00    730758.30
 1090.51        2967.25           2388      163486.00    730588.70
 1090.54        2967.50           2392      164057.00    733205.60
 1090.57        2967.75           2395      163034.00    728517.50
 1090.60        2968.00           2399      159747.00    713464.10
 1090.63        2968.25           2402      155321.00    693219.30
 1090.66        2968.50           2406      147794.00    658854.80
 1090.69        2968.75           2409      141514.00    630245.50
 1090.74        2969.00           2413      132027.00    587132.80
 1090.77        2969.25           2417      122798.00    545314.60
 1090.80        2969.50           2420      116640.00    517478.40
 1090.83        2969.75           2424      107100.00    474459.00
 1090.86        2970.00           2427       98741.00    436869.20
 1090.89        2970.25           2431       88650.00    391619.30
 1090.92        2970.50           2434       81490.00    359597.40
 1090.95        2970.75           2438       71817.00    316447.50
 1090.98        2971.00           2441       64914.00    285732.00
 1091.02        2971.25           2445       55777.00    245174.80
 1091.05        2971.50           2449       45934.00    201609.20
 1091.08        2971.75           2452       39098.00    171428.70
 1091.11        2972.00           2456       30072.00    131674.50
 1091.14        2972.25           2459       23596.00    103217.80
 1091.17        2972.50           2463       14714.00     64278.08
 1091.20        2972.75           2466        7978.00     34815.38
 1091.23        2973.00           2470        2470.00     10767.67
 1091.26        2973.25           2473        1242.00      5411.63
 1091.29        2973.50           2477         983.00      4282.23
 1091.32        2973.75           2481         966.00      4208.10
 1091.35        2974.00           2484         937.00      4081.65
 1091.38        2974.25           2488         895.00      3898.51
 1091.41        2974.50           2491         897.00      3907.23
 1091.44        2974.75           2495         872.00      3798.22
 1091.47        2975.00           2498         855.00      3724.10
 1091.51        2975.25           2502         872.00      3798.22
 1091.54        2975.50           2505         849.00      3697.94
 1091.57        2975.75           2509         809.00      3523.53
 1091.60        2976.00           2512         813.00      3540.97
 1091.63        2976.25           2516         812.00      3536.61
 1091.66        2976.50           2520         795.00      3462.48
 1091.69        2976.75           2523         786.00      3423.24
 1091.72        2977.00           2527         775.00      3375.28
 1091.75        2977.25           2530         793.00      3453.76
 1091.78        2977.50           2534         775.00      3375.28
 1091.81        2977.75           2537         758.00      3301.16
 1091.84        2978.00           2541         729.00      3174.71
 1091.87        2978.25           2544         754.00      3283.71
 1091.90        2978.50           2548         763.00      3322.96
 1091.93        2978.75           2552         746.00      3248.83
 1091.96        2979.00           2555         791.00      3445.04
 1091.99        2979.25           2559         733.00      3192.15
 1092.02        2979.50           2562         773.00      3366.56
 1092.06        2979.75           2566         729.00      3174.71
 1092.09        2980.00           2569         727.00      3165.99
 1092.12        2980.25           2573         743.00      3235.75
 1092.15        2980.50           2577         731.00      3183.43
 1092.18        2980.75           2580         712.00      3100.59
 1092.21        2981.00           2584         716.00      3118.03
 1092.24        2981.25           2587         719.00      3131.11
 1092.27        2981.50           2591         696.00      3030.83
 1092.30        2981.75           2594         690.00      3004.67
 1092.33        2982.00           2598         718.00      3126.75
 1092.36        2982.25           2601         720.00      3135.47
 1092.39        2982.50           2605         704.00      3065.71
 1092.42        2982.75           2609         679.00      2956.71
 1092.45        2983.00           2612         695.00      3026.47
 1092.48        2983.25           2616         695.00      3026.47
 1092.51        2983.50           2619         670.00      2917.46
 1092.54        2983.75           2623         683.00      2974.15
 1092.58        2984.00           2626         679.00      2956.71
HS scan finished at 18:12:48
end
