************************************************************
  HS Scan of (1) Internal mercury lamp
************************************************************
Integration time is 0.2294 seconds per sample
dh070219Reading 51.44 .94 2.74pr1000
************************************************************
Dead Time -------------------------  3.4E-08 
Number of Cycles Used -------------  4 
Starting Wavelength (Angstroms) ---  2950 
Final Wavelength (Angstoms) -------  2984 
Wavelength Increment (Angstroms) --  .25 
Filter Wheel #1 Position ---------- (1) Ground quartz diffuser (ND=2.32)
Filter Wheel #2 Position ---------- (1) Neutral Density 0.494



************************************************************
HS scan start time = 04:50:04
Dark Count =  .3 


Time (GMT)  Wavelength (Ang)  Step Number  Raw Counts  Counts/Second

  290.96        2950.00           2144        1651.00      7197.49
  291.15        2950.25           2147        1648.00      7184.41
  291.18        2950.50           2151        1621.00      7066.65
  291.21        2950.75           2155        1620.00      7062.29
  291.24        2951.00           2158        1598.00      6966.34
  291.27        2951.25           2162        1663.00      7249.83
  291.30        2951.50           2165        1636.00      7132.07
  291.33        2951.75           2169        1648.00      7184.41
  291.36        2952.00           2172        1621.00      7066.65
  291.39        2952.25           2176        1689.00      7363.22
  291.43        2952.50           2179        1650.00      7193.13
  291.46        2952.75           2183        1714.00      7472.26
  291.49        2953.00           2186        1659.00      7232.38
  291.52        2953.25           2190        1675.00      7302.16
  291.55        2953.50           2193        1701.00      7415.56
  291.58        2953.75           2197        1698.00      7402.47
  291.61        2954.00           2200        1710.00      7454.81
  291.64        2954.25           2204        1738.00      7576.93
  291.67        2954.50           2208        1749.00      7624.91
  291.70        2954.75           2211        1746.00      7611.82
  291.73        2955.00           2215        1744.00      7603.10
  291.76        2955.25           2218        1762.00      7681.61
  291.79        2955.50           2222        1775.00      7738.30
  291.82        2955.75           2225        1790.00      7803.73
  291.85        2956.00           2229        1797.00      7834.26
  291.88        2956.25           2232        1800.00      7847.34
  291.91        2956.50           2236        1789.00      7799.37
  291.95        2956.75           2239        1823.00      7947.66
  291.98        2957.00           2243        1816.00      7917.13
  292.01        2957.25           2246        1856.00      8091.59
  292.04        2957.50           2250        1903.00      8296.59
  292.07        2957.75           2254        1916.00      8353.29
  292.10        2958.00           2257        1918.00      8362.01
  292.13        2958.25           2261        1904.00      8300.95
  292.16        2958.50           2264        1898.00      8274.78
  292.19        2958.75           2268        1969.00      8584.46
  292.22        2959.00           2271        2010.00      8763.29
  292.25        2959.25           2275        2016.00      8789.46
  292.28        2959.50           2278        2030.00      8850.53
  292.31        2959.75           2282        2101.00      9160.22
  292.34        2960.00           2285        2077.00      9055.53
  292.37        2960.25           2289        2141.00      9334.70
  292.40        2960.50           2293        2159.00      9413.21
  292.43        2960.75           2296        2211.00      9640.04
  292.46        2961.00           2300        2266.00      9879.95
  292.50        2961.25           2303        2760.00     12035.00
  292.53        2961.50           2307        7216.00     31488.36
  292.56        2961.75           2310       18507.00     80896.56
  292.59        2962.00           2314       39931.00    175105.20
  292.62        2962.25           2317       56567.00    248679.20
  292.65        2962.50           2321       82219.00    362856.70
  292.68        2962.75           2324      103665.00    459002.60
  292.71        2963.00           2328      133017.00    591628.00
  292.74        2963.25           2331      154885.00    691228.80
  292.77        2963.50           2335      184056.00    825164.00
  292.80        2963.75           2339      211911.00    954222.20
  292.83        2964.00           2342      233633.00   1055670.00
  292.86        2964.25           2346      260065.00   1180085.00
  292.89        2964.50           2349      279023.00   1269985.00
  292.92        2964.75           2353      309207.00   1414291.00
  292.95        2965.00           2356      330237.00   1515698.00
  292.98        2965.25           2360      356738.00   1644518.00
  293.02        2965.50           2363      374947.00   1733709.00
  293.05        2965.75           2367      398535.00   1850082.00
  293.08        2966.00           2370      415155.00   1932654.00
  293.11        2966.25           2374      438404.00   2048972.00
  293.14        2966.50           2378      460013.00   2157947.00
  293.17        2966.75           2381      466191.00   2189257.00
  293.20        2967.00           2385      469139.00   2204223.00
  293.23        2967.25           2388      468710.00   2202044.00
  293.26        2967.50           2392      468975.00   2203390.00
  293.29        2967.75           2395      468434.00   2200642.00
  293.32        2968.00           2399      461735.00   2166667.00
  293.35        2968.25           2402      447843.00   2096470.00
  293.38        2968.50           2406      427955.00   1996576.00
  293.41        2968.75           2409      409891.00   1906449.00
  293.44        2969.00           2413      384608.00   1781257.00
  293.47        2969.25           2417      359577.00   1658387.00
  293.50        2969.50           2420      341110.00   1568411.00
  293.54        2969.75           2424      316208.00   1447971.00
  293.57        2970.00           2427      294258.00   1342641.00
  293.60        2970.25           2431      264062.00   1198992.00
  293.63        2970.50           2434      243103.00   1100122.00
  293.66        2970.75           2438      215570.00    971261.10
  293.69        2971.00           2441      195216.00    876732.80
  293.72        2971.25           2445      169502.00    758186.60
  293.75        2971.50           2449      142001.00    632464.40
  293.78        2971.75           2452      120856.00    536532.70
  293.81        2972.00           2456       93285.00    412388.40
  293.84        2972.25           2459       72662.00    320214.10
  293.87        2972.50           2463       45573.00    200016.00
  293.90        2972.75           2466       26194.00    114629.40
  293.93        2973.00           2470        9096.00     39703.52
  293.96        2973.25           2473        4540.00     19802.78
  293.99        2973.50           2477        2665.00     11620.55
  294.02        2973.75           2481        2362.00     10298.72
  294.06        2974.00           2484        2252.00      9818.88
  294.09        2974.25           2488        2172.00      9469.92
  294.12        2974.50           2491        2201.00      9596.42
  294.15        2974.75           2495        2111.00      9203.84
  294.18        2975.00           2498        2096.00      9138.41
  294.21        2975.25           2502        2043.00      8907.23
  294.24        2975.50           2505        1962.00      8553.93
  294.27        2975.75           2509        1983.00      8645.52
  294.30        2976.00           2512        1966.00      8571.37
  294.33        2976.25           2516        1958.00      8536.48
  294.36        2976.50           2520        1924.00      8388.18
  294.39        2976.75           2523        1888.00      8231.16
  294.42        2977.00           2527        1867.00      8139.57
  294.45        2977.25           2530        1864.00      8126.48
  294.48        2977.50           2534        1816.00      7917.13
  294.51        2977.75           2537        1803.00      7860.43
  294.55        2978.00           2541        1822.00      7943.30
  294.58        2978.25           2544        1795.00      7825.53
  294.61        2978.50           2548        1767.00      7703.41
  294.64        2978.75           2552        1736.00      7568.21
  294.67        2979.00           2555        1718.00      7489.70
  294.70        2979.25           2559        1719.00      7494.06
  294.73        2979.50           2562        1690.00      7367.58
  294.76        2979.75           2566        1666.00      7262.91
  294.79        2980.00           2569        1703.00      7424.28
  294.82        2980.25           2573        1708.00      7446.09
  294.85        2980.50           2577        1666.00      7262.91
  294.88        2980.75           2580        1665.00      7258.55
  294.91        2981.00           2584        1647.00      7180.04
  294.94        2981.25           2587        1586.00      6914.01
  294.97        2981.50           2591        1640.00      7149.51
  295.00        2981.75           2594        1592.00      6940.17
  295.03        2982.00           2598        1513.00      6595.64
  295.06        2982.25           2601        1582.00      6896.56
  295.09        2982.50           2605        1533.00      6682.86
  295.13        2982.75           2609        1503.00      6552.03
  295.16        2983.00           2612        1526.00      6652.33
  295.19        2983.25           2616        1490.00      6495.33
  295.22        2983.50           2619        1507.00      6569.47
  295.25        2983.75           2623        1524.00      6643.61
  295.28        2984.00           2626        1514.00      6600.00
HS scan finished at 04:55:30
end
************************************************************
  HS Scan of (1) Internal mercury lamp
************************************************************
Integration time is 0.2294 seconds per sample
dh070219Reading 51.44 .94 2.9pr1000
************************************************************
Dead Time -------------------------  3.4E-08 
Number of Cycles Used -------------  4 
Starting Wavelength (Angstroms) ---  2950 
Final Wavelength (Angstoms) -------  2984 
Wavelength Increment (Angstroms) --  .25 
Filter Wheel #1 Position ---------- (1) Ground quartz diffuser (ND=2.32)
Filter Wheel #2 Position ---------- (1) Neutral Density 0.494



************************************************************
HS scan start time = 18:09:59
Dark Count =  .6 


Time (GMT)  Wavelength (Ang)  Step Number  Raw Counts  Counts/Second

 1090.88        2950.00           2144        1537.00      6699.00
 1091.07        2950.25           2147        1566.00      6825.47
 1091.10        2950.50           2151        1542.00      6720.80
 1091.13        2950.75           2155        1579.00      6882.17
 1091.16        2951.00           2158        1544.00      6729.53
 1091.20        2951.25           2162        1571.00      6847.28
 1091.23        2951.50           2165        1572.00      6851.64
 1091.26        2951.75           2169        1600.00      6973.76
 1091.29        2952.00           2172        1554.00      6773.14
 1091.32        2952.25           2176        1575.00      6864.72
 1091.35        2952.50           2179        1577.00      6873.45
 1091.38        2952.75           2183        1603.00      6986.84
 1091.41        2953.00           2186        1572.00      6851.64
 1091.44        2953.25           2190        1601.00      6978.12
 1091.47        2953.50           2193        1605.00      6995.56
 1091.50        2953.75           2197        1611.00      7021.73
 1091.53        2954.00           2200        1635.00      7126.40
 1091.56        2954.25           2204        1638.00      7139.48
 1091.59        2954.50           2208        1625.00      7082.79
 1091.62        2954.75           2211        1630.00      7104.59
 1091.65        2955.00           2215        1676.00      7305.22
 1091.68        2955.25           2218        1666.00      7261.60
 1091.72        2955.50           2222        1659.00      7231.07
 1091.75        2955.75           2225        1678.00      7313.94
 1091.78        2956.00           2229        1663.00      7248.52
 1091.81        2956.25           2232        1693.00      7379.36
 1091.84        2956.50           2236        1742.00      7593.07
 1091.87        2956.75           2239        1722.00      7505.84
 1091.90        2957.00           2243        1747.00      7614.87
 1091.93        2957.25           2246        1703.00      7422.97
 1091.96        2957.50           2250        1740.00      7584.34
 1091.99        2957.75           2254        1776.00      7741.36
 1092.02        2958.00           2257        1750.00      7627.96
 1092.05        2958.25           2261        1761.00      7675.94
 1092.08        2958.50           2264        1776.00      7741.36
 1092.11        2958.75           2268        1810.00      7889.65
 1092.14        2959.00           2271        1829.00      7972.52
 1092.17        2959.25           2275        1879.00      8190.60
 1092.20        2959.50           2278        1904.00      8299.64
 1092.24        2959.75           2282        1883.00      8208.05
 1092.27        2960.00           2285        1926.00      8395.60
 1092.30        2960.25           2289        1928.00      8404.32
 1092.33        2960.50           2293        1982.00      8639.85
 1092.36        2960.75           2296        1996.00      8700.92
 1092.39        2961.00           2300        2076.00      9049.86
 1092.42        2961.25           2303        2392.00     10428.28
 1092.45        2961.50           2307        4883.00     21298.77
 1092.48        2961.75           2310       11507.00     50244.44
 1092.51        2962.00           2314       26936.00    117888.30
 1092.54        2962.25           2317       41919.00    183876.60
 1092.57        2962.50           2321       64540.00    284070.50
 1092.60        2962.75           2324       81760.00    360804.50
 1092.63        2963.00           2328      103828.00    459734.40
 1092.66        2963.25           2331      120941.00    536915.60
 1092.69        2963.50           2335      143993.00    641533.10
 1092.72        2963.75           2339      166522.00    744509.30
 1092.76        2964.00           2342      182152.00    816382.80
 1092.79        2964.25           2346      204904.00    921647.40
 1092.83        2964.50           2349      224109.00   1011101.00
 1092.86        2964.75           2353      250258.00   1133797.00
 1092.89        2965.00           2356      267851.00   1216937.00
 1092.92        2965.25           2360      289473.00   1319780.00
 1092.95        2965.50           2363      304140.00   1389964.00
 1092.98        2965.75           2367      325065.00   1490691.00
 1093.02        2966.00           2370      341405.00   1569842.00
 1093.05        2966.25           2374      363825.00   1679164.00
 1093.08        2966.50           2378      380641.00   1761712.00
 1093.11        2966.75           2381      386213.00   1789171.00
 1093.14        2967.00           2385      388994.00   1802895.00
 1093.17        2967.25           2388      389069.00   1803265.00
 1093.20        2967.50           2392      389916.00   1807448.00
 1093.23        2967.75           2395      388614.00   1801019.00
 1093.26        2968.00           2399      384618.00   1781305.00
 1093.29        2968.25           2402      375320.00   1735540.00
 1093.32        2968.50           2406      357327.00   1647393.00
 1093.35        2968.75           2409      344069.00   1582789.00
 1093.39        2969.00           2413      323363.00   1482471.00
 1093.43        2969.25           2417      302144.00   1380393.00
 1093.46        2969.50           2420      286488.00   1305539.00
 1093.49        2969.75           2424      263109.00   1194480.00
 1093.52        2970.00           2427      243757.00   1103196.00
 1093.55        2970.25           2431      219229.00    988318.50
 1093.58        2970.50           2434      201605.00    906336.80
 1093.61        2970.75           2438      178036.00    797421.10
 1093.64        2971.00           2441      161355.00    720827.20
 1093.67        2971.25           2445      139142.00    619455.10
 1093.70        2971.50           2449      115463.00    512164.90
 1093.73        2971.75           2452       98228.00    434566.30
 1093.76        2972.00           2456       75782.00    334120.30
 1093.80        2972.25           2459       58420.00    256895.80
 1093.83        2972.50           2463       35643.00    156199.60
 1093.86        2972.75           2466       21238.00     92870.82
 1093.89        2973.00           2470        7583.00     33090.39
 1093.92        2973.25           2473        3340.00     14564.32
 1093.95        2973.50           2477        2244.00      9782.68
 1093.98        2973.75           2481        2095.00      9132.74
 1094.01        2974.00           2484        2026.00      8831.77
 1094.04        2974.25           2488        1981.00      8635.49
 1094.07        2974.50           2491        1947.00      8487.19
 1094.10        2974.75           2495        1936.00      8439.21
 1094.13        2975.00           2498        1906.00      8308.36
 1094.16        2975.25           2502        1828.00      7968.16
 1094.19        2975.50           2505        1873.00      8164.43
 1094.22        2975.75           2509        1861.00      8112.09
 1094.25        2976.00           2512        1804.00      7863.48
 1094.28        2976.25           2516        1818.00      7924.54
 1094.32        2976.50           2520        1781.00      7763.16
 1094.35        2976.75           2523        1737.00      7571.26
 1094.38        2977.00           2527        1768.00      7706.47
 1094.41        2977.25           2530        1722.00      7505.84
 1094.44        2977.50           2534        1685.00      7344.47
 1094.47        2977.75           2537        1684.00      7340.11
 1094.50        2978.00           2541        1678.00      7313.94
 1094.53        2978.25           2544        1674.00      7296.49
 1094.56        2978.50           2548        1675.00      7300.85
 1094.59        2978.75           2552        1616.00      7043.54
 1094.62        2979.00           2555        1593.00      6943.23
 1094.65        2979.25           2559        1593.00      6943.23
 1094.68        2979.50           2562        1586.00      6912.70
 1094.71        2979.75           2566        1557.00      6786.22
 1094.74        2980.00           2569        1584.00      6903.97
 1094.77        2980.25           2573        1571.00      6847.28
 1094.80        2980.50           2577        1520.00      6624.86
 1094.84        2980.75           2580        1523.00      6637.94
 1094.87        2981.00           2584        1540.00      6712.08
 1094.90        2981.25           2587        1538.00      6703.36
 1094.93        2981.50           2591        1548.00      6746.97
 1094.96        2981.75           2594        1556.00      6781.86
 1094.99        2982.00           2598        1525.00      6646.66
 1095.02        2982.25           2601        1541.00      6716.44
 1095.05        2982.50           2605        1462.00      6371.91
 1095.08        2982.75           2609        1485.00      6472.22
 1095.11        2983.00           2612        1488.00      6485.30
 1095.14        2983.25           2616        1483.00      6463.50
 1095.17        2983.50           2619        1497.00      6524.55
 1095.20        2983.75           2623        1472.00      6415.52
 1095.23        2984.00           2626        1448.00      6310.86
HS scan finished at 18:15:27
end
