************************************************************
  HS Scan of 
************************************************************
Integration time is 0.2294 seconds per sample
dh060217Reading 51.44 .94 2.33pr1000
************************************************************
Dead Time -------------------------  3.4E-08 
Number of Cycles Used -------------  4 
Starting Wavelength (Angstroms) ---  2950 
Final Wavelength (Angstoms) -------  2984 
Wavelength Increment (Angstroms) --  .25 
Filter Wheel #1 Position ---------- (1) Ground quartz diffuser (ND=2.32)
Filter Wheel #2 Position ---------- (1) Neutral Density 0.494



************************************************************
HS scan start time = 04:53:47
Dark Count =  .2 


Time (GMT)  Wavelength (Ang)  Step Number  Raw Counts  Counts/Second

  294.68        2950.00           2144         817.00      3561.02
  294.88        2950.25           2147         846.00      3687.47
  294.91        2950.50           2151         856.00      3731.07
  294.94        2950.75           2155         852.00      3713.63
  294.97        2951.00           2158         827.00      3604.63
  295.00        2951.25           2162         835.00      3639.51
  295.03        2951.50           2165         830.00      3617.71
  295.06        2951.75           2169         824.00      3591.55
  295.09        2952.00           2172         852.00      3713.63
  295.12        2952.25           2176         841.00      3665.67
  295.15        2952.50           2179         848.00      3696.19
  295.18        2952.75           2183         832.00      3626.43
  295.21        2953.00           2186         856.00      3731.07
  295.24        2953.25           2190         857.00      3735.43
  295.27        2953.50           2193         828.00      3608.99
  295.31        2953.75           2197         856.00      3731.07
  295.34        2954.00           2200         885.00      3857.52
  295.37        2954.25           2204         872.00      3800.84
  295.40        2954.50           2208         879.00      3831.36
  295.43        2954.75           2211         880.00      3835.72
  295.46        2955.00           2215         890.00      3879.33
  295.49        2955.25           2218         845.00      3683.11
  295.52        2955.50           2222         863.00      3761.60
  295.55        2955.75           2225         854.00      3722.35
  295.58        2956.00           2229         866.00      3774.68
  295.61        2956.25           2232         900.00      3922.93
  295.64        2956.50           2236         914.00      3983.97
  295.67        2956.75           2239         893.00      3892.41
  295.70        2957.00           2243         930.00      4053.74
  295.73        2957.25           2246         892.00      3888.05
  295.76        2957.50           2250         962.00      4193.27
  295.79        2957.75           2254         898.00      3914.21
  295.82        2958.00           2257         890.00      3879.33
  295.86        2958.25           2261         933.00      4066.82
  295.89        2958.50           2264         940.00      4097.35
  295.92        2958.75           2268         979.00      4267.40
  295.95        2959.00           2271         948.00      4132.23
  295.98        2959.25           2275         972.00      4236.88
  296.01        2959.50           2278         962.00      4193.27
  296.04        2959.75           2282         961.00      4188.91
  296.07        2960.00           2285         953.00      4154.03
  296.10        2960.25           2289        1029.00      4485.43
  296.13        2960.50           2293        1054.00      4594.44
  296.16        2960.75           2296        1020.00      4446.18
  296.19        2961.00           2300        1119.00      4877.88
  296.22        2961.25           2303        1333.00      5811.09
  296.25        2961.50           2307        4336.00     18912.77
  296.28        2961.75           2310        8994.00     39258.12
  296.31        2962.00           2314       16831.00     73552.50
  296.34        2962.25           2317       23462.00    102632.10
  296.38        2962.50           2321       33162.00    145274.70
  296.41        2962.75           2324       41521.00    182121.60
  296.44        2963.00           2328       52288.00    229720.10
  296.47        2963.25           2331       59908.00    263500.10
  296.50        2963.50           2335       69077.00    304250.50
  296.53        2963.75           2339       78742.00    347328.60
  296.56        2964.00           2342       87074.00    384567.60
  296.59        2964.25           2346       97849.00    432866.30
  296.62        2964.50           2349      104456.00    462561.30
  296.65        2964.75           2353      114491.00    507779.40
  296.68        2965.00           2356      121524.00    539554.10
  296.71        2965.25           2360      130713.00    581174.20
  296.74        2965.50           2363      137367.00    611386.90
  296.77        2965.75           2367      146277.00    651941.50
  296.80        2966.00           2370      153111.00    683123.90
  296.83        2966.25           2374      162273.00    725033.70
  296.86        2966.50           2378      167445.00    748745.50
  296.90        2966.75           2381      169430.00    757856.40
  296.93        2967.00           2385      169739.00    759275.10
  296.96        2967.25           2388      169485.00    758108.90
  296.99        2967.50           2392      169320.00    757351.30
  297.02        2967.75           2395      169363.00    757548.80
  297.05        2968.00           2399      167153.00    747405.80
  297.08        2968.25           2402      161867.00    723174.00
  297.11        2968.50           2406      154023.00    687290.20
  297.14        2968.75           2409      146891.00    654740.30
  297.17        2969.00           2413      137500.00    611991.40
  297.20        2969.25           2417      127479.00    566512.80
  297.23        2969.50           2420      119787.00    531700.00
  297.26        2969.75           2424      109949.00    487295.70
  297.29        2970.00           2427      102660.00    454483.30
  297.32        2970.25           2431       92670.00    409631.60
  297.35        2970.50           2434       85081.00    375651.40
  297.38        2970.75           2438       74890.00    330144.60
  297.42        2971.00           2441       66961.00    294836.20
  297.45        2971.25           2445       56637.00    248990.00
  297.48        2971.50           2449       45522.00    199791.10
  297.51        2971.75           2452       37488.00    164332.40
  297.54        2972.00           2456       27564.00    120650.00
  297.57        2972.25           2459       20860.00     91214.44
  297.60        2972.50           2463       12163.00     53115.89
  297.63        2972.75           2466        6199.00     27046.66
  297.66        2973.00           2470        1940.00      8458.41
  297.69        2973.25           2473        1261.00      5497.10
  297.72        2973.50           2477        1079.00      4703.46
  297.75        2973.75           2481        1055.00      4598.80
  297.78        2974.00           2484         990.00      4315.37
  297.81        2974.25           2488         979.00      4267.40
  297.84        2974.50           2491         987.00      4302.29
  297.87        2974.75           2495         987.00      4302.29
  297.90        2975.00           2498         966.00      4210.72
  297.94        2975.25           2502         955.00      4162.75
  297.97        2975.50           2505         943.00      4110.43
  298.00        2975.75           2509         918.00      4001.42
  298.03        2976.00           2512         899.00      3918.57
  298.06        2976.25           2516         904.00      3940.37
  298.09        2976.50           2520         894.00      3896.77
  298.12        2976.75           2523         890.00      3879.33
  298.15        2977.00           2527         891.00      3883.69
  298.18        2977.25           2530         866.00      3774.68
  298.21        2977.50           2534         884.00      3853.16
  298.24        2977.75           2537         863.00      3761.60
  298.27        2978.00           2541         877.00      3822.64
  298.30        2978.25           2544         859.00      3744.16
  298.33        2978.50           2548         866.00      3774.68
  298.36        2978.75           2552         839.00      3656.95
  298.39        2979.00           2555         828.00      3608.99
  298.42        2979.25           2559         863.00      3761.60
  298.46        2979.50           2562         817.00      3561.02
  298.49        2979.75           2566         822.00      3582.83
  298.52        2980.00           2569         826.00      3600.27
  298.55        2980.25           2573         808.00      3521.78
  298.58        2980.50           2577         821.00      3578.47
  298.61        2980.75           2580         806.00      3513.06
  298.64        2981.00           2584         809.00      3526.14
  298.67        2981.25           2587         810.00      3530.50
  298.70        2981.50           2591         806.00      3513.06
  298.73        2981.75           2594         779.00      3395.34
  298.76        2982.00           2598         797.00      3473.82
  298.79        2982.25           2601         802.00      3495.62
  298.82        2982.50           2605         764.00      3329.93
  298.85        2982.75           2609         759.00      3308.13
  298.88        2983.00           2612         796.00      3469.46
  298.91        2983.25           2616         744.00      3242.73
  298.94        2983.50           2619         781.00      3404.06
  298.98        2983.75           2623         772.00      3364.81
  299.01        2984.00           2626         747.00      3255.81
HS scan finished at 04:59:14
end
************************************************************
  HS Scan of 
************************************************************
Integration time is 0.2294 seconds per sample
dh060217Reading 51.44 .94 2.78pr1000
************************************************************
Dead Time -------------------------  3.4E-08 
Number of Cycles Used -------------  4 
Starting Wavelength (Angstroms) ---  2950 
Final Wavelength (Angstoms) -------  2984 
Wavelength Increment (Angstroms) --  .25 
Filter Wheel #1 Position ---------- (1) Ground quartz diffuser (ND=2.32)
Filter Wheel #2 Position ---------- (1) Neutral Density 0.494



************************************************************
HS scan start time = 18:07:24
Dark Count =  .5 


Time (GMT)  Wavelength (Ang)  Step Number  Raw Counts  Counts/Second

 1088.31        2950.00           2144         741.00      3228.34
 1088.50        2950.25           2147         769.00      3350.43
 1088.53        2950.50           2151         762.00      3319.90
 1088.56        2950.75           2155         754.00      3285.02
 1088.59        2951.00           2158         767.00      3341.70
 1088.62        2951.25           2162         754.00      3285.02
 1088.65        2951.50           2165         784.00      3415.83
 1088.68        2951.75           2169         743.00      3237.06
 1088.71        2952.00           2172         781.00      3402.75
 1088.74        2952.25           2176         770.00      3354.79
 1088.77        2952.50           2179         744.00      3241.42
 1088.80        2952.75           2183         750.00      3267.58
 1088.84        2953.00           2186         775.00      3376.59
 1088.87        2953.25           2190         779.00      3394.03
 1088.90        2953.50           2193         803.00      3498.67
 1088.93        2953.75           2197         757.00      3298.10
 1088.96        2954.00           2200         747.00      3254.50
 1088.99        2954.25           2204         768.00      3346.07
 1089.02        2954.50           2208         768.00      3346.07
 1089.05        2954.75           2211         783.00      3411.47
 1089.08        2955.00           2215         755.00      3289.38
 1089.11        2955.25           2218         775.00      3376.59
 1089.14        2955.50           2222         783.00      3411.47
 1089.17        2955.75           2225         773.00      3367.87
 1089.20        2956.00           2229         772.00      3363.51
 1089.23        2956.25           2232         814.00      3546.64
 1089.26        2956.50           2236         800.00      3485.59
 1089.29        2956.75           2239         810.00      3529.19
 1089.32        2957.00           2243         779.00      3394.03
 1089.36        2957.25           2246         797.00      3472.51
 1089.39        2957.50           2250         818.00      3564.08
 1089.42        2957.75           2254         803.00      3498.67
 1089.45        2958.00           2257         805.00      3507.39
 1089.48        2958.25           2261         802.00      3494.31
 1089.51        2958.50           2264         854.00      3721.05
 1089.54        2958.75           2268         811.00      3533.55
 1089.57        2959.00           2271         852.00      3712.33
 1089.60        2959.25           2275         821.00      3577.16
 1089.63        2959.50           2278         833.00      3629.48
 1089.66        2959.75           2282         857.00      3734.13
 1089.69        2960.00           2285         872.00      3799.53
 1089.72        2960.25           2289         879.00      3830.05
 1089.75        2960.50           2293         898.00      3912.90
 1089.78        2960.75           2296         902.00      3930.34
 1089.81        2961.00           2300         930.00      4052.43
 1089.84        2961.25           2303        1023.00      4457.96
 1089.88        2961.50           2307        2051.00      8941.25
 1089.91        2961.75           2310        4821.00     21028.54
 1089.94        2962.00           2314       11350.00     49558.16
 1089.97        2962.25           2317       17016.00     74361.71
 1090.00        2962.50           2321       24425.00    106858.80
 1090.03        2962.75           2324       31006.00    135784.50
 1090.06        2963.00           2328       40833.00    179084.10
 1090.09        2963.25           2331       47277.00    207547.00
 1090.12        2963.50           2335       56477.00    248279.30
 1090.15        2963.75           2339       65325.00    287560.20
 1090.18        2964.00           2342       71673.00    315807.50
 1090.21        2964.25           2346       80682.00    355989.50
 1090.24        2964.50           2349       87240.00    385309.10
 1090.27        2964.75           2353       95902.00    424125.70
 1090.30        2965.00           2356      102802.00    455120.50
 1090.33        2965.25           2360      112329.00    498024.20
 1090.36        2965.50           2363      118729.00    526916.80
 1090.40        2965.75           2367      126947.00    564101.00
 1090.43        2966.00           2370      132596.00    589716.30
 1090.46        2966.25           2374      140052.00    623594.60
 1090.49        2966.50           2378      146223.00    651694.00
 1090.52        2966.75           2381      147818.00    658965.60
 1090.55        2967.00           2385      148516.00    662149.00
 1090.58        2967.25           2388      148245.00    660913.00
 1090.61        2967.50           2392      148132.00    660397.60
 1090.64        2967.75           2395      148040.00    659978.00
 1090.67        2968.00           2399      145803.00    649779.90
 1090.70        2968.25           2402      141386.00    629664.30
 1090.73        2968.50           2406      133423.00    593470.10
 1090.76        2968.75           2409      127121.00    564889.30
 1090.79        2969.00           2413      118848.00    527454.60
 1090.82        2969.25           2417      111045.00    492234.50
 1090.85        2969.50           2420      104907.00    464589.30
 1090.88        2969.75           2424       96662.00    427536.50
 1090.92        2970.00           2427       89966.00    397513.90
 1090.95        2970.25           2431       80878.00    356864.90
 1090.98        2970.50           2434       74119.00    326706.20
 1091.01        2970.75           2438       64843.00    285417.70
 1091.04        2971.00           2441       57807.00    254177.10
 1091.07        2971.25           2445       49152.00    215839.30
 1091.10        2971.50           2449       41301.00    181149.40
 1091.13        2971.75           2452       35051.00    153592.10
 1091.16        2972.00           2456       25850.00    113117.30
 1091.19        2972.25           2459       19282.00     84293.11
 1091.22        2972.50           2463       11389.00     49728.74
 1091.25        2972.75           2466        6004.00     26193.76
 1091.28        2973.00           2470        2211.00      9639.17
 1091.31        2973.25           2473        1236.00      5386.78
 1091.34        2973.50           2477         963.00      4196.33
 1091.37        2973.75           2481         920.00      4008.83
 1091.40        2974.00           2484         873.00      3803.89
 1091.43        2974.25           2488         859.00      3742.85
 1091.47        2974.50           2491         868.00      3782.09
 1091.50        2974.75           2495         861.00      3751.57
 1091.53        2975.00           2498         888.00      3869.30
 1091.56        2975.25           2502         842.00      3668.72
 1091.59        2975.50           2505         797.00      3472.51
 1091.62        2975.75           2509         828.00      3607.68
 1091.65        2976.00           2512         832.00      3625.12
 1091.68        2976.25           2516         812.00      3537.91
 1091.71        2976.50           2520         796.00      3468.15
 1091.74        2976.75           2523         773.00      3367.87
 1091.77        2977.00           2527         787.00      3428.91
 1091.80        2977.25           2530         786.00      3424.55
 1091.83        2977.50           2534         780.00      3398.39
 1091.86        2977.75           2537         767.00      3341.70
 1091.89        2978.00           2541         768.00      3346.07
 1091.92        2978.25           2544         746.00      3250.14
 1091.95        2978.50           2548         754.00      3285.02
 1091.99        2978.75           2552         772.00      3363.51
 1092.02        2979.00           2555         767.00      3341.70
 1092.05        2979.25           2559         721.00      3141.14
 1092.08        2979.50           2562         719.00      3132.42
 1092.11        2979.75           2566         754.00      3285.02
 1092.14        2980.00           2569         734.00      3197.82
 1092.17        2980.25           2573         740.00      3223.98
 1092.20        2980.50           2577         694.00      3023.41
 1092.23        2980.75           2580         715.00      3114.98
 1092.26        2981.00           2584         724.00      3154.22
 1092.29        2981.25           2587         737.00      3210.90
 1092.32        2981.50           2591         725.00      3158.58
 1092.36        2981.75           2594         712.00      3101.90
 1092.39        2982.00           2598         691.00      3010.33
 1092.42        2982.25           2601         679.00      2958.01
 1092.45        2982.50           2605         712.00      3101.90
 1092.48        2982.75           2609         682.00      2971.09
 1092.51        2983.00           2612         681.00      2966.73
 1092.54        2983.25           2616         670.00      2918.77
 1092.57        2983.50           2619         687.00      2992.89
 1092.60        2983.75           2623         684.00      2979.81
 1092.63        2984.00           2626         669.00      2914.41
HS scan finished at 18:12:51
end
