************************************************************
  HS Scan of 
************************************************************
Integration time is 0.2294 seconds per sample
dh040217Reading 51.44 .94 2.47pr1000
************************************************************
Dead Time -------------------------  3.4E-08 
Number of Cycles Used -------------  4 
Starting Wavelength (Angstroms) ---  2950 
Final Wavelength (Angstoms) -------  2984 
Wavelength Increment (Angstroms) --  .25 
Filter Wheel #1 Position ---------- (1) Ground quartz diffuser (ND=2.32)
Filter Wheel #2 Position ---------- (1) Neutral Density 0.494



************************************************************
HS scan start time = 04:56:44
Dark Count =  .4 


Time (GMT)  Wavelength (Ang)  Step Number  Raw Counts  Counts/Second

  297.63        2950.00           2144         820.00      3573.23
  297.82        2950.25           2147         831.00      3621.20
  297.85        2950.50           2151         810.00      3529.63
  297.88        2950.75           2155         811.00      3533.99
  297.91        2951.00           2158         794.00      3459.87
  297.94        2951.25           2162         806.00      3512.19
  297.97        2951.50           2165         813.00      3542.71
  298.00        2951.75           2169         817.00      3560.15
  298.03        2952.00           2172         815.00      3551.43
  298.07        2952.25           2176         801.00      3490.39
  298.11        2952.50           2179         866.00      3773.81
  298.14        2952.75           2183         816.00      3555.79
  298.17        2953.00           2186         833.00      3629.92
  298.20        2953.25           2190         810.00      3529.63
  298.23        2953.50           2193         866.00      3773.81
  298.26        2953.75           2197         837.00      3647.36
  298.31        2954.00           2200         849.00      3699.68
  298.34        2954.25           2204         873.00      3804.33
  298.37        2954.50           2208         911.00      3970.02
  298.40        2954.75           2211         864.00      3765.09
  298.43        2955.00           2215         872.00      3799.97
  298.46        2955.25           2218         855.00      3725.84
  298.49        2955.50           2222         838.00      3651.72
  298.52        2955.75           2225         848.00      3695.32
  298.55        2956.00           2229         896.00      3904.62
  298.59        2956.25           2232         850.00      3704.04
  298.62        2956.50           2236         876.00      3817.41
  298.65        2956.75           2239         881.00      3839.21
  298.68        2957.00           2243         894.00      3895.90
  298.71        2957.25           2246         916.00      3991.82
  298.74        2957.50           2250         873.00      3804.33
  298.77        2957.75           2254         922.00      4017.99
  298.80        2958.00           2257         938.00      4087.75
  298.83        2958.25           2261         897.00      3908.98
  298.87        2958.50           2264         913.00      3978.74
  298.91        2958.75           2268         947.00      4127.00
  298.94        2959.00           2271         943.00      4109.55
  298.97        2959.25           2275         960.00      4183.68
  299.00        2959.50           2278         953.00      4153.16
  299.03        2959.75           2282         971.00      4231.65
  299.06        2960.00           2285         964.00      4201.12
  299.09        2960.25           2289        1002.00      4366.82
  299.12        2960.50           2293        1030.00      4488.92
  299.15        2960.75           2296        1027.00      4475.83
  299.18        2961.00           2300        1105.00      4815.96
  299.21        2961.25           2303        1244.00      5422.10
  299.24        2961.50           2307        3827.00     16690.38
  299.27        2961.75           2310        8731.00     38107.76
  299.30        2962.00           2314       16778.00     73319.43
  299.33        2962.25           2317       24080.00    105344.40
  299.37        2962.50           2321       33901.00    148527.60
  299.40        2962.75           2324       41642.00    182654.80
  299.43        2963.00           2328       51853.00    227793.20
  299.46        2963.25           2331       59377.00    261142.80
  299.49        2963.50           2335       70212.00    309302.00
  299.52        2963.75           2339       80920.00    357053.00
  299.55        2964.00           2342       88676.00    391737.50
  299.58        2964.25           2346       98827.00    437257.20
  299.61        2964.50           2349      106875.00    473447.80
  299.64        2964.75           2353      117717.00    522344.80
  299.67        2965.00           2356      124924.00    554939.10
  299.70        2965.25           2360      134616.00    598887.30
  299.73        2965.50           2363      141540.00    630365.60
  299.76        2965.75           2367      151230.00    674533.60
  299.79        2966.00           2370      157643.00    703838.60
  299.82        2966.25           2374      167021.00    746799.30
  299.85        2966.50           2378      172579.00    772320.60
  299.88        2966.75           2381      173965.00    778691.90
  299.92        2967.00           2385      174386.00    780627.70
  299.95        2967.25           2388      174557.00    781414.10
  299.98        2967.50           2392      174525.00    781266.90
  300.01        2967.75           2395      174214.00    779836.80
  300.04        2968.00           2399      170797.00    764133.10
  300.07        2968.25           2402      164810.00    736659.20
  300.10        2968.50           2406      155296.00    693106.80
  300.13        2968.75           2409      148569.00    662391.10
  300.16        2969.00           2413      138986.00    618746.60
  300.19        2969.25           2417      130352.00    579536.00
  300.22        2969.50           2420      123192.00    547099.30
  300.25        2969.75           2424      112038.00    496712.30
  300.28        2970.00           2427      104213.00    461467.20
  300.31        2970.25           2431       93467.00    413204.00
  300.34        2970.50           2434       85791.00    378826.30
  300.37        2970.75           2438       75988.00    335039.90
  300.40        2971.00           2441       68477.00    301579.60
  300.44        2971.25           2445       58663.00    257974.70
  300.47        2971.50           2449       48979.00    215074.40
  300.50        2971.75           2452       41679.00    182818.10
  300.53        2972.00           2456       31706.00    138865.10
  300.56        2972.25           2459       24255.00    106112.70
  300.59        2972.50           2463       14039.00     61324.77
  300.63        2972.75           2466        7619.00     33248.55
  300.66        2973.00           2470        2714.00     11833.88
  300.69        2973.25           2473        1499.00      6534.15
  300.72        2973.50           2477        1077.00      4693.86
  300.75        2973.75           2481        1018.00      4436.59
  300.78        2974.00           2484        1025.00      4467.11
  300.81        2974.25           2488         990.00      4314.50
  300.84        2974.50           2491         995.00      4336.30
  300.87        2974.75           2495         986.00      4297.05
  300.90        2975.00           2498         963.00      4196.76
  300.93        2975.25           2502         964.00      4201.12
  300.96        2975.50           2505         936.00      4079.03
  300.99        2975.75           2509         941.00      4100.83
  301.02        2976.00           2512         916.00      3991.82
  301.05        2976.25           2516         893.00      3891.54
  301.08        2976.50           2520         903.00      3935.14
  301.12        2976.75           2523         891.00      3882.81
  301.15        2977.00           2527         846.00      3686.60
  301.18        2977.25           2530         873.00      3804.33
  301.21        2977.50           2534         885.00      3856.65
  301.24        2977.75           2537         850.00      3704.04
  301.27        2978.00           2541         875.00      3813.05
  301.30        2978.25           2544         857.00      3734.56
  301.33        2978.50           2548         832.00      3625.56
  301.36        2978.75           2552         833.00      3629.92
  301.39        2979.00           2555         840.00      3660.44
  301.42        2979.25           2559         846.00      3686.60
  301.45        2979.50           2562         840.00      3660.44
  301.48        2979.75           2566         809.00      3525.27
  301.51        2980.00           2569         807.00      3516.55
  301.54        2980.25           2573         804.00      3503.47
  301.57        2980.50           2577         859.00      3743.28
  301.60        2980.75           2580         796.00      3468.59
  301.63        2981.00           2584         812.00      3538.35
  301.67        2981.25           2587         819.00      3568.87
  301.70        2981.50           2591         800.00      3486.03
  301.73        2981.75           2594         818.00      3564.51
  301.76        2982.00           2598         776.00      3381.38
  301.79        2982.25           2601         786.00      3424.98
  301.82        2982.50           2605         764.00      3329.06
  301.85        2982.75           2609         786.00      3424.98
  301.88        2983.00           2612         764.00      3329.06
  301.91        2983.25           2616         753.00      3281.10
  301.94        2983.50           2619         772.00      3363.94
  301.97        2983.75           2623         783.00      3411.90
  302.00        2984.00           2626         778.00      3390.10
HS scan finished at 05:02:13
end
************************************************************
  HS Scan of 
************************************************************
Integration time is 0.2294 seconds per sample
dh040217Reading 51.44 .94 2.8pr1000
************************************************************
Dead Time -------------------------  3.4E-08 
Number of Cycles Used -------------  4 
Starting Wavelength (Angstroms) ---  2950 
Final Wavelength (Angstoms) -------  2984 
Wavelength Increment (Angstroms) --  .25 
Filter Wheel #1 Position ---------- (1) Ground quartz diffuser (ND=2.32)
Filter Wheel #2 Position ---------- (1) Neutral Density 0.494



************************************************************
HS scan start time = 18:07:19
Dark Count =  .6 


Time (GMT)  Wavelength (Ang)  Step Number  Raw Counts  Counts/Second

 1088.22        2950.00           2144         776.00      3380.51
 1088.42        2950.25           2147         740.00      3223.54
 1088.45        2950.50           2151         764.00      3328.19
 1088.48        2950.75           2155         763.00      3323.83
 1088.51        2951.00           2158         747.00      3254.07
 1088.54        2951.25           2162         781.00      3402.31
 1088.57        2951.50           2165         755.00      3288.95
 1088.60        2951.75           2169         778.00      3389.23
 1088.63        2952.00           2172         766.00      3336.91
 1088.66        2952.25           2176         759.00      3306.39
 1088.69        2952.50           2179         742.00      3232.26
 1088.72        2952.75           2183         790.00      3441.55
 1088.75        2953.00           2186         769.00      3349.99
 1088.78        2953.25           2190         787.00      3428.47
 1088.81        2953.50           2193         801.00      3489.52
 1088.84        2953.75           2197         774.00      3371.79
 1088.87        2954.00           2200         755.00      3288.95
 1088.90        2954.25           2204         772.00      3363.07
 1088.94        2954.50           2208         798.00      3476.44
 1088.97        2954.75           2211         785.00      3419.75
 1089.00        2955.00           2215         755.00      3288.95
 1089.03        2955.25           2218         789.00      3437.19
 1089.06        2955.50           2222         771.00      3358.71
 1089.09        2955.75           2225         757.00      3297.67
 1089.12        2956.00           2229         762.00      3319.47
 1089.15        2956.25           2232         773.00      3367.43
 1089.18        2956.50           2236         778.00      3389.23
 1089.21        2956.75           2239         809.00      3524.40
 1089.24        2957.00           2243         805.00      3506.96
 1089.27        2957.25           2246         796.00      3467.71
 1089.30        2957.50           2250         799.00      3480.80
 1089.33        2957.75           2254         799.00      3480.80
 1089.36        2958.00           2257         803.00      3498.24
 1089.39        2958.25           2261         817.00      3559.28
 1089.42        2958.50           2264         844.00      3677.01
 1089.46        2958.75           2268         848.00      3694.45
 1089.49        2959.00           2271         844.00      3677.01
 1089.52        2959.25           2275         885.00      3855.78
 1089.55        2959.50           2278         848.00      3694.45
 1089.58        2959.75           2282         850.00      3703.17
 1089.61        2960.00           2285         881.00      3838.34
 1089.64        2960.25           2289         870.00      3790.38
 1089.67        2960.50           2293         902.00      3929.91
 1089.70        2960.75           2296         921.00      4012.75
 1089.73        2961.00           2300         952.00      4147.93
 1089.76        2961.25           2303        1017.00      4431.36
 1089.79        2961.50           2307        1763.00      7684.66
 1089.82        2961.75           2310        4512.00     19679.25
 1089.85        2962.00           2314       12069.00     52702.90
 1089.88        2962.25           2317       18820.00     82267.28
 1089.91        2962.50           2321       27657.00    121057.00
 1089.95        2962.75           2324       34111.00    149451.50
 1089.98        2963.00           2328       43104.00    189108.30
 1090.01        2963.25           2331       49477.00    217276.60
 1090.04        2963.50           2335       59044.00    259664.20
 1090.07        2963.75           2339       69404.00    305704.20
 1090.10        2964.00           2342       76950.00    339330.10
 1090.13        2964.25           2346       86520.00    382086.80
 1090.16        2964.50           2349       93134.00    411710.00
 1090.19        2964.75           2353      101752.00    450399.20
 1090.22        2965.00           2356      108062.00    478792.20
 1090.25        2965.25           2360      116522.00    516946.40
 1090.28        2965.50           2363      122246.00    542818.10
 1090.31        2965.75           2367      130358.00    579562.30
 1090.34        2966.00           2370      136879.00    609167.20
 1090.37        2966.25           2374      146019.00    650763.80
 1090.40        2966.50           2378      152221.00    679057.30
 1090.43        2966.75           2381      153813.00    686328.90
 1090.47        2967.00           2385      154397.00    688997.30
 1090.50        2967.25           2388      154266.00    688398.70
 1090.53        2967.50           2392      154051.00    687416.40
 1090.56        2967.75           2395      153852.00    686507.10
 1090.59        2968.00           2399      151611.00    676272.10
 1090.62        2968.25           2402      147294.00    656575.90
 1090.65        2968.50           2406      139781.00    622361.50
 1090.68        2968.75           2409      133754.00    594972.40
 1090.71        2969.00           2413      125737.00    558619.60
 1090.74        2969.25           2417      116012.00    514643.60
 1090.77        2969.50           2420      109051.00    483247.40
 1090.80        2969.75           2424      100253.00    443662.30
 1090.83        2970.00           2427       93241.00    412189.70
 1090.86        2970.25           2431       84560.00    373319.70
 1090.89        2970.50           2434       78177.00    344805.10
 1090.92        2970.75           2438       69643.00    306768.00
 1090.95        2971.00           2441       62686.00    275832.80
 1090.98        2971.25           2445       53379.00    234550.10
 1091.02        2971.50           2449       43385.00    190349.10
 1091.05        2971.75           2452       36769.00    161161.40
 1091.08        2972.00           2456       28722.00    125738.70
 1091.11        2972.25           2459       22910.00    100207.40
 1091.14        2972.50           2463       14432.00     63044.32
 1091.17        2972.75           2466        8018.00     34991.04
 1091.20        2973.00           2470        2628.00     11457.82
 1091.23        2973.25           2473        1303.00      5678.52
 1091.26        2973.50           2477         981.00      4274.38
 1091.29        2973.75           2481         938.00      4086.88
 1091.32        2974.00           2484         904.00      3938.63
 1091.35        2974.25           2488         896.00      3903.74
 1091.38        2974.50           2491         879.00      3829.62
 1091.41        2974.75           2495         872.00      3799.10
 1091.44        2975.00           2498         845.00      3681.37
 1091.47        2975.25           2502         840.00      3659.57
 1091.50        2975.50           2505         820.00      3572.36
 1091.54        2975.75           2509         832.00      3624.68
 1091.57        2976.00           2512         849.00      3698.81
 1091.60        2976.25           2516         831.00      3620.32
 1091.63        2976.50           2520         842.00      3668.29
 1091.66        2976.75           2523         823.00      3585.44
 1091.69        2977.00           2527         768.00      3345.63
 1091.72        2977.25           2530         790.00      3441.55
 1091.75        2977.50           2534         788.00      3432.83
 1091.78        2977.75           2537         775.00      3376.15
 1091.81        2978.00           2541         766.00      3336.91
 1091.84        2978.25           2544         796.00      3467.71
 1091.87        2978.50           2548         741.00      3227.90
 1091.90        2978.75           2552         768.00      3345.63
 1091.93        2979.00           2555         713.00      3105.82
 1091.96        2979.25           2559         726.00      3162.50
 1091.99        2979.50           2562         734.00      3197.38
 1092.02        2979.75           2566         711.00      3097.10
 1092.06        2980.00           2569         747.00      3254.07
 1092.09        2980.25           2573         705.00      3070.94
 1092.12        2980.50           2577         716.00      3118.90
 1092.15        2980.75           2580         698.00      3040.42
 1092.18        2981.00           2584         730.00      3179.94
 1092.21        2981.25           2587         715.00      3114.54
 1092.24        2981.50           2591         717.00      3123.26
 1092.27        2981.75           2594         714.00      3110.18
 1092.30        2982.00           2598         742.00      3232.26
 1092.33        2982.25           2601         706.00      3075.30
 1092.36        2982.50           2605         690.00      3005.54
 1092.39        2982.75           2609         676.00      2944.50
 1092.42        2983.00           2612         665.00      2896.54
 1092.45        2983.25           2616         691.00      3009.90
 1092.48        2983.50           2619         694.00      3022.98
 1092.51        2983.75           2623         654.00      2848.58
 1092.54        2984.00           2626         677.00      2948.86
HS scan finished at 18:12:46
end
