************************************************************
  HS Scan of 
************************************************************
Integration time is 0.2294 seconds per sample
dh300117Reading 51.44 .94 2.88pr1000
************************************************************
Dead Time -------------------------  3.4E-08 
Number of Cycles Used -------------  4 
Starting Wavelength (Angstroms) ---  2950 
Final Wavelength (Angstoms) -------  2984 
Wavelength Increment (Angstroms) --  .25 
Filter Wheel #1 Position ---------- (1) Ground quartz diffuser (ND=2.32)
Filter Wheel #2 Position ---------- (1) Neutral Density 0.494



************************************************************
HS scan start time = 05:00:23
Dark Count =  .5 


Time (GMT)  Wavelength (Ang)  Step Number  Raw Counts  Counts/Second

  301.28        2950.00           2144         761.00      3315.54
  301.47        2950.25           2147         715.00      3114.98
  301.50        2950.50           2151         746.00      3250.14
  301.53        2950.75           2155         761.00      3315.54
  301.56        2951.00           2158         761.00      3315.54
  301.60        2951.25           2162         794.00      3459.43
  301.63        2951.50           2165         791.00      3446.35
  301.66        2951.75           2169         736.00      3206.54
  301.69        2952.00           2172         741.00      3228.34
  301.72        2952.25           2176         751.00      3271.94
  301.75        2952.50           2179         775.00      3376.59
  301.78        2952.75           2183         751.00      3271.94
  301.81        2953.00           2186         765.00      3332.98
  301.85        2953.25           2190         775.00      3376.59
  301.89        2953.50           2193         782.00      3407.11
  301.92        2953.75           2197         791.00      3446.35
  301.95        2954.00           2200         783.00      3411.47
  301.98        2954.25           2204         808.00      3520.47
  302.01        2954.50           2208         794.00      3459.43
  302.04        2954.75           2211         801.00      3489.95
  302.08        2955.00           2215         778.00      3389.67
  302.11        2955.25           2218         787.00      3428.91
  302.14        2955.50           2222         790.00      3441.99
  302.17        2955.75           2225         818.00      3564.08
  302.20        2956.00           2229         798.00      3476.87
  302.23        2956.25           2232         818.00      3564.08
  302.26        2956.50           2236         805.00      3507.39
  302.29        2956.75           2239         816.00      3555.36
  302.32        2957.00           2243         839.00      3655.64
  302.35        2957.25           2246         815.00      3551.00
  302.38        2957.50           2250         857.00      3734.13
  302.41        2957.75           2254         860.00      3747.21
  302.44        2958.00           2257         847.00      3690.52
  302.47        2958.25           2261         869.00      3786.45
  302.50        2958.50           2264         877.00      3821.33
  302.53        2958.75           2268         882.00      3843.14
  302.57        2959.00           2271         892.00      3886.74
  302.60        2959.25           2275         884.00      3851.86
  302.63        2959.50           2278         917.00      3995.75
  302.66        2959.75           2282         883.00      3847.50
  302.69        2960.00           2285         917.00      3995.75
  302.72        2960.25           2289         930.00      4052.43
  302.75        2960.50           2293         964.00      4200.69
  302.78        2960.75           2296         954.00      4157.08
  302.81        2961.00           2300        1013.00      4414.35
  302.84        2961.25           2303        1193.00      5199.26
  302.87        2961.50           2307        2876.00     12540.22
  302.90        2961.75           2310        7686.00     33540.85
  302.93        2962.00           2314       17626.00     77034.55
  302.96        2962.25           2317       25995.00    113754.30
  302.99        2962.50           2321       36398.00    159526.80
  303.02        2962.75           2324       43960.00    192889.00
  303.05        2963.00           2328       54780.00    240757.40
  303.09        2963.25           2331       64225.00    282671.00
  303.12        2963.50           2335       75988.00    335039.50
  303.15        2963.75           2339       87297.00    385564.20
  303.18        2964.00           2342       95775.00    423555.90
  303.21        2964.25           2346      106650.00    472434.30
  303.24        2964.50           2349      113536.00    503468.80
  303.27        2964.75           2353      125492.00    557510.60
  303.30        2965.00           2356      134403.00    597919.60
  303.33        2965.25           2360      145588.00    648800.10
  303.36        2965.50           2363      154001.00    687188.30
  303.39        2965.75           2367      164079.00    733307.80
  303.42        2966.00           2370      171778.00    768639.30
  303.45        2966.25           2374      181705.00    814322.80
  303.48        2966.50           2378      187992.00    843329.80
  303.51        2966.75           2381      189241.00    849099.20
  303.54        2967.00           2385      190148.00    853290.50
  303.57        2967.25           2388      190142.00    853262.80
  303.61        2967.50           2392      189766.00    851525.20
  303.64        2967.75           2395      189548.00    850517.80
  303.67        2968.00           2399      186751.00    837599.50
  303.70        2968.25           2402      182328.00    817194.60
  303.73        2968.50           2406      172994.00    774227.60
  303.76        2968.75           2409      164398.00    734770.00
  303.79        2969.00           2413      153347.00    684200.50
  303.82        2969.25           2417      142957.00    636815.60
  303.85        2969.50           2420      135917.00    604796.40
  303.88        2969.75           2424      126320.00    561260.60
  303.91        2970.00           2427      117353.00    520700.10
  303.94        2970.25           2431      105296.00    466339.70
  303.97        2970.50           2434       96737.00    427873.10
  304.00        2970.75           2438       85090.00    375690.30
  304.03        2971.00           2441       76379.00    336783.40
  304.06        2971.25           2445       65537.00    288502.70
  304.09        2971.50           2449       55637.00    244555.50
  304.13        2971.75           2452       48319.00    212154.70
  304.16        2972.00           2456       37254.00    163299.60
  304.19        2972.25           2459       28877.00    126420.60
  304.22        2972.50           2463       17328.00     75728.74
  304.25        2972.75           2466        9599.00     41901.42
  304.28        2973.00           2470        3011.00     13129.22
  304.31        2973.25           2473        1484.00      6468.29
  304.34        2973.50           2477        1112.00      4846.05
  304.37        2973.75           2481        1055.00      4597.49
  304.40        2974.00           2484         979.00      4266.09
  304.43        2974.25           2488         988.00      4305.34
  304.46        2974.50           2491         961.00      4187.61
  304.49        2974.75           2495         930.00      4052.43
  304.52        2975.00           2498         924.00      4026.27
  304.55        2975.25           2502         930.00      4052.43
  304.58        2975.50           2505         931.00      4056.79
  304.61        2975.75           2509         894.00      3895.46
  304.64        2976.00           2512         918.00      4000.11
  304.68        2976.25           2516         881.00      3838.78
  304.71        2976.50           2520         857.00      3734.13
  304.74        2976.75           2523         844.00      3677.44
  304.77        2977.00           2527         836.00      3642.56
  304.80        2977.25           2530         823.00      3585.88
  304.83        2977.50           2534         851.00      3707.97
  304.86        2977.75           2537         823.00      3585.88
  304.89        2978.00           2541         803.00      3498.67
  304.92        2978.25           2544         802.00      3494.31
  304.95        2978.50           2548         805.00      3507.39
  304.98        2978.75           2552         809.00      3524.83
  305.01        2979.00           2555         801.00      3489.95
  305.04        2979.25           2559         821.00      3577.16
  305.07        2979.50           2562         786.00      3424.55
  305.10        2979.75           2566         799.00      3481.23
  305.13        2980.00           2569         770.00      3354.79
  305.17        2980.25           2573         772.00      3363.51
  305.20        2980.50           2577         769.00      3350.43
  305.23        2980.75           2580         783.00      3411.47
  305.26        2981.00           2584         742.00      3232.70
  305.29        2981.25           2587         734.00      3197.82
  305.32        2981.50           2591         765.00      3332.98
  305.35        2981.75           2594         743.00      3237.06
  305.38        2982.00           2598         763.00      3324.26
  305.41        2982.25           2601         725.00      3158.58
  305.44        2982.50           2605         757.00      3298.10
  305.47        2982.75           2609         755.00      3289.38
  305.50        2983.00           2612         745.00      3245.78
  305.53        2983.25           2616         726.00      3162.94
  305.56        2983.50           2619         758.00      3302.46
  305.59        2983.75           2623         739.00      3219.62
  305.62        2984.00           2626         725.00      3158.58
HS scan finished at 05:05:51
end
************************************************************
  HS Scan of 
************************************************************
Integration time is 0.2294 seconds per sample
dh300117Reading 51.44 .94 3.03pr1000
************************************************************
Dead Time -------------------------  3.4E-08 
Number of Cycles Used -------------  4 
Starting Wavelength (Angstroms) ---  2950 
Final Wavelength (Angstoms) -------  2984 
Wavelength Increment (Angstroms) --  .25 
Filter Wheel #1 Position ---------- (1) Ground quartz diffuser (ND=2.32)
Filter Wheel #2 Position ---------- (1) Neutral Density 0.494



************************************************************
HS scan start time = 17:37:19
Dark Count =  1.1 


Time (GMT)  Wavelength (Ang)  Step Number  Raw Counts  Counts/Second

 1058.22        2950.00           2144         698.00      3038.24
 1058.41        2950.25           2147         732.00      3186.48
 1058.45        2950.50           2151         696.00      3029.52
 1058.48        2950.75           2155         766.00      3334.73
 1058.51        2951.00           2158         719.00      3129.80
 1058.54        2951.25           2162         703.00      3060.04
 1058.57        2951.50           2165         736.00      3203.92
 1058.60        2951.75           2169         726.00      3160.32
 1058.63        2952.00           2172         727.00      3164.68
 1058.66        2952.25           2176         696.00      3029.52
 1058.69        2952.50           2179         743.00      3234.44
 1058.72        2952.75           2183         738.00      3212.64
 1058.75        2953.00           2186         738.00      3212.64
 1058.78        2953.25           2190         749.00      3260.61
 1058.81        2953.50           2193         713.00      3103.64
 1058.84        2953.75           2197         754.00      3282.41
 1058.87        2954.00           2200         731.00      3182.12
 1058.90        2954.25           2204         755.00      3286.77
 1058.93        2954.50           2208         739.00      3217.00
 1058.97        2954.75           2211         769.00      3347.81
 1059.00        2955.00           2215         756.00      3291.13
 1059.03        2955.25           2218         787.00      3426.29
 1059.06        2955.50           2222         779.00      3391.41
 1059.09        2955.75           2225         758.00      3299.85
 1059.12        2956.00           2229         766.00      3334.73
 1059.15        2956.25           2232         801.00      3487.34
 1059.18        2956.50           2236         779.00      3391.41
 1059.21        2956.75           2239         771.00      3356.53
 1059.24        2957.00           2243         791.00      3443.73
 1059.27        2957.25           2246         823.00      3583.26
 1059.30        2957.50           2250         799.00      3478.62
 1059.33        2957.75           2254         845.00      3679.19
 1059.36        2958.00           2257         797.00      3469.90
 1059.39        2958.25           2261         840.00      3657.39
 1059.42        2958.50           2264         822.00      3578.90
 1059.45        2958.75           2268         824.00      3587.62
 1059.49        2959.00           2271         837.00      3644.31
 1059.52        2959.25           2275         863.00      3757.67
 1059.55        2959.50           2278         849.00      3696.63
 1059.58        2959.75           2282         862.00      3753.31
 1059.61        2960.00           2285         865.00      3766.39
 1059.64        2960.25           2289         904.00      3936.45
 1059.68        2960.50           2293         890.00      3875.40
 1059.71        2960.75           2296         930.00      4049.82
 1059.74        2961.00           2300         913.00      3975.69
 1059.77        2961.25           2303        1024.00      4459.70
 1059.80        2961.50           2307        2044.00      8908.10
 1059.83        2961.75           2310        5802.00     25309.04
 1059.86        2962.00           2314       13539.00     59133.15
 1059.89        2962.25           2317       19807.00     86592.41
 1059.92        2962.50           2321       28163.00    123279.00
 1059.95        2962.75           2324       35282.00    154607.00
 1059.98        2963.00           2328       45214.00    198426.20
 1060.01        2963.25           2331       52483.00    230579.60
 1060.04        2963.50           2335       63040.00    277403.10
 1060.07        2963.75           2339       71875.00    316704.50
 1060.10        2964.00           2342       79784.00    351976.50
 1060.13        2964.25           2346       88300.00    390051.00
 1060.16        2964.50           2349       94769.00    419039.90
 1060.20        2964.75           2353      104190.00    461360.60
 1060.23        2965.00           2356      112199.00    497435.10
 1060.26        2965.25           2360      122493.00    543933.30
 1060.29        2965.50           2363      129964.00    577773.10
 1060.32        2965.75           2367      138311.00    615674.20
 1060.35        2966.00           2370      144524.00    643949.50
 1060.38        2966.25           2374      153036.00    682777.20
 1060.41        2966.50           2378      159384.00    711801.30
 1060.44        2966.75           2381      161071.00    719524.40
 1060.47        2967.00           2385      162118.00    724319.60
 1060.50        2967.25           2388      162425.00    725726.00
 1060.53        2967.50           2392      162509.00    726110.80
 1060.56        2967.75           2395      161979.00    723682.90
 1060.59        2968.00           2399      160523.00    717015.20
 1060.62        2968.25           2402      155828.00    695535.60
 1060.65        2968.50           2406      147928.00    659464.50
 1060.68        2968.75           2409      141463.00    630012.10
 1060.72        2969.00           2413      133397.00    593349.40
 1060.75        2969.25           2417      124041.00    550938.60
 1060.78        2969.50           2420      117520.00    521451.70
 1060.81        2969.75           2424      109063.00    483299.20
 1060.84        2970.00           2427      102435.00    453467.60
 1060.87        2970.25           2431       92028.00    406749.90
 1060.90        2970.50           2434       84977.00    375182.30
 1060.93        2970.75           2438       75160.00    331344.40
 1060.96        2971.00           2441       68168.00    300201.50
 1060.99        2971.25           2445       59367.00    261095.30
 1061.02        2971.50           2449       50850.00    223350.10
 1061.05        2971.75           2452       43508.00    190890.10
 1061.08        2972.00           2456       34162.00    149673.90
 1061.11        2972.25           2459       26915.00    117793.90
 1061.14        2972.50           2463       17773.00     77676.10
 1061.17        2972.75           2466       10877.00     47486.82
 1061.20        2973.00           2470        3529.00     15386.86
 1061.24        2973.25           2473        1657.00      7220.17
 1061.27        2973.50           2477        1083.00      4716.97
 1061.30        2973.75           2481         951.00      4141.39
 1061.33        2974.00           2484         930.00      4049.82
 1061.36        2974.25           2488         880.00      3831.80
 1061.39        2974.50           2491         917.00      3993.13
 1061.42        2974.75           2495         879.00      3827.44
 1061.45        2975.00           2498         854.00      3718.43
 1061.48        2975.25           2502         850.00      3700.99
 1061.51        2975.50           2505         832.00      3622.50
 1061.54        2975.75           2509         833.00      3626.86
 1061.57        2976.00           2512         846.00      3683.55
 1061.60        2976.25           2516         820.00      3570.18
 1061.63        2976.50           2520         789.00      3435.01
 1061.66        2976.75           2523         805.00      3504.78
 1061.69        2977.00           2527         775.00      3373.97
 1061.72        2977.25           2530         782.00      3404.49
 1061.75        2977.50           2534         787.00      3426.29
 1061.79        2977.75           2537         784.00      3413.21
 1061.82        2978.00           2541         762.00      3317.29
 1061.85        2978.25           2544         748.00      3256.25
 1061.88        2978.50           2548         777.00      3382.69
 1061.91        2978.75           2552         761.00      3312.93
 1061.94        2979.00           2555         782.00      3404.49
 1061.97        2979.25           2559         762.00      3317.29
 1062.00        2979.50           2562         761.00      3312.93
 1062.03        2979.75           2566         751.00      3269.33
 1062.06        2980.00           2569         733.00      3190.84
 1062.09        2980.25           2573         718.00      3125.44
 1062.12        2980.50           2577         751.00      3269.33
 1062.15        2980.75           2580         721.00      3138.52
 1062.18        2981.00           2584         703.00      3060.04
 1062.21        2981.25           2587         709.00      3086.20
 1062.24        2981.50           2591         706.00      3073.12
 1062.27        2981.75           2594         712.00      3099.28
 1062.31        2982.00           2598         730.00      3177.76
 1062.34        2982.25           2601         688.00      2994.64
 1062.37        2982.50           2605         694.00      3020.80
 1062.40        2982.75           2609         692.00      3012.08
 1062.43        2983.00           2612         679.00      2955.40
 1062.46        2983.25           2616         695.00      3025.16
 1062.49        2983.50           2619         683.00      2972.84
 1062.52        2983.75           2623         682.00      2968.48
 1062.55        2984.00           2626         706.00      3073.12
HS scan finished at 17:42:46
end
